1798
3999.43349933624
650.420452594757
1
128
4
95.2835377599457
95.2726884343441
95.2751362511135
95.3187939687565
95.3511079817198
95.4004580913746
95.4199314584422
95.4171090759398
95.347044617708
95.2757211788861
95.3123509786396
95.3953141451912
95.4078391414626
95.4599354760353
95.4620274977644
95.4938908466276
95.5521510404178
95.4849297514288
95.3969530722531
95.4748068020974
95.4620132279069
95.3156170813171
95.3027433975701
95.3838093563519
95.3844144717562
95.4928487068846
95.5291536204754
95.5107828269107
95.5346100067892
95.5272104922089
95.4988498442879
95.5006026018332
95.4029000368426
95.3757424040658
95.4311166352304
95.3962986177267
95.3238445384715
95.4534876306226
95.6112746403866
95.5732632568616
95.4095431584939
95.3370402837288
95.3228109754087
95.3713669926552
95.4133810933941
95.3686220032575
95.3558206909167
95.4352608363676
95.4890084262772
95.5468673792437
95.5272367890252
95.5091878312294
95.5159237295336
95.5350323927359
95.4946826721299
95.3971556929386
95.2853331990216
95.4176980308133
95.590237946528
95.5096733714717
95.4862288630181
95.617484677032
95.5749652812446
95.5416660064425
95.4648145366921
95.3846213611843
95.4845307316057
95.546720510051
95.4701369830764
95.616256638922
95.700375985108
95.6052254182237
95.5189711142592
95.5386012008872
95.5551580721384
95.5840839141714
95.6708603977218
95.7816919962623
95.7920396626458
95.6096938326161
95.4945687812174
95.5201531955375
95.5796634795543
95.6991893752662
95.6872082921081
95.6031826873554
95.6388343103514
95.6062450949084
95.5383533758052
95.5895079354317
95.5830637366292
95.5255783316715
95.5974634907574
95.7277826745776
95.7200501206899
95.7794770644345
95.711639360618
95.5619367514734
95.5432541677994
95.6060757153797
95.7449061720507
95.8316542976576
95.8178357081456
95.8285276776019
95.7293627184317
95.6914459944216
95.7795901671691
95.8109568046975
95.7965791315293
95.9193564216288
95.9872505293772
95.8998854313627
95.743857856701
95.7025982859534
95.7701557781698
95.8572801231251
95.8908328256756
95.9033780862469
95.8516806632983
95.892443196104
95.9187081469504
95.8384126324469
95.8706176001164
95.9312680840314
95.7821781960828
95.7812357412201
95.838593476877
95.8246239665368
95.8881072792363
95.9411251836249
95.9115696212988
95.8580353188572
95.7934463588025
95.8471265549897
95.8673484281926
95.841912423241
95.9142332631214
95.8715546478724
95.6882391839065
95.7129205359161
95.9019775279337
96.2142698311675
96.14027240607
95.9174064846168
95.8919579669502
95.9658963491644
96.0021666732251
96.0344155505676
96.0547077305044
95.993789470994
95.8150673214127
95.8230064237669
96.0486292772167
96.2676497827245
96.2373607721981
96.0685904562965
96.0180845497648
96.1280256723831
96.1880929093798
96.2196048811196
96.1046868828791
96.0436124640951
96.1014904930083
96.1124176911245
96.123745445874
96.2721410994566
96.3673673754502
96.2339344843434
95.9813766336404
96.0042547387099
96.1558021982382
96.231490155975
96.0629766729069
95.9182525971607
95.9740012191348
96.0059728925265
96.107678939797
96.1673399097064
95.9141575965394
95.8309886677629
95.9227358760532
95.9636479755266
95.9842270688363
95.9715827958156
95.7771933606572
95.6630886423518
95.7986671846001
95.9776838342086
95.8031273264886
95.4883401662602
95.3474654283745
95.4169038039799
95.3772086206708
95.2136311916213
95.194285104359
95.2459356143329
95.2151016710703
95.2363113895183
95.1816140015546
94.954189775711
94.8071160141888
94.8101593576774
94.6979968414938
94.5959998645801
94.5723589606726
94.5393409704285
94.5271868614342
94.5610044446157
94.4530354808907
94.3883567120986
94.4109899483638
94.419366367229
94.3266126499055
94.2957460891506
94.2238343702602
94.0647149966841
93.938604947918
93.9189569594797
93.8872965632789
93.8415923322639
93.7599112717021
93.6718883516469
93.6234763286957
93.6118921297068
93.5012673647845
93.4572321486606
93.4420787697704
93.3437009517505
93.1333787323077
93.0320865327894
93.0718732893222
93.1316794676426
93.0234964597117
92.8989728648931
92.8686914911083
92.9121481800413
92.9029446165455
92.7570963186758
92.5034570265563
92.4534527364442
92.5099089937142
92.4403896720911
92.3333089357369
92.2775219194003
92.1354636675577
92.1724599418871
92.1673283404239
92.108171870858
92.0813969565109
91.9951553498143
91.9116121654063
91.90017971585
91.7790872471243
91.6847837637458
91.6313200159656
91.557362490668
91.5126495977877
91.5496731497959
91.5077908309139
91.4474865172941
91.3270756263534
91.2280159869987
91.1963416715075
91.1153405019164
90.986763502012
91.0075737270101
90.9851891087146
90.8970932624697
90.8829373046731
90.8891090735275
90.7088004161472
90.5147973210084
90.4468460320544
90.5714451081958
90.6559489154619
90.5640373795476
90.392063122584
90.3624593120966
90.2882955655898
90.1339700440591
90.0257624830354
90.0425301926475
90.0076321742485
90.0370682280308
90.0301324376122
89.8497990272061
89.6839252045977
89.6567851198795
89.6982366749146
89.7057638349895
89.6081647880403
89.5484056923594
89.4218247037092
89.3430516544064
89.3225276096269
89.2902900352552
89.3237461303562
89.3789871214915
89.2292212474427
89.0629072772452
88.9839788643381
88.997326013512
88.9296969603532
88.7715008106914
88.6979206796751
88.800328745898
88.7287520468234
88.6063587824801
88.645983537673
88.6075022548137
88.450555056166
88.4524584855818
88.4086043068266
88.3753909592653
88.3969851311032
88.3957266141653
88.3229051469041
88.3426774302035
88.300910814188
88.193918582014
88.1656074259594
88.1546014684213
88.0549929205588
87.9529060949624
87.8745853508018
87.8881212583544
87.9061948105155
87.8709572104159
87.7217591226744
87.6676023150019
87.706771337767
87.7106021409839
87.6884805100184
87.7207421784898
87.7056353975983
87.5982248784813
87.5310955480458
87.5384489633633
87.4622695042707
87.4478420792082
87.4925886159187
87.5234610496837
87.3579167272134
87.2476385342108
87.2730227120674
87.3184850121671
87.3271273684486
87.3613656204087
87.3666498280929
87.2982716685701
87.1295743898516
87.0634879749244
87.1019628037792
87.1738590168328
87.1958726759394
87.188742763588
87.1355330769708
87.1628651394471
87.1596271975529
87.1341799772183
87.1143758647807
87.0849514336315
87.0346820794166
87.0499009904893
87.0831702349608
87.0830062496664
87.0600926819894
87.1144475443507
86.9879534956296
86.9890407474298
87.141979251879
87.1634930657216
87.1160575634368
87.0781989212998
86.9928116805477
86.9910708794109
87.0871008531095
87.151294955221
87.0588437447455
87.0242105303875
87.0432501141344
87.0268971924401
87.0191202132044
87.065984821986
87.0713947512491
87.0810331620891
87.0596353440599
87.0502210791843
87.0529688187304
87.00300659556
86.9643177101915
87.0772132029465
87.1090798227294
87.0237473767045
87.0002906720836
87.0646152593179
87.0822825671738
87.1371957400027
87.0454177321394
86.98643596095
87.0881103949771
87.0837818211272
87.0423109330331
87.1148804285206
87.0998922218648
87.0983638972913
87.0809370274631
87.0391756515126
87.067120214698
87.1674128987971
87.2201993215685
87.2231178841022
87.0839612608763
87.0342524425546
87.1002928199952
87.1184710704815
87.0638210536969
87.1232268295214
87.1933816436524
87.1976696452102
87.1139982714072
87.0413316812506
87.085199538282
87.1528306701167
87.154299484736
87.2184251360041
87.1642446940119
87.1269541372731
87.2029082471285
87.2030468469748
87.2098108312098
87.3394582830294
87.32815717641
87.3141772367146
87.3831840776671
87.3644762667862
87.3223085939589
87.4239573060809
87.4050582571078
87.3926855764099
87.4422830338184
87.517373968312
87.4933596956323
87.4561676971314
87.5211156729166
87.5697886281819
87.56029419457
87.6061907533977
87.5938396906485
87.5967932545318
87.6403603592351
87.6503251798013
87.7063761322638
87.7797703709545
87.7938249920627
87.8649231255063
87.8859572116693
87.892130951618
87.9203344469958
88.0203569038983
88.0805950667188
88.111422346279
88.0909222882209
88.133660154904
88.1853541061753
88.1887123800757
88.2630748244066
88.2994772401899
88.2668953445503
88.3036881372648
88.3503287149322
88.5061603910929
88.6121098025446
88.623249926947
88.5367072435644
88.4718572145634
88.4816967267936
88.5161131304027
88.5581746125219
88.603295793452
88.5892238494414
88.620868484829
88.6960723305359
88.7395877447461
88.721916313244
88.7653562728206
88.822044777032
88.8832274334961
88.8874545245983
88.9525502087515
89.0195542361707
89.0191046595126
88.9902754381381
89.0431240068013
89.0727441215003
89.1264765347839
89.1878968847001
89.2403080998131
89.3072160106359
89.3026621809714
89.2803560863115
89.3597962218425
89.4153150164736
89.379136144904
89.2866193318571
89.355989836902
89.4748079169551
89.556827541927
89.6016640470592
89.6595980600057
89.6530088018443
89.6656874182687
89.7193926520679
89.7774550149107
89.7511395038403
89.7393282666677
89.8020087401702
89.8979839047199
89.9025744096817
89.8588886121784
89.8169053442089
89.8836411153798
90.0084596424898
90.1064683169135
90.1096366107055
90.0917788372696
90.1256262855314
90.1319663610128
90.1215865291121
90.175202205522
90.2182141979485
90.3121918604742
90.310803372949
90.2314966031012
90.276565800598
90.3449943617143
90.270029408608
90.2511501326819
90.2999406373316
90.2933857301448
90.2852085741013
90.3522130338277
90.3742676463525
90.373658786162
90.3560404579191
90.3630731461338
90.3736643605934
90.3728970260752
90.3096491390988
90.2960406593803
90.3277725010798
90.3476386074498
90.3834038333631
90.4355682101631
90.4013116209795
90.4269119581739
90.4598262993242
90.4567979032637
90.4424625207851
90.4826583602886
90.5235883668674
90.5162683669339
90.5122282380559
90.541959642972
90.5149768455448
90.5176469932297
90.502920278032
90.4738729341311
90.4994944210295
90.4899655622506
90.404662729603
90.4489754323537
90.5336655335495
90.560076476309
90.6324356723641
90.7243955267995
90.6739728883616
90.6573260268137
90.7040925696914
90.7261953250255
90.7766251999011
90.8901863914023
90.9551688712038
90.9925293423595
91.0229262455993
91.0623339470042
91.0510358168755
91.0779053081931
91.1286216216538
91.1617742302331
91.1649049427144
91.2533666635255
91.333758418062
91.3527299441169
91.3792563354616
91.3787727159259
91.3514290200054
91.3681062734588
91.4164489884455
91.4606368836211
91.4572760816857
91.4854537030277
91.5065006554235
91.5146294425806
91.5888574214135
91.6700143386486
91.6868595063276
91.6599283024074
91.6264353858302
91.7020370519223
91.7633493365178
91.7998407095806
91.8249381537968
91.8352570237015
91.8566976896466
91.9397003136887
92.0030557919183
91.9781060807301
91.9373532380916
91.9698589005556
92.0302902828867
92.093239524912
92.1595437395692
92.2253048582509
92.211475772283
92.2134619104576
92.2890679773305
92.3284619051651
92.3230476187286
92.3540964483493
92.3533923230434
92.3636269589534
92.4149661296946
92.4288098354393
92.3915183528434
92.3927142548473
92.4565595053657
92.4673244266718
92.4838660197161
92.5626070657714
92.5775854167801
92.6330184715905
92.6493029787146
92.5756306849768
92.5931971337237
92.6953170527432
92.6866892104382
92.6849106023149
92.7026357137128
92.7153346310333
92.7473160052238
92.7786388990618
92.7423421575638
92.7361186615555
92.7865051332006
92.8326877433314
92.8333895474804
92.8649394758118
92.9329115856088
92.9632142101785
92.9780709344033
92.9877888421091
92.9446018224737
92.9309655676223
92.9603686426831
93.0145386112622
93.0631054983965
93.1002573608159
93.0902543976475
93.064273536129
93.0467401238231
93.0807201037918
93.1214375464457
93.1428123250332
93.157819578387
93.1472244821766
93.1427477911484
93.2194802001767
93.2530428103721
93.2419324252179
93.2586005129261
93.2603554511461
93.2304399475157
93.2509170030995
93.2812330135284
93.3171308846596
93.4246033392575
93.4658328149031
93.3896523713633
93.3683099888498
93.4228304233702
93.5295978454399
93.5374600035447
93.4650518355905
93.4522719727746
93.4801117689412
93.4851264882411
93.4783215201674
93.5313463602232
93.5784412538756
93.5647975553983
93.5813660171447
93.5881710642088
93.5826280230489
93.6309898301597
93.6434710382447
93.6342795013377
93.6804643927747
93.7097182493384
93.7222178573872
93.7387948471403
93.7752293510232
93.7442180688477
93.7001064474872
93.7373567041158
93.7525163293901
93.7356611753895
93.7620588517937
93.7839844538801
93.7615560756648
93.7561050922508
93.7732467863134
93.7694093078455
93.7766025724176
93.8037232692884
93.861352025768
93.869814453957
93.891296845803
93.9233882765231
93.8988751959928
93.9039879191108
93.9330294681749
93.9713828366634
94.0002338739393
93.9807102511284
93.9998871589521
94.0413995036379
94.1632977951511
94.2022549383167
94.1489572831091
94.1628087308164
94.1775288886332
94.2324497573726
94.294318037685
94.2963438205932
94.3137339771438
94.3384142663317
94.3337210510507
94.3374429852046
94.3323336324883
94.3387123436327
94.4395322032675
94.4900050353613
94.4807268965786
94.5189532809667
94.5887177971567
94.5886430057439
94.5096377716664
94.5042951418013
94.6147724648961
94.6678042388987
94.6382901667634
94.7202461143554
94.7888557102
94.7713586615028
94.8013248078288
94.7228314133863
94.6899143599415
94.7730305490565
94.8445689352871
94.8041711498816
94.8234348370828
94.877866490177
94.9348826694448
94.9365656364
94.8509699014091
94.8617327039556
95.0538621676918
95.1385561553427
95.0619156484915
95.0003706630598
94.9873961547395
94.9715228419964
95.0486232693923
95.0537917434627
95.0179308121066
94.9985325321387
94.9824313052097
95.0810481094859
95.1827075309454
95.1481191222414
95.1151081900421
95.1331586690772
95.1779225659105
95.1553116228547
95.0712648953389
95.0992665465517
95.1558044277307
95.1689421524543
95.1968653018635
95.2326714018301
95.2325736311992
95.2169827027038
95.2487460958565
95.2424972888772
95.2188582102182
95.1842289912282
95.2212164075965
95.2466931232601
95.2290648887623
95.2201593166856
95.1970698122475
95.2407669660953
95.2791989896914
95.3057420490271
95.3635512692268
95.3403977024416
95.3044040919139
95.2974222770736
95.3521551539875
95.3096146370808
95.3022180606032
95.3642883401264
95.3401929541683
95.3117514497634
95.3467901441448
95.3634479308354
95.3417735130595
95.3199474754094
95.3491766574237
95.4542172956969
95.4554023495713
95.3915694431019
95.3625174875835
95.4369483919367
95.5185754418469
95.5279451196158
95.5066184049211
95.4855951172841
95.4349602868775
95.4139577295707
95.4533794926789
95.5277218185806
95.5531277590096
95.5580875805124
95.5038452566721
95.4566717335023
95.4500546607513
95.4353688289243
95.4872111002075
95.5181547999998
95.5696729236052
95.6711216944348
95.7090890941675
95.6581706451296
95.5745310477581
95.5553881787678
95.546045884661
95.5189117953349
95.5988754805813
95.6399133906669
95.5474107043181
95.5470218239868
95.5387389998985
95.5101275407021
95.530071386431
95.5194759148353
95.5472734996973
95.5651211157374
95.548875769456
95.503302822927
95.4615501099475
95.5017283778824
95.5359078757952
95.584763595174
95.651160374492
95.7147524189273
95.7799625497976
95.8031603523453
95.7894350847762
95.8487683035302
95.8541808616564
95.7407501425115
95.6438128618711
95.6168947393214
95.5784097660885
95.5794771419681
95.5661700320634
95.523791044007
95.5654975052389
95.5929599965477
95.5717095210289
95.6124193123565
95.6436650845377
95.6536433732812
95.6388862470809
95.6225044161728
95.6400289700279
95.5188166596492
95.3628038740152
95.4177851783092
95.4895648002239
95.4868789376108
95.4827600118065
95.5196766361831
95.6334152068993
95.6800405399614
95.6624915511967
95.6407034940329
95.6568745098262
95.7363030305422
95.7299907200251
95.7515979747686
95.8166959536544
95.7588908930261
95.6869905206115
95.7319515549628
95.7899309854382
95.8487316901797
95.8702212186582
95.8701477863281
95.8276531734137
95.9290409303883
96.0718287267379
96.0305836394043
96.1458385120293
96.3221887842916
96.3076609147883
96.3611922192854
96.4724957403133
96.6105775905145
96.6279035931629
96.5572860336491
96.594722605147
96.6320026185722
96.6781947168664
96.7176172506976
96.7565636970879
96.8007275710958
96.7874417783635
96.8672325852574
96.8823525019652
96.902922868023
97.0162147108154
97.0837546779646
97.1444913764939
97.1976143958212
97.3679026593143
97.4579383162469
97.2081297054959
97.1016442727133
97.3418734810436
97.475116748818
97.3501925592726
97.4259243526356
97.5697117746608
97.6103400633249
97.6153883774876
97.5681235181951
97.6790993470749
97.87975674185
98.1184926024192
97.9755070849336
97.7399406588654
97.983277265606
98.214935133207
98.0461830039266
97.8572485595792
98.1168142479387
98.281213168541
98.4828914226592
98.6880565434167
98.6810222295238
98.4963635136055
98.5556267918736
98.9173050409619
98.9508017356589
98.8541577719245
98.9112316632208
98.8399425317473
98.8980704886785
98.9478742271211
99.0803305974861
99.4088421205387
99.8410027345429
100.027878125397
100.062924461166
100.146750579803
100.187753157726
99.6379064614436
98.992423068405
98.7890575603535
99.1053252146342
99.2876742684198
99.3523621574397
99.2192598676925
98.9414467818454
98.6207064159032
98.39491239744
98.180334802865
98.298903284328
98.314362324884
98.0421011824193
97.8765707400477
97.9219637533968
97.8035295859257
97.7068380072578
97.7605606840087
97.7628891902684
97.6387453271578
97.3807969325827
97.2879072371078
97.2697657607667
97.2761009790142
97.4435394527887
97.4286252406473
97.3743405684699
97.4694175847641
97.6485700985419
97.5458673622332
97.3543273465585
97.5248576343758
97.6803695994389
97.7028746057107
97.6761015708194
97.6229340397769
97.6858301756176
97.7081403418817
97.6614156653544
97.6486443751402
97.6667033318425
97.5787765592155
97.7260326505694
97.9743848882624
98.0136877396014
97.9991603635428
98.0981533663314
98.1037132199993
98.0221961034699
98.1404670504733
98.3693484904501
98.4134321107926
98.3327108806406
98.3474148911857
98.6855708962829
98.8495943798697
98.9190743427109
99.1253938723283
99.2407360866425
99.1143454211549
99.3834937141044
99.6558914634588
99.9162478879797
100.212329654102
100.270313606529
100.619050743142
100.645725809703
100.094763786138
99.7347726033391
99.6801579747953
100.243369062666
100.738025761244
100.286605303314
99.7465103022796
100.026388773197
100.174025258913
99.9253927999657
99.5681978534099
99.6908772141508
99.8117761373261
99.7600245041599
99.6160890227289
99.4432680296971
99.0924669950776
98.8793625239526
98.8843134764395
99.1070081418637
99.2584887250534
99.310028488818
99.2428735663449
99.3681300475739
99.3185935823039
99.3265335895694
99.6479375614951
100.075418743294
100.437676947535
100.332663358439
99.8659018921035
99.7826644811195
99.9975933475337
99.9714422293686
99.6152073432365
99.3509435712199
99.1473598654125
99.0075552255834
99.1008988398156
99.0016284896833
98.9724205581774
99.1549681100692
98.9335562817502
98.6889882276665
98.7392758038478
98.7379204642581
98.6733405371219
98.7178782186456
98.5496073915589
98.3941564731524
98.1948255754353
98.0573055407977
98.2364728867597
98.286873944461
98.196513295172
98.2382220093389
98.1172024397929
98.0270667824446
98.053259143171
98.1008055531448
97.9727850892426
97.9382542506438
97.9582612046958
97.9010118120778
97.8058304383216
97.7029565513941
97.7271900412158
97.8592673973662
97.9023964989101
97.8937014818063
97.813155454539
97.8208035403037
97.8474449849949
97.7886301536796
97.7466078922377
97.8181541885492
97.7513617714652
97.7053754420131
97.7594590153288
97.8074557733268
97.8300245137554
97.8313582336709
97.6939375683478
97.6568104840817
97.7851034905268
97.8058571058756
97.6803001747374
97.6137355214929
97.5923997093157
97.707627682802
97.6988150918335
97.6196706913438
97.6149567750921
97.5999446589526
97.5353782263703
97.4950449680885
97.5915097852345
97.7800758651059
97.7658503250008
97.6389402709698
97.5925855229936
97.5903673025478
97.5816096257433
97.5846380560393
97.6114879582895
97.6153543365473
97.5764340890097
97.5507171913764
97.5691238895726
97.5849548541144
97.5549149890748
97.5665351128713
97.5148999500219
97.5125400089902
97.5343859257498
97.5219808158527
97.5009264208794
97.43720982178
97.3281023314898
97.3098836123068
97.3100034174755
97.2661599166828
97.2008251054692
97.1121931109719
97.0250714756297
97.0175019120896
97.00103560628
96.9393395244716
96.7908849569913
96.6226867005336
96.4996755377198
96.3982984835448
96.2785404535609
96.1010557113977
95.948131413107
95.8915234248711
95.8328187999268
95.7374261560077
95.533298033339
95.3509234992707
95.137188907179
95.0896546909398
95.0399650359414
94.9205378785194
94.7406998847616
94.6129695879777
94.474552789566
94.4302521073485
94.3913352288841
94.250804909012
94.0783528472405
93.9664609156978
93.8933671278598
93.8477992245848
93.7398946244085
93.5792837544481
93.49739793362
93.4845547931607
93.2302592340163
93.0614906652651
92.8912225067909
92.7191698481622
92.5600385361071
92.3447219398817
92.0980967978758
91.9447556817282
91.7693797389782
91.4568589452379
91.2088488239523
91.0342553337978
90.8958434964945
90.7297450005717
90.4750085592952
90.2167136692763
89.9964127575948
89.8349682683342
89.5169641139466
89.3857634777337
89.3068199053655
89.0489441153909
88.981831904713
88.791374378658
88.5409615030556
88.319809226258
88.0509128291103
87.67665323117
87.5054439987395
87.3569649324055
87.1638826781691
86.9295898093514
86.6020533259378
86.3733408255103
86.0756521777132
85.8042803213698
85.6090836119227
85.3687062616116
85.0289752481434
84.6905673354132
84.4448735866157
84.2095027275822
83.9258797366125
83.4298651028229
83.0481722382177
83.1707214563133
82.9320163631106
82.5602713156291
82.2787610620142
82.0252590110502
81.7099462114358
81.4160320857703
81.0034958953307
80.5208842176527
80.4188770650955
80.3154135503463
79.9655788641463
79.5853502502907
79.2361729592078
78.8957179991976
78.5574452487388
78.3674011572067
78.049218359508
77.6137782965485
77.3669408188677
77.1714199348043
76.7879787334455
76.4172725671405
76.036588541257
75.7250478297653
75.4065145188127
75.0877664304615
74.7712924257933
74.5169805103096
74.2050623145484
73.9098843940845
73.6619400402012
73.4496404441014
73.2061467545132
72.9849601817464
72.7542796189098
72.580107388695
72.4209782593239
72.2755900195956
71.986381101504
71.7384527624411
72.0200131829106
72.1105615268254
71.8396194030648
71.8128342254545
71.9725162458079
71.9637563757891
72.0056417242005
71.7261584591943
71.2540681143888
72.2868163077713
73.2036802146688
73.3956656085675
73.5834377026364
73.7353391379402
74.1292155693906
74.3945906027017
74.5697769645448
74.8458107864668
75.0644747739672
76.1272394535816
77.4428356101594
77.749928341803
77.8841816312145
78.591966591214
79.0862003969212
79.3393145311362
79.7528713725508
80.2557632536368
80.495047146495
81.1210117146538
81.8188034925865
82.0832490219071
82.5657493631347
82.9160167614842
83.1857913391732
83.2962458800349
83.1656692670732
83.8878083257055
84.7958917945481
85.0418809676129
85.0922227256414
85.1141600431309
85.3383168017647
85.7880670136556
85.9832151430857
85.9208537561112
86.0605916760061
86.2835367126089
86.4642896894009
86.5271062916128
86.504405524296
86.4977992258348
86.4235508864887
86.3069825523142
86.153155042118
86.0058689592012
86.0729566604377
85.9146136450176
85.5582136302285
85.2269189287081
85.1238859000616
84.8949191389067
84.499999354446
84.1230075258079
84.1574362414533
84.0352868738965
83.7221786615122
83.3831201764952
83.0556884479537
82.8214251315389
82.5888915542511
82.3293799769187
82.0897381868849
81.7278775811836
81.3425721308019
81.2521650442773
81.0219266877967
80.6555526056633
80.3046386457834
80.0108283805695
79.6485464819727
79.3097626574816
78.9780145940591
78.4966357200992
78.2913728547054
78.1983623220659
77.8859613529355
77.5383698053956
77.2280932400463
76.9734153029109
76.683123973663
76.4707296280433
76.3565886681022
76.1471898934685
75.8986869397229
75.8246888069366
75.6875339256768
75.7126312014102
75.7813354598003
75.6539900439064
75.4823608038207
75.5443104270382
75.676055918578
75.6856347338341
75.7224120609702
75.7877593349742
75.8700990582034
75.9076854615446
76.1074530087112
76.3862956700241
76.5231837157711
76.7001809414963
76.895374755213
76.9795446896165
77.1720018855615
77.5325854518818
77.7910798212134
77.9590055218751
78.1463456292009
78.3701415384773
78.5917369515563
78.8141118787583
79.0310202377259
79.2586221802078
79.4998211728355
79.663660543735
79.7770679646389
80.0260798952912
80.2945334752001
80.4840111529464
80.6380276357154
80.7999389079019
80.9598980340915
81.104683348973
81.218651307327
81.3525580624456
81.479302675066
81.5854972119538
81.7271369330605
81.8524175402253
81.9411115880206
82.0621708029102
82.1838044504093
82.2918806704577
82.3990288567506
82.5008005665395
82.5986742937432
82.6902391738508
82.7936440038432
82.8867971023247
82.9778339097921
83.0409529867813
83.0900150346106
83.1557829051412
83.2339643959986
83.3091881113838
83.3721884087988
83.4314431535545
83.4818877727042
83.492360378694
83.5063289391517
83.5211685181995
83.5381007915016
83.5665347394616
83.5857743898566
83.5952968869146
83.6229598447954
83.6426894387092
83.6568328907522
83.6811993515729
83.7437847282584
83.7895877251644
83.8221301027649
83.867694884625
83.9084158691854
83.9371203691614
83.9386646295754
83.9371981339376
83.9847377689627
84.0388228526125
84.067697328009
84.0945943750002
84.1025915054905
84.1187862034072
84.1549668866803
84.2013263591205
84.2400722748906
84.2537107719725
84.2801690835195
84.3090738533495
84.3586980093327
84.431480721297
84.4756087361288
84.4980115897193
84.5467572841384
84.6078797073258
84.6586100739824
84.6960868349028
84.7504006700797
84.8127213085075
84.8717753626724
84.9082354931294
84.9427045575506
84.9968707076531
85.0269269577363
85.0490399895954
85.0846535980083
85.0960411693702
85.1142546053457
85.1259347067969
85.1165498883613
85.1044829575238
85.0840735949302
85.0776231635697
85.0503439940246
85.0054288045984
84.9665196753391
84.9312688669779
84.8968016254542
84.8445079864089
84.7762295540398
84.7326704008872
84.6813825658787
84.6157465279167
84.552328316591
84.4991334160939
84.409855495196
84.3096289971299
84.2410732561386
84.1742245543608
84.0752787839336
83.9587446613545
83.8398534298609
83.7286365758644
83.6247442013248
83.5093280886373
83.3636820422238
83.2153843360428
83.0492668140491
82.9120401836288
82.789588491268
82.6405265831663
82.4851377380794
82.3501530704962
82.2041050083914
82.0728513805362
81.9573741615794
81.8279957728753
81.6810019552843
81.5362599855138
81.3874629127584
81.2591892400328
81.1333519621763
80.9696552448244
80.8060945686892
80.6586692603413
80.4788251471493
80.3050195697241
80.1807128219804
80.0525507436347
79.8982723013235
79.7211001060462
79.5863619362818
79.5009228355429
79.3482153167116
79.2227371633177
79.1527024939555
79.0560320264436
78.9528518363855
78.8754792925901
78.8035455761871
78.7364811180444
78.6700452561664
78.6186910615756
78.5725269260979
78.5094175416138
78.4471303346902
78.4178806340536
78.3638468172539
78.2745504143684
78.1726860692312
78.0732458675097
77.9973404880228
77.9607228063011
77.9231429356889
77.9017352392014
77.8750750828307
77.8736925798004
77.9102388246646
77.967288015153
78.012495846928
78.0844332758722
78.1839748251044
78.2931642357886
78.3617087512297
78.4146249813944
78.4813418830196
78.5914241480097
78.7026245575874
78.7930479027147
78.8904664258739
79.0016421827684
79.1100803932614
79.2321077415907
79.3897675009389
79.5626752742109
79.7214714793493
79.9120809973069
80.10245953076
80.3048337246134
80.5230644745454
80.7367375615694
80.988351517462
81.2612909426914
81.509195628544
81.7610176004216
82.0228836522881
82.2500089419723
82.4785906888994
82.7526432066095
83.0026395626614
83.2250405304339
83.4397461532396
83.6543819863905
83.8555395417512
84.0349574897423
84.2146885448362
84.3834774210258
84.5191807846314
84.646746138318
84.7567071669968
84.8642718291859
84.9957446926574
85.1118956740019
85.1806487537705
85.2601648535896
85.3761304879485
85.4852965088878
85.581256549751
85.6814491062886
85.7765937606479
85.884819999815
86.0054606102078
86.0963896783683
86.1630768753251
86.2552742815669
86.3517496199936
86.4497915923899
86.5253672845616
86.5886151722732
86.6816896651811
86.7316893740062
86.7711683806733
86.8552806546434
86.9040328250297
86.925426595333
86.9623032213065
87.0240795193153
87.0581905726663
87.0475133761276
87.0145213828784
87.0277844898362
87.0718322446401
87.090149991796
87.059619579963
87.0239328124999
87.0165306396149
86.9822775044949
86.9413059048684
86.9466895288869
86.9458065092873
86.9432896194924
86.8954539127304
86.8587982965265
86.8417416824345
86.799765947638
86.7515922123263
86.7218919157247
86.6852749021658
86.656591557805
86.6335327830951
86.6042326399541
86.5877346204279
86.5471250828977
86.4658637709045
86.3823321577723
86.348138879706
86.30609150614
86.253082607544
86.1797859804119
86.0916022255548
85.9482280348289
85.8302440225717
85.7557369656506
85.6480974967605
85.5163478025572
85.4032799255612
85.2850678729752
85.1595540473767
85.0260723263407
84.8754776625237
84.7452862661347
84.6286672587405
84.4848777875303
84.2877454634446
84.1111301351225
83.9791682368352
83.8512512836619
83.736638847753
83.6357191466855
83.5216901838836
83.4025751281911
83.2966043109953
83.2065060129616
83.1058084924423
82.958727433482
82.8114718939916
82.6882424375859
82.5478580918612
82.4378339126697
82.3333920802393
82.2544934490206
82.2069769884411
82.1227952529497
82.0348888474928
81.9965585081687
81.9608327584036
81.9586732394813
81.9246938574118
81.8526261016201
81.775016979363
81.7559397427015
81.7370108606613
81.6582130807583
81.5891973376734
81.5440017587081
81.493061943541
81.457157711548
81.3936835259318
81.3631931815853
81.3226356137307
81.2831205301602
81.2136738138253
81.1503664115298
81.0849723013869
81.0514276286518
81.0141343983742
80.9092763624989
80.8400657677542
80.7951147999584
80.7028217722898
80.627558216453
80.5454131854782
80.4658538580506
80.3523753347278
80.2409349350012
80.1770515612457
80.1457293479776
80.0842157588863
79.9449718770935
79.8082234684863
79.7473712518765
79.6579561020937
79.5534598389582
79.4452386097225
79.3185020584586
79.2271710229753
79.185837609946
79.0869938433943
78.9991203912299
78.8648990605391
78.7483356485969
78.6643979632907
78.5757877911273
78.4871418407203
78.4193208060943
78.3186686260993
78.2323412804139
78.1793763278292
78.0885907673198
77.9530952901132
77.85558717915
77.7729268111984
77.6834130180908
77.585439957839
77.4215980731866
77.1178193638527
77.3167445098384
77.3130286636434
77.0602472556491
77.0250115408427
76.9591353831768
76.8011656459058
76.6599785892207
76.5720584809375
76.4713766946439
76.3152626464851
