1798
3999.43349933624
650.420452594757
1
128
4
94.0286350609472
93.9625982873591
93.985317152762
94.0067628977406
93.9894151948718
94.0433395045607
94.0734239677442
94.0341628857217
93.9478184105127
93.9208040889415
94.0057561907201
94.0740570656062
94.0806169291184
94.08460494384
94.0117951686608
93.9481691301803
93.9623846887956
94.0314824511731
94.0962160274753
94.077781105714
94.020637420594
94.0609141188046
94.11305367838
94.1471588455479
94.0592909953232
93.9925887313479
94.1217422523619
94.1873250005581
94.0790870379087
94.0624776123261
94.1559600724116
94.1752487983123
94.055013470871
94.0121914495678
94.1199148889373
94.1414327315943
94.0953707954917
94.1296732192978
94.1879378152858
94.2422204291676
94.2362942469368
94.2093970047734
94.2305468063878
94.296906501862
94.3057121766484
94.2272602117272
94.1839690769166
94.2322666223503
94.2091086156617
94.1833553533374
94.1239328895863
94.069983243433
94.1237851542614
94.2262700389167
94.2793127518668
94.2626506011159
94.28193156412
94.4041160262191
94.4335120533627
94.251370030787
94.0993134008344
94.1192804916632
94.1771754887873
94.2746671821837
94.3614180819537
94.3809034791986
94.3585440214553
94.3340578093085
94.2699702116188
94.371568334228
94.5278559636476
94.5367817939091
94.4158472680726
94.3015932528096
94.2816770281888
94.3787789912989
94.3503943674372
94.2469259066237
94.3029939309682
94.4362030719421
94.5339765697398
94.5152041987888
94.414796181115
94.4572052266067
94.4546675407068
94.4312370775292
94.4788401533355
94.609341553362
94.600501440751
94.5782015067136
94.638157229994
94.4819655812837
94.3375626480256
94.4370437013882
94.4328351386506
94.4853463167717
94.5020735121877
94.4787505621726
94.5898025961441
94.6830436037466
94.7267194246872
94.6729596253281
94.5546962824821
94.5897406186072
94.6150754688778
94.5753643933439
94.6683144588408
94.73398553851
94.7944609176186
94.859031592289
94.7412399305713
94.6215885129702
94.6164327500076
94.6486071257519
94.6152670457244
94.6308279842674
94.7233155775952
94.718914782863
94.6411146799484
94.6555550911943
94.6769544159588
94.6291763509101
94.6237745625043
94.7041122273387
94.657123172484
94.6460630509387
94.7140614403576
94.8067925196906
94.8187595949876
94.739451849764
94.7082915816515
94.6592415058155
94.5508900452068
94.6763373403352
94.7604971803132
94.7655234288506
94.8117697979367
94.798399004734
94.8019789448887
94.912635667486
94.91781089231
94.8441297524495
94.8247507808691
94.9741966642072
95.1417839861904
95.1280912916261
94.9948420732295
94.8863365450018
94.8565132475249
94.9578682072019
94.9781216376955
94.9125733234229
94.8707046320293
94.9827301181844
95.0825579005708
95.0115073689232
94.9655012451
95.0053190654659
94.9941451595874
95.0815230400063
95.1108218461588
95.0048095716842
95.052155547807
95.0521857360142
94.8731874395568
94.8347253122626
94.9957052820281
95.1567500252068
95.0747694150569
95.0044188329183
94.9300910631485
94.8894258436065
94.9477569641565
94.9644173997705
94.8742802510777
94.7571678245024
94.8256484331891
95.0007257773728
94.9901556889503
94.9109267683214
94.866300360108
94.7949241233752
94.6941085772208
94.6773627320856
94.5853456365975
94.4806824580953
94.519966066258
94.5481174259104
94.4665955789044
94.3436499221313
94.2006081600668
94.1328987090403
94.0353016975646
93.9581948089772
93.9011283448167
93.8908822898341
93.784802536531
93.605243380627
93.5950434002373
93.5842223568287
93.4036515022589
93.2896314315858
93.2236346257987
93.1555437404292
93.0401341206368
92.9456086273209
92.9974538158188
93.0344189332249
92.7865033610561
92.5595043947457
92.4690249380799
92.445139944877
92.3750337672117
92.2614789323849
92.1767648054934
92.0829469434626
92.0788930089586
92.0843893596048
91.8595476288043
91.7381473507201
91.6930123202171
91.6180882024388
91.5206748020216
91.4698599342524
91.4232152168257
91.3507679622191
91.2624786181376
91.08850226888
90.9510372298144
90.8733261782094
90.7854157478376
90.7856647108014
90.7933714875432
90.7217845645077
90.5786417067094
90.4420333064399
90.2578643923651
90.1552035223794
90.076400003584
89.9848743298822
89.9006689677692
89.8249610743036
89.7372074276907
89.6073923560049
89.4446352433849
89.448979738954
89.4457012708174
89.3644759926719
89.2546401732217
89.2378670388078
89.1971476820433
89.0437499131457
88.8210335800518
88.723653966898
88.7060449622068
88.6140099416206
88.5230994764497
88.4671135722906
88.3021409502745
88.1623548210892
88.1420436489044
88.1920866313164
88.1703492429109
88.1317868988578
88.1036040162291
88.0014737609374
87.7411951045827
87.5199176725564
87.4613342204061
87.484824023829
87.3938210457425
87.3413189254266
87.2068815869031
87.023780418662
87.0152098775667
87.0974849586421
87.0245433035453
86.9571715386177
86.8651012420575
86.7028868715094
86.5029538345128
86.3707793900861
86.3835442512356
86.4225184951465
86.280454161382
86.0870983331348
85.9721798640268
85.8835650568189
85.8139255783557
85.8590548924672
85.9064821976435
85.9601159221033
85.8083549203387
85.6143312065902
85.5190692502649
85.4597859236638
85.3808839566509
85.2740592746981
85.1898492729388
85.160317903668
85.0272216984534
84.956504030181
84.9610339548233
84.9323517186771
84.8207325799808
84.7105546210624
84.6107570049825
84.6186749826347
84.6146962366529
84.5375409111913
84.3838585416219
84.3654920404768
84.3324513129863
84.2382594676398
84.1946461344289
84.1135771336643
83.9641439821195
83.8792883481278
83.8194230372017
83.7794674084376
83.724960214121
83.7507256960206
83.7506537330646
83.6953412917046
83.5672567203262
83.4652704659907
83.3952878976961
83.3384121487068
83.3173891658411
83.3253401958863
83.3159317258589
83.2636553820977
83.1933768138492
83.1826701267438
83.0611183418164
83.0056211748729
83.0616346108475
83.041821992572
82.8938622862247
82.8626265258625
82.8687641386294
82.8288522227474
82.7870025915634
82.7813137028143
82.7430830005101
82.7624152272415
82.7214257553139
82.6452243032903
82.6131710844024
82.594834343429
82.5826887478278
82.6072903788323
82.4996851756602
82.4764130247607
82.5528691988985
82.5634228363039
82.485922580378
82.5132923801577
82.5133169667032
82.438885755025
82.4352714553574
82.4867216184682
82.4614998757048
82.4786206990229
82.4681460929628
82.4243640041337
82.3754892571344
82.4496682653885
82.4747107657514
82.4920554165015
82.4255636511483
82.3592494432958
82.3964436472281
82.4308995671058
82.4183148892415
82.4271622350581
82.434945734696
82.4845938141804
82.4428168011808
82.3277557015802
82.3057835273585
82.3800687679995
82.3988747236258
82.3855797649696
82.3505680323431
82.4180032758139
82.4641574743482
82.3424284874602
82.260164095807
82.3704000718094
82.4072289034166
82.439895850298
82.4419543531981
82.3997417735036
82.3192989927752
82.2968047061382
82.2816397089877
82.2913640976671
82.3396727694874
82.3860425489785
82.3190592626699
82.3209356745331
82.4084798693966
82.5009443613308
82.5235427201827
82.4955845565412
82.4440505674477
82.4155866481336
82.3263656334058
82.3036899229767
82.4179775992397
82.4974434896436
82.4249136521041
82.4623236251278
82.5055281974123
82.3784795072533
82.3448889396678
82.4589251714607
82.5334648355308
82.527922495154
82.4965224463269
82.5786032286223
82.6084402469248
82.5856753963516
82.5425095907952
82.5708460257164
82.6057756143848
82.6047134948247
82.5788722489844
82.6525384526451
82.7146382525348
82.7533843705192
82.7754172300818
82.8780132607902
82.9217245849258
82.8456622140016
82.7877795749842
82.8644693261171
82.9344332362437
83.0125693329308
83.1063890367297
83.1514708170646
83.072244420673
83.0276574361885
83.0875362497397
83.2000572809485
83.1670455962054
83.1410081700672
83.2193000033426
83.3001416476881
83.3823427574333
83.4079395305124
83.3336524208226
83.4213150881146
83.6019705017832
83.6876607323838
83.6602295496429
83.6328888459382
83.6979613854116
83.783057347279
83.7940316697912
83.9102103759367
84.0185110077544
83.9818688630089
83.9273145743088
84.0315412653506
84.1179475117623
84.0578100987938
83.9681303868359
84.1037711020854
84.255186551953
84.321977559926
84.4785066808622
84.5879586472214
84.5535478523365
84.5307463051624
84.4980866838613
84.5209524425766
84.5481669210311
84.5459240706037
84.6308949663379
84.6898876625609
84.6334845599566
84.692561240417
84.7719072254772
84.8195453725297
84.8874608711987
84.9932266921492
85.0819406860013
85.1212922753506
85.1579091253315
85.2317069154201
85.2804392269907
85.3406181889328
85.4125596225619
85.4459463953631
85.4181042985729
85.4421061242901
85.482951172301
85.5586579392845
85.679278915699
85.7322096221718
85.5990641550592
85.6003225047064
85.6890202721077
85.7573690251154
85.8424570366328
85.9545508964657
86.0105148224587
86.0926234351024
86.1226638983368
86.1226743542914
86.1561593800975
86.2682740005503
86.3287502853167
86.3558691866753
86.4007499080254
86.4649206753968
86.4467895990819
86.4170294283417
86.4076988224345
86.4737677990439
86.5858613595595
86.6825941387151
86.714280508714
86.7587061472652
86.7706208683694
86.7730512711025
86.8181284387547
86.916812335026
86.9051324885284
86.8830605403192
86.897370008946
86.9849915532181
87.0732128546821
87.1109041400304
87.0635599479995
87.0430552303709
87.0700210080398
87.1190563838702
87.0971420594959
87.081174979388
87.1358324896063
87.1923213264631
87.124216253363
87.1189115700458
87.1800595668795
87.1586255596545
87.1006456431957
87.1889640282997
87.2562962190219
87.2640690079903
87.2549001202473
87.2670082689805
87.2398136749328
87.2847437592019
87.3288749523345
87.3395566478516
87.3179576250405
87.3278816275268
87.3470901589474
87.3548080325403
87.3455971586652
87.3840913255736
87.4246690822976
87.4626877481161
87.4559627565975
87.431599855991
87.4283754433911
87.4585693335867
87.4712082912848
87.4686329486814
87.4663011764268
87.5323220605562
87.5779993394339
87.5623677223391
87.6163603301084
87.6850891883164
87.6992279962727
87.8190305574372
87.9102040899691
87.9778900147834
88.0559219488404
88.14018861605
88.1881714564819
88.1641251062708
88.1866471185492
88.3006738518278
88.3093645607386
88.3335363042749
88.3738523461404
88.4508887071297
88.5845100413851
88.6189911178657
88.6039447575475
88.6880881414907
88.690549349105
88.6737057064305
88.7645786267766
88.8339805524299
88.7892018683515
88.7771678259662
88.8218491498554
88.8834871672026
88.9379613051065
88.9696594259194
88.9963159989238
89.0515256678371
89.0908505597741
89.1224607832319
89.174602111607
89.1971351888981
89.1714729850039
89.2022966557185
89.2789644875238
89.35617761707
89.3715059007683
89.4109051154245
89.4917945982814
89.5248137935467
89.5108220459786
89.5435009010596
89.5964664158792
89.6892630195396
89.7959518595671
89.8519415935815
89.839547723043
89.8200286767911
89.8564658866481
89.9229023352906
89.9404788255359
89.9564921041338
90.0082348135752
90.0338504876187
90.0028281084998
90.0332167768129
90.0920182449221
90.1100033978624
90.1722366309681
90.264303555105
90.2664440349512
90.2489770786202
90.2612180762232
90.2989099339118
90.3594137859152
90.3931001466952
90.4191521012478
90.4624777471055
90.4755571389921
90.493038142299
90.5570796440646
90.5953511629689
90.5336108312371
90.4889528421234
90.538972385378
90.6011302416038
90.6242766503956
90.6785863030498
90.7125933381485
90.7075399903559
90.7082055794135
90.7594176694612
90.84819264712
90.9111500284297
90.8684908049377
90.8085382791612
90.82667217897
90.9339535565445
90.9932838032541
90.9935761166311
90.978641789549
91.024925363281
91.0568233189454
91.0573111964746
91.0474945638977
91.0497671841088
91.0798158921374
91.1388019642862
91.1786837862825
91.2002513870432
91.23268528031
91.2479034947314
91.2049892358334
91.2427288759386
91.2938896855597
91.3082845952465
91.3523294402274
91.3680300564374
91.3402961371855
91.3471352429178
91.401320342016
91.4458042641431
91.4497494544562
91.5101026430659
91.5572430639791
91.4865138027885
91.45883168844
91.5044361943995
91.5541126761499
91.622839084731
91.6462561468259
91.634290492133
91.6427377543612
91.653639678373
91.6681871068503
91.6861799810099
91.7092760205705
91.7665541778421
91.8097378664812
91.7878191808306
91.7930647366584
91.8597257845115
91.8964490735339
91.9034351270815
91.912918395182
91.9355525513072
91.9303555340805
91.9139278167331
91.9267063118177
91.9340074831478
91.9087600459755
91.9085770430359
91.9266764525311
91.9247415280032
91.928796709746
91.997193855501
92.0566322378347
92.0468688364562
92.0128158639149
92.0333978184432
92.1185844775346
92.1464270582581
92.2129981042339
92.2825077296869
92.2704868282966
92.2751497773472
92.2917339326043
92.3513126590967
92.405259796005
92.4850208525282
92.5472545859829
92.4959271958983
92.488570220771
92.5381786508605
92.560655266657
92.6128565137211
92.6637432343119
92.6602733117804
92.6106638017993
92.6612667124055
92.7822252805586
92.8072369255748
92.8222117641458
92.8806874595732
92.8737600946598
92.814297002668
92.8710509689721
92.9515488214664
93.0174935947514
93.0436846582977
92.9999442501419
93.0237515377817
93.0217392014693
92.9759118272587
93.0304912723373
93.0780058580767
93.0889512829463
93.0932049078795
93.1578779722284
93.2022551270426
93.2540235908504
93.3030844018341
93.3105347871202
93.2852903564974
93.3418938385289
93.4360920945913
93.3673582091408
93.2772011788968
93.3303444520792
93.3867840528293
93.3802149420803
93.4209586875216
93.4873220585779
93.5392846416694
93.5623588401037
93.5606940533173
93.50956611552
93.500588903686
93.5488961409774
93.5908712050695
93.5704470469093
93.4932971157501
93.5765769825852
93.625146387759
93.5895461549111
93.626180650674
93.6916026175026
93.6970773164258
93.6798625821694
93.7050613324238
93.7687640917245
93.7952245720513
93.8067246853572
93.7690675628611
93.6976757569559
93.7212113537582
93.8095211949832
93.7900442312443
93.7209491694398
93.7355648877832
93.7577893757271
93.7666842759048
93.8494619071267
93.893529263077
93.840724429117
93.8098997998924
93.8354564180062
93.9302976416896
93.9977521811558
93.9470749335061
93.9732942525163
93.9989866013909
94.0289532080309
94.0065250314039
93.9366642193487
93.9574984559469
93.9848799381721
93.931314441087
93.9529617233644
93.9903215711731
93.9561911942635
93.9196487288138
93.9431882421859
93.9855084684553
94.0240439152373
93.9615944609934
93.8894458525877
94.0034108459266
94.2208632304554
94.2276250676825
94.1858171060093
94.1405454392386
94.1499778451484
94.1712138312512
94.208795177246
94.2480907805361
94.1784680787888
94.1083609271184
94.1620409547814
94.2515145721366
94.2797555553476
94.2416400697028
94.1622569864852
94.1549381970966
94.2153986033952
94.1917164702466
94.2340021869234
94.2094755753892
94.1498786117328
94.1716941402117
94.2241665873555
94.2162151098071
94.17176416574
94.1255374222316
94.1484561877272
94.1469592821379
94.0873822974362
94.0533454506048
94.0336935549556
94.0691997916258
94.0984455332493
94.1105034702621
94.1511245195018
94.118907030087
94.2031853680722
94.2982331532548
94.3468497830339
94.3686811389494
94.3613700336187
94.4487993669844
94.5033854851997
94.4890095797134
94.5304805646964
94.4765076923092
94.4037913104141
94.3509853229104
94.2654993854853
94.1627406632664
94.0855745951932
94.0565181249886
94.0789722603225
94.1717819250364
94.2423421970255
94.2721570341417
94.2722733730294
94.2862676985072
94.294571912306
94.2114173150892
94.1185022058093
94.0525068346965
94.0910150172048
94.125176939735
94.1974421596317
94.2234537497453
94.2418892472213
94.264125198833
94.2625325613679
94.2756473400571
94.3262406470703
94.3277826202999
94.3484203392071
94.3189976727283
94.3140617102502
94.4075805391916
94.4450463747322
94.4604014105435
94.4547518799477
94.4683293515545
94.6084999939019
94.6297035743163
94.6001072550629
94.6718688093968
94.7761966758163
94.888901189863
94.94980809809
94.8691450090278
95.0003549853713
95.1086613021266
95.115192506231
95.0817059070857
95.160226862269
95.4212895966461
95.4627398762271
95.4041599530285
95.4517484382542
95.4455869679779
95.5853413497523
95.9218241793632
96.0198194165405
95.838721768097
95.7445360777731
95.7349952913343
95.8483395796726
96.0517276459974
96.0620532353827
95.9272105747376
96.123653131797
96.2955085831033
96.2639865738778
96.2460177526504
96.4000064289408
96.4335723546784
96.3094417902651
96.4886776318352
96.6327542098462
96.6414710949717
96.7576606128223
96.8358290067108
96.9079356758054
96.8810512358994
96.7168940657054
96.6267696554386
96.7528270804097
96.7760718751209
96.9453469603264
96.9955361849539
97.1588070332127
97.5949966589667
97.6591060211795
97.3423900955367
97.2207454143447
97.4487250338949
97.560813458186
97.5870102788886
97.9147811919366
98.128736214241
98.0296253350068
97.8508300548172
98.1521236043325
98.3600184562869
98.1939438879402
98.2075537537365
98.3463983838473
98.3739603740234
98.6905569150493
98.7940942533667
99.0123453269788
99.4278376421205
99.7459384320121
99.6184742439515
99.2498606094765
98.6284961574411
98.4262026607837
98.1725557674307
97.820135314797
97.7411113453393
97.9478422689096
97.9630022253696
97.5199782241182
97.1612418700664
97.2731504047696
97.3957934295926
97.2758388458534
96.9223598542783
96.8170254451317
96.8160026875821
96.6909212458439
96.4351568037096
96.3750781188299
96.4284742738196
96.3028911390565
96.3358534576192
96.5138187527982
96.3791859528802
96.3200207688266
96.3399221802229
96.49840099587
96.5592616316698
96.5802521630036
96.6709820049661
96.6018268038588
96.5211234714248
96.5258867001477
96.6189049654743
96.7869100434777
96.7149564716278
96.605638672739
96.6772099292549
96.7028047850356
96.628895984146
96.7701049093623
96.868577140358
96.9587847593392
97.1023425385916
97.2012883669289
97.1296915509865
97.2268474481355
97.3094015283444
97.1370407456163
97.0630223845534
97.2855959654733
97.3695622623956
97.2755835632954
97.352204380795
97.7890340278051
97.9232362310255
97.937633055019
98.0392947673748
98.2338037579682
98.6236184932194
98.6527917290962
98.5126710175613
98.5173088987493
98.7781678193139
99.2845393433126
99.2727863785527
99.204294534046
99.2497531647477
99.4750188525335
99.2883616316082
99.4481284391093
99.4680891832035
99.5500602531434
99.5352825436884
99.318472951162
99.3257531347448
99.5904841032536
99.5177215182285
99.4027171041548
99.2422484392779
98.97878919544
98.9228800204267
98.7211924620313
98.4264366327149
98.5984739656847
98.41075275119
98.3994024513523
98.6132749923264
98.6558031330343
98.4133603852706
98.3204333947512
98.5648300155118
99.1593765179731
99.0919958691768
98.9285472396131
98.8815087371005
99.1231854427667
99.3386378762937
99.092211838959
98.9705866178441
99.2112818821123
99.0292866936932
98.8892454536537
98.4767181294806
98.3952332814405
98.4959959933235
98.2849431016862
98.0936919252466
98.001822434319
97.9065048921498
97.951635639823
98.0433346264745
97.9345709723039
97.7816072062156
97.7088875095995
97.6046535362044
97.6463114667945
97.5073230520355
97.520986610885
97.4743778505673
97.3743905390354
97.3288886475838
97.2527601357111
97.1585024096065
97.1753392914716
97.1376506797247
97.0739541900201
97.0417735917971
97.1252680862736
97.1783392412422
97.0585284952974
96.9662166547962
97.0359022040481
97.0438771540351
97.0026003943207
96.8393942224632
96.7599802896759
96.7723686556002
96.8203425295342
96.8503527737285
96.9439340845555
96.988024885656
96.9374374201696
96.8165658035422
96.8418341027583
96.8446875120602
96.8448974798472
96.8556364944468
96.821952822021
96.7425152176993
96.7767564481368
96.7795337425453
96.7520317349406
96.7540844192631
96.8517827221035
96.832975830719
96.7379491560911
96.7023719193851
96.7235630974802
96.6763794802841
96.7408612592749
96.7738570530832
96.7976822258577
96.7962116845926
96.7742163327713
96.7818435571846
96.7922094044357
96.8296348740162
96.8633443249225
96.7635702112523
96.7473609952606
96.7783423160677
96.7521476509348
96.6798666885277
96.7365038432608
96.7366149970072
96.7260557486314
96.7820974225961
96.7502442739257
96.6479749694341
96.6372917544852
96.6809008664844
96.6468982821955
96.5631213973
96.5697635912457
96.5416719895996
96.4755128298289
96.4100131623267
96.3698521136554
96.2743867339735
96.2418445611086
96.1642950435884
96.0961778235667
95.9808690671406
95.8420453203585
95.7432612770584
95.6431116897893
95.5016489412388
95.3933177302902
95.2063184860024
95.0021768295357
94.8079234470621
94.6607637394956
94.5148106750193
94.3151650462593
94.0876705683477
93.9458877834175
93.7947191346354
93.7469346230743
93.5711541880784
93.3298258244529
93.1811062043551
93.0691641380127
92.913410338371
92.8691399901312
92.6987757408986
92.5021221170319
92.3935065372599
92.3219633629269
92.2101086112645
92.089202506147
91.9119408043251
91.7534893093969
91.6586509994662
91.4683420935628
91.2150575809468
91.1876923748912
90.9542317588943
90.7074576741354
90.4610394817171
90.1770910273969
89.8625939418935
89.5942456414073
89.2400089178507
88.9311595565558
88.727378929947
88.5215029000043
88.2997457049472
88.0161987161562
87.6352645577106
87.2713675413673
87.0252493172444
86.7627345725689
86.3978035771878
86.3494817691266
86.1574623978023
85.924226091059
85.742501562262
85.3250845067682
84.9604986779336
84.6868977147669
84.2158938469772
83.8365486963628
83.7757101150572
83.5725324064261
83.2308108289134
82.7738713891973
82.3527190273136
82.108399302417
81.6983052239529
81.3180406152862
81.0674304043134
80.7435435375177
80.2831763146661
79.9197202883787
79.584650351278
79.2036062804219
78.682060536415
77.9687494137741
77.6920807124763
77.9017007003657
77.4506345773092
76.8958213913304
76.6068381972289
76.3107703989294
75.8463655107426
75.3381162935582
74.723889656772
74.2829206964533
74.2495880839086
74.031852963717
73.4883492025698
72.9592216949212
72.5486556147519
72.1158773181871
71.7076230985966
71.4290175783572
70.8897521634304
70.3103047160678
70.0928008139681
69.8460114133884
69.3020279860372
68.7741782497419
68.3211567964825
67.9355665508469
67.5118309740122
67.1108321054917
66.6885571444993
66.2949820463649
65.9302994465857
65.5862297069853
65.2563440519466
64.9578197302821
64.6451749908499
64.3809870853717
64.1092630286056
63.8530238733458
63.637800182811
63.4602710412807
63.0194965658314
62.7967411530159
63.2120526447168
63.2554792238493
62.9028537319101
62.9790860571708
63.2159145479174
63.2547219974492
63.2924845980451
62.8592310185027
62.3720780057195
63.8701027754886
65.0125844549093
65.3462007399599
65.6146882174556
65.841931690183
66.3554669592543
66.7219942060873
67.0303466160711
67.4560866450037
67.8893774880181
69.4328440880745
71.0386894443136
71.3301778227264
71.6194312655486
72.6080281849487
73.2445099544951
73.6105811493929
74.1932859894603
74.7869267599493
75.1104941880548
76.012335898531
76.8896527911496
77.310165896401
77.92581072239
78.2938217527111
78.548438484436
78.60908110613
78.6112869312094
79.7965708431503
80.8506495101351
81.0415303511025
81.0383244919554
81.0754406478727
81.4665854071945
82.0378988641544
82.1719291017158
82.0987700473515
82.3356837912615
82.6671592588594
82.8482240908325
82.8173011064228
82.7732137778874
82.7673267906736
82.636651073056
82.452728487923
82.2613354464374
82.2073986846451
82.2500554155497
81.9451872848932
81.4773081576212
81.1028302569299
80.9453780592243
80.6027388047424
80.0222882792692
79.6146690605265
79.755479815444
79.5381531232435
79.0828694624444
78.5935405494025
78.1857343234307
77.9327022081963
77.5974337356546
77.2110733434506
76.8338107144623
76.3196995054792
75.9173469341419
75.8324159622409
75.500368183858
74.9683488215827
74.5230600919053
74.1157994484681
73.6038743702597
73.1516051963544
72.6652040325073
72.0802170399156
71.8668319018071
71.6943823114106
71.2615252026015
70.7868427383953
70.3712080863655
70.0331639000391
69.6433569018066
69.3414267964797
69.1988384778318
68.9346940312815
68.6371681377938
68.5252708506899
68.3785840115233
68.4419741308156
68.516518808255
68.3323370157899
68.1460577178698
68.2783744653239
68.4591073362
68.5011733728929
68.568830446474
68.6640954871282
68.7761010193671
68.8888403305823
69.2335617600241
69.5969073522646
69.7798849034416
70.0487940909973
70.3164521330292
70.4804993362319
70.8230677005382
71.298476135884
71.6156368945397
71.8473114431823
72.1188079491599
72.4453336466376
72.7723408014618
73.0912814081516
73.40155884711
73.6992034959945
73.9922647999818
74.2068907365779
74.4412452307985
74.8156774495691
75.1329973265284
75.3634429220242
75.5687094501135
75.7771775346915
75.9761315422084
76.179727704573
76.3735369493833
76.5425114835526
76.6717716064766
76.8224983952246
77.0180372834084
77.1857696269112
77.3289768037625
77.4910073753252
77.6420345346274
77.7529789379919
77.8812763493972
78.0317958591934
78.1766530166625
78.2842526905783
78.3767682140872
78.4974391269944
78.6203389838465
78.7298896829837
78.827010172608
78.9057835459782
78.9829778955361
79.0469809899551
79.1093414648806
79.1876208636516
79.2366327379201
79.2459554024078
79.2692618955877
79.2900127170499
79.2877474200003
79.3213918738361
79.3619947679124
79.3832193932618
79.418816381694
79.4492965814226
79.4830594349304
79.5400687678584
79.5881835333131
79.6393977895387
79.6859099380795
79.7069650584848
79.7408884959672
79.7905553839727
79.8202129883744
79.8507135280834
79.8914337099254
79.9244004415089
79.9430802938068
79.96393936004
80.0024250934324
80.0350237805288
80.072241473849
80.1026402230626
80.1213372733774
80.1686371116327
80.2100835526475
80.2427834187652
80.310926677254
80.3835091976608
80.433526324398
80.4834571806447
80.5273946121455
80.5888539403716
80.6684538297371
80.7402755645198
80.7983168187648
80.8563456951049
80.927696303307
80.9866089461859
81.0371359160601
81.0891498508741
81.135539398021
81.18330837357
81.2272083617322
81.2371545685592
81.2226334577059
81.212967809182
81.2016248345328
81.1912801522814
81.1661322921929
81.1304625020978
81.0853912111594
81.0476250992836
81.0042528614413
80.9548434761264
80.895725548778
80.8353694400038
80.7717215813883
80.6865191081391
80.5885020412606
80.5067133109844
80.4424089366137
80.3578712802555
80.2253186583144
80.0849187354663
79.96613895802
79.8576702901111
79.7585282941682
79.6324019937207
79.4744944441759
79.3088710869787
79.142774522021
78.9828631062891
78.8040289535274
78.616169584368
78.409172051166
78.1909063526203
78.0057347077684
77.8282905570804
77.6314178032136
77.4388797552048
77.2476314514201
77.0849309378306
76.9290070004221
76.7439990334149
76.5737135241778
76.4087184000574
76.2081710939755
76.0144608650019
75.8352956291242
75.6383191856475
75.4305398927147
75.2077256670089
75.0212113589909
74.8535543880701
74.6536140158711
74.4489359739395
74.2479976361868
74.0582370252865
73.8909887051269
73.7412113607948
73.5926554445583
73.450753315319
73.3352845729154
73.2248649827205
73.1364076754703
73.0838698886005
73.0140189276545
72.9103031138084
72.8334798502803
72.7932141625795
72.7718621758404
72.7167688723148
72.6558203624572
72.579190095927
72.4711631557874
72.382307559805
72.3268325499378
72.285145528447
72.1920276105788
72.0897667775667
72.0295102151664
72.0265904718725
72.0416191369542
72.0882074541132
72.1530799654597
72.2470808308677
72.3592293458961
72.4750815799678
72.5985878267966
72.7479301762781
72.8802338646906
72.9858129500718
73.1062149538262
73.2624490853554
73.410803433905
73.5481191721148
73.7108180948703
73.8931219146307
74.0639857006388
74.2265994447112
74.4055657917832
74.6346861682104
74.8951867685195
75.1569353899914
75.4395352248701
75.7341734818535
76.0362044249706
76.3472582045028
76.6610998643044
76.9961866028765
77.350031670225
77.7166831604264
78.0383988410737
78.3371047171754
78.6655978290954
78.9900447539265
79.27249593651
79.5581754687152
79.8507952803858
80.1121401550214
80.3621665508055
80.5910707578832
80.7957719804263
80.9882907252087
81.157314193983
81.2977522419919
81.4308549342977
81.5644232303843
81.6881214751081
81.8234581605573
81.9480891599693
82.0557577604631
82.1572624377543
82.2749117276218
82.3879560347136
82.4964368044522
82.6098408680399
82.7256776958347
82.8716978275652
83.014998370045
83.088922883975
83.1872569992227
83.292592173269
83.3613596358514
83.4552500687731
83.5531950187185
83.5962613986608
83.657308531209
83.7308244594894
83.7853813836747
83.8477151809456
83.9016508547833
83.9292792844879
83.9328587895697
83.942702351263
83.9466590520482
83.9500741273212
83.9540547958072
83.9618699762768
83.9353399784768
83.8754960349155
83.8380035682645
83.8224283196707
83.7896875406294
83.758530851877
83.7391979482944
83.689402582796
83.6289164130918
83.5818011543886
83.5052877153883
83.4556254028424
83.4571386041874
83.4213808689898
83.3538246438673
83.2884303753453
83.1937011153139
83.1313395307803
83.1077805582248
83.0589935077874
82.9904127096176
82.9466906911921
82.8911683327933
82.7629269446333
82.6441935938898
82.5400615513586
82.4331437761867
82.3107522451779
82.142683173132
81.9781784141596
81.8641344088265
81.7217930459646
81.5491579201038
81.3848650108195
81.2637289563458
81.1205332204176
80.9004905036605
80.6696882566217
80.4771686980886
80.2788465885006
80.0609058701003
79.8756353653085
79.7066305553796
79.5245919920591
79.3751044086049
79.2146638046497
79.0502306603985
78.9044943432718
78.7166575089256
78.5436478325215
78.420138063282
78.2718086518579
78.1117055701082
77.9570362672465
77.7856395062768
77.63629649464
77.5004702386436
77.3398877400061
77.2209061909498
77.1050584054838
77.0340992119379
76.9931455964455
76.8932980249622
76.7637621091481
76.6839922857633
76.6247458542482
76.545875510852
76.4813449486514
76.4286405561812
76.3648720047745
76.3446492968198
76.2541330851887
76.1495083957204
76.077220196973
76.0246635019625
75.9126039658669
75.8012932745494
75.7438799528259
75.6819290935736
75.6017269511443
75.5321155717481
75.4247007943408
75.3271884503264
75.2515004565251
75.1612158371157
75.0348767026265
74.9200793077204
74.8305558139044
74.7235518270422
74.5676918468496
74.4530149399145
74.3629773735815
74.2132975213951
74.0608061418917
73.9371674941196
73.8050720644411
73.6715062109911
73.5268592899393
73.4012211045037
73.2739272059133
73.1406084645814
72.9775624678575
72.8554993355538
72.7226079139524
72.5945742431936
72.4180011940246
72.2752342024259
72.1342801902933
71.9963419633665
71.8513032796603
71.7302294976308
71.59878660529
71.4840190446657
71.3895303635396
71.2824015120235
71.1126504302275
71.0045372600917
70.8523124112155
70.6857574215855
70.5196113957382
70.4204584948666
70.321378400095
70.1279697780822
69.7863441672474
70.0182620968918
69.9483799836275
69.6029346339234
69.4620675070124
69.3600787556023
69.2341945016362
69.0832150395321
68.9347363775686
68.7984540246259
68.6621533351699
