1798
3999.43349933624
650.420452594757
1
128
4
96.9188443686937
96.8209388639756
96.9464969284508
96.861727983684
96.8863327291313
96.9191513829462
96.9524571121903
96.8140410354288
96.9383072437617
96.930666448073
96.9596324586532
96.8430602311175
96.8987566537296
96.9017724694173
96.9916022554131
96.8517883628175
96.8906971422602
96.910198899787
97.084734467766
96.9922303494631
96.9926068352324
96.9199125542587
96.94624428
96.8561817017364
96.9067005361237
96.8644103136506
96.9894166310517
96.8600981403603
96.8346192889117
96.7737873244735
96.8575525680398
96.7664945880831
96.8543040676413
96.8478147510941
96.8510376880426
96.7385758638291
96.9071218575949
96.8918715087714
96.9432711687015
96.8635050644562
96.9243970358435
96.8260848332532
96.812404538182
96.6682588268287
96.9146821947287
96.9635511652759
97.0101520686184
97.0109951774443
96.9837868995973
96.6982327465549
96.6847022842155
96.6545087942501
96.6539261829088
96.6849954594486
96.8279583376094
96.7108803407046
96.6683280702612
96.530630897816
96.7703313819432
96.5301245265701
96.5377972423334
96.7627368053615
96.74516426971
96.7309865740735
96.9436128704904
96.858517490295
96.9071343231232
96.7092290107176
96.4984650106563
96.6801009509895
96.8623232048305
96.6457804468396
96.8369535085163
96.8014454542414
96.9737553898338
96.7441006779717
96.4644357957996
96.2156257954582
96.9486408424652
97.2138196131682
97.3053832807271
96.9772447457974
96.8100979614426
96.7069724966218
96.6393734867755
96.428684885948
96.7899323208539
97.0078653031471
97.0706145446957
96.9374989392033
97.155334886823
96.9639432876169
97.0088876498461
96.9689190405256
96.7573715353971
96.7393914929929
96.9846187494842
96.7734642801725
97.1104567213118
97.1340387714385
97.274717704261
97.0562263243294
96.9191447582541
97.0624940476179
96.9521097424819
96.8125296314635
97.2846377533335
97.1693112412877
97.1964393975538
97.2029486023839
97.2928202049925
97.3169609842936
97.4729101998073
97.4057490650728
97.4196678190772
97.4082336980427
97.3789113791031
97.2216298257253
97.4146760085175
97.4527792229999
97.5528249275941
97.2623099728758
97.2113707118337
97.3658386537961
97.434396272147
97.3475990552537
97.4085783834022
97.1612691590857
97.2250884390543
97.175468281706
97.2751464428547
96.911972716873
96.8899031572114
96.9605077226413
97.2383505043787
96.7122254327207
96.7592163005288
97.0470426976897
97.2198963748217
97.0400660957456
96.8037651906991
96.8692745911683
97.0231964894126
97.3380611792295
97.4534852356219
97.1470029997913
97.1560660266091
97.1276080995817
97.4319104872222
97.437085228068
97.4799669090136
97.4705560392216
97.4356741061592
97.2956303700046
97.3779513593157
97.3799983758396
97.6409009887386
97.5536890092728
97.4357687619273
97.3913562121939
97.7431591310525
97.8211314565188
97.8904238621494
97.6248026972002
97.4712016934452
97.2114016321897
97.3800998291276
97.6554505759286
97.8455159086605
97.7210544391735
97.5506992479834
97.329347156378
97.115666910771
97.0908091242795
97.2632396193328
97.0214607022934
97.2823690980782
97.2364583659889
97.3176539598252
97.3632709804327
97.4680511447548
97.2977780481532
97.3072146212437
97.1978482689518
97.2591815433797
96.9078596465177
96.66654241149
96.4199646783653
96.5850111258384
96.697190519975
96.8147853793167
96.6616773322135
96.6859810487031
96.6779780005343
96.8427267796707
96.6764200217813
96.4867665477043
96.1167612950823
96.1886249874227
96.2428186025231
96.4683347555007
96.1726484527086
95.8032446444167
95.549979649884
95.6572318989507
95.5885938241374
95.609344114288
95.5108160737323
95.5424776727958
95.4893736875064
95.5425397950597
95.395935121029
95.4155849741519
95.2690148127329
95.227508053342
94.9789969210862
95.0109364535265
94.9085000978927
94.8601786474131
94.6186865320424
94.5615276785358
94.2677532629171
94.3226294471873
94.2631911470585
94.3572945124801
94.3385893989547
94.2976367160143
94.1831053405667
94.2060017120315
93.9669930648367
93.8062818256006
93.4236740368553
93.3191981711269
93.3432386782104
93.5094350805879
93.3480542036391
93.3448378755263
93.3258070915277
93.2999270032799
92.9142225839664
92.9165085431997
92.7836280364145
92.7025046414103
92.5151099220225
92.6201458756658
92.5440115221966
92.466025179704
92.2018165531939
92.1193071805832
91.9051780622008
92.0067587576234
91.933710750834
91.8708296170044
91.666483292389
91.5628265547843
91.4461617481871
91.4832747455249
91.2880781813776
91.1004901796156
90.796986068345
90.9990472131947
90.9894369694069
91.0545101090148
90.9486894009531
90.8383667448001
90.493026614403
90.4009897015182
90.4821374071174
90.5779830384434
90.1443333127237
90.1164539548401
90.1032665890682
90.0686273293043
89.6671429944843
89.6094667294143
89.953515796815
89.9915784404146
89.5950441736242
89.5083769001363
89.0984225836901
88.956832474348
88.9102423432189
89.1380966262949
89.1271987547961
89.0698103717983
88.8852157288481
88.8178908367731
88.4518834091548
88.2150153514788
88.2754993853282
88.4993658367174
88.0255978186881
87.6771871535749
87.7680995004718
88.0138196360237
87.8204832737403
87.712022315551
87.6426105312115
87.7956168027386
87.7105116051547
87.4665742998279
87.1953176404945
87.2770003571415
86.9735819854254
87.0185942197023
87.1764489973873
87.2563637490538
87.2054698296909
87.2813768038794
86.8573126765099
86.6284300534375
86.5065085281696
86.5708353098033
86.5531997426764
86.439818626482
86.1883897091579
86.267540460842
86.2248746659656
86.3077194300308
86.0125816653194
85.8748183491235
85.8129224414625
85.857120907961
85.7375863213316
85.6841457566787
85.4729906466425
85.4341735734044
85.2287410367973
85.1847862507905
85.1762343446564
85.2996181943483
85.2942168780993
85.3375586934649
85.0942214850925
85.0215311949361
84.876583624582
85.0253145088573
84.9585962987397
84.7893868226657
84.534437733065
84.5681718060088
84.686779765571
84.7075406949433
84.4269713020543
84.343040745522
84.20512267511
84.3127040608385
84.3538466358797
84.396722281464
84.3328557606873
84.4113021436612
84.2396109645557
84.2044427342576
84.1257075970276
84.3894258252692
84.36744010436
84.1671424593063
83.7369970766811
83.4855333809053
83.5175520082267
84.0518316882999
84.0127254412048
83.780018488143
83.7471996124667
83.8475346896767
83.7090651121247
83.759343562173
83.9016769264793
84.0750546834403
83.7689833662572
83.5566874138089
83.3349363175282
83.3672628242681
83.3008753810092
83.4025050096302
83.387002772405
83.4246220091578
83.3313821036927
83.2270648343738
83.1812881135826
83.3273734106382
83.1337431840386
83.0755154027939
83.0788172488515
83.1853176718323
83.124098238317
83.2557506442362
83.2344389585387
83.2244207580865
83.1249187892814
83.2033259270405
83.1630386243255
83.2051948782299
83.1519843964256
83.2111388244866
83.1262250703579
83.244131188652
83.2116588171931
83.2181180341398
83.1763634264432
83.2910736181427
83.2810350514022
83.4445043657996
83.4386243602232
83.4442192518972
83.3425540912753
83.4422436451238
83.4730565286596
83.5488448340394
83.4965598026198
83.5749508642533
83.5429013533918
83.6373961917523
83.5676200299507
83.6643910266194
83.6311341673009
83.5986929385523
83.5707227448369
83.7461087015917
83.7060675571391
83.6957295518442
83.6844603750822
83.8423682449988
83.8959828328977
83.9903374644894
83.9008307022232
83.9262983185824
83.8739699031319
84.0046184544334
84.097110527586
84.1627388162219
84.0384986469539
84.1422964920233
84.1957103144476
84.2561351449116
84.2333924344113
84.3879844033874
84.329088035861
84.4148746497241
84.4704898542047
84.5915191721743
84.5922616887964
84.6522915457318
84.6506745610116
84.8725044827114
84.9250146022592
85.0218098608176
84.9518521206592
84.9690280872429
84.9480787938001
85.0200962053356
85.0558956436694
85.2782270833424
85.4057413470481
85.4902432375717
85.320837853325
85.4287942974175
85.5950426082909
85.7519591974093
85.6442950030921
85.6763704888052
85.7572355221217
85.8665349533722
85.8407705560081
85.9841732301612
85.9830470365444
85.9994065278037
85.9792705679935
86.1629485643804
86.1987730242338
86.3235311261241
86.3661617687273
86.423427265941
86.3923623745136
86.5237693713982
86.5486120069898
86.6343477275843
86.6018148389388
86.6201915045349
86.6722004322777
86.7941554330906
86.7576499448845
86.8471222794209
86.8499085610405
86.9139823444564
86.9307510536633
86.9823421737764
86.9652065098966
87.0552560431124
87.0138850102928
87.1105940564887
87.1085494383495
87.20413189886
87.1979309094434
87.2892041117507
87.2903748964915
87.3186542181563
87.2754160696963
87.3552438414303
87.3999026000919
87.5192087619374
87.4883478905484
87.5582791463245
87.5871917549562
87.6861746759725
87.6326916303901
87.6958603215017
87.7532328349675
87.8337208704215
87.7914496403762
87.8938405795226
87.9786045133022
88.0945044849032
88.0931210227261
88.1827783607039
88.1728242388816
88.2562283935903
88.2777845316129
88.3749030403888
88.3683692187159
88.4491947312529
88.4943558320473
88.5606523578234
88.5797898189806
88.6565419194073
88.5717023672819
88.6383887272918
88.7044578865487
88.7534779145956
88.6960712595222
88.7769707676618
88.7766169554413
88.8444558272673
88.8279556934159
88.9024363017426
88.8886601369978
88.9418100603542
88.962558379124
88.9277264038994
88.8242946957346
88.8791168941024
88.8844460098872
88.9499315094242
88.9252487103299
88.9459344586996
88.8773893413169
88.8384864603983
88.7686770872564
88.732084300727
88.6140002271188
88.648593740272
88.6176975929819
88.6444173624884
88.5380293523233
88.4706270173098
88.4253012384198
88.4301540835931
88.3041348439087
88.2901719672902
88.2953944987752
88.316468712521
88.2572482866567
88.2741255082657
88.2469734786343
88.2644768161796
88.242103547846
88.2430163447891
88.0963889552984
88.0590687984762
88.0161172544933
87.9919542376572
87.9255149290379
87.9146506015219
87.7829053673977
87.8166054196135
87.8187980881235
87.7823538595549
87.7367377006337
87.8088897172045
87.851607989079
87.9616366136604
88.0084957010942
88.0701099979001
88.1144765128977
88.272928331181
88.3473385621644
88.3959903468373
88.3895968023284
88.4900810310416
88.5421342992697
88.6386492081733
88.7156871224776
88.8047980427416
88.768078548678
88.831894686466
88.8988344344082
88.9485647115913
88.9922859482529
89.0686012865615
89.0332583415601
89.1368179713238
89.1681075785146
89.1264962881005
89.1439220940904
89.2247747278427
89.2631859962665
89.3202672659526
89.2694877091686
89.3104677277035
89.3885490173161
89.5073486037032
89.6027425918357
89.6507852633902
89.5834139622414
89.5645967277823
89.5146922253157
89.5529760470418
89.6065193683776
89.6918392899937
89.7556743538449
89.9132181245811
89.9472622185313
90.0252243430116
90.1333283241345
90.2388165007951
90.2475027551085
90.3372406008121
90.3867181535693
90.4702126130284
90.5097405222836
90.5707959783269
90.5863877278809
90.6712446654133
90.731982615806
90.7456136731765
90.7357055392942
90.7959351134149
90.8218450972478
90.9185563750569
90.9821803336875
91.0452379318433
91.0579576221494
91.0766769690089
91.0534913343063
91.1049237427588
91.1807673342534
91.2270102142715
91.2193725413797
91.2773260807597
91.312381072279
91.4072690746707
91.398685766995
91.3976940493861
91.3909308637309
91.4427874485266
91.463207175419
91.4652650198123
91.4834518334308
91.595276168743
91.5976795257668
91.6078946917555
91.6116177398111
91.6424612764533
91.6693689572968
91.7372844163457
91.7084608972103
91.6870209630189
91.7062612545015
91.7805864438846
91.7848521586486
91.7977684597261
91.8204711722613
91.8360003018504
91.8132622513119
91.8630511824944
91.9106492087089
91.9089350642357
91.9005787936684
91.9932427791176
92.0140295180934
91.9860265629905
91.9864740488633
92.046060625793
92.0515855913036
92.0814271204652
92.1002040840316
92.1113342946529
92.094230106822
92.1420179128811
92.1578709181508
92.1961022755554
92.2401451529626
92.2686196913079
92.2488993885598
92.2718419844823
92.2773233369533
92.3268499326626
92.3493234087606
92.3425240594107
92.3229765055024
92.3777682137861
92.4212486102489
92.4479358018146
92.4302463991017
92.4665466173839
92.4935195910661
92.5347086477803
92.5182046384039
92.4954996531885
92.4758394852929
92.5403456474324
92.5916981832215
92.6504694617439
92.6317314087018
92.6157180873116
92.6042195071262
92.5806980130004
92.5922525065692
92.6456213836534
92.644111360685
92.6554665751583
92.613355513431
92.6317862759885
92.6603328844303
92.6849765577584
92.7077333325883
92.7272433077552
92.7326231636693
92.7342410186167
92.7301998987854
92.8979249563656
92.9460678807222
92.9181598530443
92.9348851457324
92.9735924484547
93.0116108852564
93.0755962009956
93.1103660728134
93.1538515403146
93.1823214674228
93.2234578012874
93.1620331363059
93.1630099608537
93.223270897153
93.2812884148674
93.20220445471
93.1635756648788
93.3110629590501
93.4838679749153
93.441198378284
93.4183487859312
93.4984833222208
93.5871233653421
93.5682050813684
93.5804636211963
93.5416779001667
93.5581542241375
93.5634586052764
93.5597181966998
93.5615372874576
93.70226689904
93.7805994040163
93.7659123761707
93.7711405514453
93.7870662603109
93.78235126715
93.8173867137141
93.8421888129694
93.8808724789402
93.8754067007546
93.8764404358174
93.9352187130494
93.9562860215921
93.8618509648702
93.8825639391541
93.9338639555595
93.9482683146091
93.9537033481202
94.0760997366852
94.1034632313853
94.1063925264991
94.143501097511
94.1489788121531
94.065504149053
94.1328534225726
94.1808887044853
94.1877622321801
94.1526900933297
94.1263234922646
94.139495122971
94.2472678651277
94.2388565651592
94.2573924182677
94.2292866371661
94.1493947617875
94.172566256176
94.2323232354272
94.2672639728443
94.3287610183111
94.26224849799
94.2566095247845
94.2940742079398
94.3774539257726
94.4040917752784
94.3098249775407
94.2875449555193
94.3886039819229
94.4613892278535
94.4584588838573
94.3790988510607
94.3836723192252
94.3711146392449
94.4162621823403
94.4851833449416
94.4967921584652
94.4439760560144
94.4442708998136
94.4800109586695
94.507027202814
94.4513327189214
94.4615413545027
94.406659833908
94.4053382968725
94.4838757723662
94.4779407155131
94.5684683956052
94.6626767791809
94.6316772977288
94.5299568878327
94.4528984718545
94.5629335191954
94.6228847225412
94.6615938725019
94.695188372668
94.6731558067658
94.6260668856703
94.681580061303
94.7013237271453
94.7054113945994
94.7265465896336
94.7457437836142
94.7679670172941
94.7740034160767
94.7303712809397
94.7132158158299
94.720784023144
94.690756969163
94.6882043089527
94.700570387934
94.6591279985402
94.6370290409109
94.6615610421584
94.6894211277686
94.6347122881867
94.6410258968334
94.7039113673936
94.7747149662935
94.7294542016193
94.6369876161199
94.628651017912
94.6360318603129
94.618813171351
94.6030132225359
94.5852626001324
94.6348509313971
94.6814403477104
94.6253666519931
94.4939175240776
94.5102425458498
94.5642097517783
94.5157463887863
94.4540285616543
94.5289837100397
94.712136345796
94.8141753987641
94.9146252873097
95.0355969795851
95.1098949663416
95.0461350495727
95.0290379277776
95.1762483843953
95.2857624173113
95.2893565956715
95.1220447256728
94.9072127763839
94.7207982373091
94.4653052832219
94.4658509215121
94.6840791745702
94.8603578460517
94.881146647524
94.8423008169773
94.8859469435944
94.9034566555785
94.8880534606821
94.8715864588625
94.847543139213
94.7486459171764
94.3939064446852
94.2305894615939
94.3779155785183
94.4585934292474
94.5120794680907
94.4403440092181
94.4948729367768
94.590367316554
94.5889595926508
94.5841215123573
94.5740338562553
94.5281268297277
94.554269548109
94.5775283338525
94.7179976986411
94.8309245770067
94.8521465881171
94.8421060038722
94.828029274894
94.8552123567655
94.9420066250832
95.0181783841641
95.0629455209086
95.0934780336173
95.3261174324679
95.4514277278464
95.4428692933529
95.4512546922739
95.5530779885104
95.7173616165524
95.8081434398648
95.918057300346
96.0690814076586
96.0953923358111
96.0252667655888
96.02670273244
96.1592921497549
96.2753891265834
96.2960693366211
96.2410664360684
96.3232747940688
96.3784289461893
96.4154791219848
96.4883795470153
96.524955479712
96.4878761112326
96.5177226210214
96.7480146585866
96.9331143019024
96.9065576079209
97.0154981376551
97.1553588329342
97.2060115000003
97.3187882855735
97.3779290452427
97.2523204427575
97.4820167315847
97.4647052378465
97.4716969112926
97.3766787926599
97.3450514587528
97.4586927910396
97.8005419200738
98.00228008964
98.2535372302493
98.3118518629216
98.1013712641822
97.9539107890937
98.1232111250193
98.3253687916379
98.3868744237506
98.4288284472909
98.9361881053193
98.6798958034576
98.3900159295306
98.6655189202671
99.0414625432784
99.3258850516802
99.4292045991061
99.2713858993846
99.3036181574555
99.4738574909975
99.5356073272666
99.651728951011
99.5738220263464
99.5451627351383
100.128033772268
100.832725075136
101.040178352557
101.124055611187
101.598955305448
101.545363668378
101.091841936951
100.403865004316
99.8057015463038
99.7743310003446
99.6831075833561
99.2359315402438
98.9827484634136
98.6720159499498
98.4243030175
98.3443581781995
98.2379871892526
98.1869306628418
97.9613282817463
97.7050820307954
97.4466728235449
97.1598924565052
97.037273328836
97.0666828167152
96.9779371182364
96.9423081448344
96.9593481531025
96.7723452650539
96.7733480461832
96.8769939279856
96.7683757910387
96.6095907661804
96.7086346291217
96.8567925274883
96.8759719420045
96.8485044250609
96.8810855534908
96.9411460049048
97.009904787112
96.8961192952096
97.0333960385748
97.0844976379208
97.0370602338533
97.0391828442156
97.0207898488656
96.8675399026561
96.8904331321379
96.9305885369613
96.9805844257481
97.3413754737342
97.6469010738921
97.6702706455735
97.5472696513735
97.4422860444507
97.6805729825802
97.7950305704483
97.8608669147823
97.9666183954783
97.8664289651974
97.7519123094615
98.0063337714671
98.1360677022514
98.343352288607
98.8015148820642
99.4358308259549
99.8288526239034
100.030962908538
99.9025518269928
99.9310861018902
99.9914636129916
99.9406750445156
100.383746953819
100.83474029362
100.881420877964
100.796879761629
100.826750311957
100.829847462728
100.332764058652
100.302470011993
100.515390381528
100.626939536611
100.553742209622
100.383436022302
100.112232308507
100.205088525352
100.292867128013
99.909315372575
99.5805463245825
99.7221222008094
99.4686298886155
99.1152593034755
98.9728559894843
99.0258828250347
99.1139453123719
99.1997580333878
99.2493831614208
99.489352452893
99.3155574659663
99.3708411881429
99.4815907075133
99.6771528064578
100.219690531393
100.260906934749
100.250503640893
100.606064263675
100.506713581195
100.012480226099
99.6326010795311
99.3873881140567
99.4455587019987
99.7785059130649
99.4785591153249
98.9665973113017
98.6704464584231
98.5998323475252
98.5978636061331
98.5028582811619
98.3888093005976
98.2589554519694
97.8830422555503
97.9509528275254
97.9906863946276
97.9593093872378
97.7605754453055
97.5626628810283
97.3636874073722
97.2517011746668
97.2679990137085
97.3975152837209
97.2808808103853
97.179034616335
97.033931484701
96.9866019992895
97.1521507353521
97.2369046222411
97.180888874969
97.0399864841634
96.9851782077025
97.0481200326228
97.0157513390293
96.9737839975418
96.9350492865551
96.8844773153202
96.7599546524988
96.8058499057414
96.8909262275932
96.8281261430911
96.5727786943391
96.6103626079798
96.6956305080735
96.7546791078736
96.7213026867798
96.7118635609713
96.6444191555129
96.6619285914625
96.6226095717624
96.6831017077555
96.6615590548733
96.456040371199
96.3810014104018
96.4206939532175
96.4845965414341
96.5665355367455
96.5552759933488
96.6254451616749
96.5813062164858
96.5749539205565
96.5818248028406
96.6475688408602
96.4924585493166
96.4681910689336
96.2516140716808
96.2948150280077
96.3187622602178
96.3501809192468
96.4393582900328
96.4588504703873
96.4810605174034
96.4576107737284
96.1889525083714
96.2113863331793
96.2257503494816
96.2591558534898
96.2669980303299
96.3115289734782
96.4232313074989
96.4038271057692
96.426692065017
96.4504972737517
96.3567013802455
96.2454742048798
96.223499242144
96.2589883596609
96.2521027133185
96.1502716812261
95.9910561761564
95.9706193202608
96.0630910433301
96.0755103165449
95.8151527123002
95.769975863533
95.7781809789463
95.9063845707688
95.9055113424683
95.8176246012602
95.6842848470353
95.6350172930721
95.6191781485184
95.5466693645092
95.4328226806839
95.0392331026837
95.0292967499178
94.8368558865831
94.9436910549875
94.9609103629361
94.8624131371641
94.6684934966262
94.6146925115907
94.4526147685743
94.4040191908673
94.255652944291
93.9752492308294
93.6880790801513
93.3022686566779
93.2339364205926
93.1814497606088
93.0549796895163
92.7418110727497
92.506109798524
92.5089250678739
91.9802181019658
91.7815840422807
91.62295188745
91.559345304243
91.5871776891659
91.4673108065361
91.4007302181036
91.2793358091849
91.0851163223236
90.5583105853039
90.2777991320219
90.0635640820746
90.247678449482
90.3375232275043
90.3615267605408
90.139335347156
89.8138631325163
89.7666138870748
89.2123354270275
88.8439220308785
88.5872820717325
88.0017005464543
88.2492936911563
87.8352672586597
87.6751576043569
87.1809959081936
86.7241356598555
85.880848940501
85.4609403501471
84.9009530960297
84.9013069893166
84.4952485535675
83.8164634763771
83.3817303058689
82.7808949055081
82.223771416085
81.7433627371353
81.4089585951836
81.0125431563514
80.4140094944718
79.9383844774468
79.5175897263966
79.2138468449977
78.3484976665816
77.2731549091354
77.0759351005619
77.1726264446497
76.8675567513009
76.349703891086
76.28156574094
76.3323134646248
76.1528968240091
75.7920676485007
75.1017345661531
74.8257237312132
75.030018228756
75.3148255369566
75.1852363978467
74.9632776259536
74.8420782492641
74.7209776484386
74.796972119541
74.9108084692815
74.74658327404
74.5385326515832
74.6494420272937
74.7847140713655
74.7912401124452
74.5243805371687
74.4749570873259
74.404747548389
74.3495010115667
74.1962625461583
74.1395779817782
74.020222830281
73.9152706441975
73.7857574705161
73.782310151579
73.7760808300272
73.8339346427203
73.8940811972617
74.0266622461152
74.1258265785921
74.3094504862803
74.3606868244951
74.1003962898875
74.1680151976081
74.679644596548
74.9652723994007
74.8238751437915
74.9044882866301
75.1585216609871
75.402705149153
75.3096371703171
74.7194786064657
74.1252371102535
74.5739167968476
75.2846325589356
75.6452994156542
75.57129055756
75.6872982408707
75.6642725972042
75.6375471050776
75.4268938576028
75.0907388583161
74.9348439697257
75.6712590008996
76.4702642369236
76.5233975887009
76.4746115214193
76.747542097195
77.187065775397
77.0966507861926
77.223278561125
77.2274665030196
77.3000749507699
77.5143522868177
77.8251584727935
78.1232722400064
78.2987294900654
78.6264031536464
78.6641435799482
78.3171337053592
78.0406177315743
78.8836996652014
80.0272831711079
80.4442529641437
80.3592337816596
80.3614547031382
80.8509804162518
81.5308835296651
81.8225207918037
81.823701843976
82.0289059001208
82.7400380336476
83.2978988563091
83.6498412957509
83.8593972357829
83.9569309384742
83.9466809154765
83.6464506803229
83.2945149698131
83.2175506306133
83.2904596558506
83.2037132637608
82.5741629041169
82.2183099421716
82.0454845684277
81.8189704309201
80.9530366903977
80.4812020390932
80.5621556099951
80.9692803551461
80.8277356118083
80.5991481115618
80.4627617274811
80.501030117049
80.5811434355486
80.5998045932476
80.4744696872407
80.1188595345789
79.8533687516395
79.8833988548547
79.9594922336948
79.6090919691751
79.3588954354779
79.1185894819977
78.797005891745
78.3998558487411
77.9151576834587
77.5038525732945
77.2673498652641
77.4572548948798
77.4423934899903
77.2770132536856
77.2025549149847
77.1531910203595
77.0374095769066
76.9684288927829
77.0520221080797
77.0532848885851
76.9686941156101
76.8721681752527
76.9396180649674
77.0353891313657
77.2910925876193
77.2778963527765
77.109554080127
77.1248639121977
77.3179910350487
77.3714136935443
77.2910791840964
77.293860717566
77.2046778319659
77.1584837012772
77.2280367421427
77.4535788738241
77.5916858782402
77.7156427184648
77.8414963616892
77.8830503944075
77.9720987918747
78.3232406079039
78.6438696380483
78.805995751211
78.9307282766461
79.0785084284676
79.1839526471488
79.2937147997479
79.4254758851496
79.5608466523729
79.6275000890308
79.6276086354821
79.6084477652468
79.7297054772681
79.9443163854041
80.1101660075631
80.2092297697606
80.2770811767774
80.3702596482461
80.4492093952765
80.5106958406685
80.5770436412918
80.6174253279628
80.6603320293195
80.7424119284585
80.8500654996217
80.9170773545414
80.9746519981812
81.0779440700751
81.1658674159916
81.213117804173
81.2905520898997
81.3809817289692
81.4503768954889
81.4716466036262
81.5034385988424
81.541237750357
81.578558763687
81.581699175868
81.5692150562694
81.5669356588868
81.5837266094398
81.5550668856092
81.4949070081806
81.4318344229461
81.3379574433698
81.2166832429754
81.1036918770462
80.9694459766936
80.8131771149686
80.6559899957005
80.5025038062197
80.3486763295523
80.1985923476344
80.0454926656618
79.9302074302907
79.8456554273594
79.74714114569
79.6199625368476
79.4978039888968
79.3878883085159
79.2914584679371
79.1873916890507
79.1034095292786
79.0354658074843
78.9966105800645
78.9735752847021
78.9656639323244
78.9567410235266
78.9937660660958
79.0548528625124
79.1251986131598
79.2200092407164
79.3391874719917
79.4603437819126
79.6064431217196
79.7395408832869
79.884157871438
80.0455780241882
80.1996484919515
80.3510355010626
80.5106844496604
80.6667979258942
80.8011698135188
80.9037777418779
81.0185106404068
81.1357692260289
81.2856326671867
81.4407411797709
81.5945055519172
81.7275470793674
81.8259729160891
81.900022080193
81.9367133838914
81.9157392171603
81.869762340735
81.7816818028617
81.6399203723791
81.4546181020716
81.2930956274463
81.1440452702195
80.9961913089844
80.8552849945479
80.7409654573308
80.6274827929927
80.5165785771242
80.3728637675895
80.1956888473471
80.0135831863352
79.8516515984343
79.6759372422545
79.5012166920011
79.3501740168445
79.225094834933
79.1000217534937
78.9657274127096
78.7869507059414
78.6181330614621
78.4373981709775
78.1958291685991
77.9014807897402
77.5786378137199
77.204371808652
76.803687914579
76.4014359388396
76.0005980630053
75.649768180631
75.3935725909913
75.1879788301122
75.0232584699324
74.8692591552007
74.7565151380674
74.6569215150123
74.5543488138409
74.4288806840991
74.3079686414264
74.1932840523726
74.0450072986405
73.8388167526947
73.6101388374737
73.373629945864
73.1329358125549
72.8422950664999
72.5276336822659
72.1829170666944
71.8252248364872
71.4427556253162
71.0283592586709
70.632406294156
70.277451359033
69.907771810892
69.5528051122931
69.2558560562494
69.009079952791
68.7543173486434
68.5335643613381
68.3543009717894
68.2151047411813
68.0805405381131
67.9570524207185
67.8512350134453
67.7440286687135
67.6151626961925
67.4972625781387
67.3585259292845
67.1984778163048
67.0263715400801
66.8654014587463
66.7125071584564
66.5621552567575
66.4001812433722
66.2688495879315
66.1783235060905
66.1055403047345
66.0157459362721
65.9762088875818
65.9969021587443
66.0477019637952
66.0985499864107
66.1842986556037
66.2897042602595
66.4241174568098
66.5813411497134
66.752746481163
66.9301532354673
67.1495228280998
67.4147250633858
67.7231434064657
68.0317356017531
68.3507677738377
68.6816903536195
69.0389611899654
69.408589691734
69.7567028029502
70.0785217438427
70.4223327998266
70.7418888318415
71.0685568530454
71.4093827649248
71.7550100921618
72.0867398992616
72.423524009241
72.7639604235731
73.0947790037032
73.3874651856381
73.6575169978231
73.88866530784
74.1461051894556
74.4156581017448
74.6738363768463
74.9565256652636
75.2744147188517
75.5793608772559
75.9007116068315
76.2211341022942
76.5407115623061
76.8113712606464
77.0280654376524
77.2533586674598
77.5032376024478
77.7030591682305
77.9122248161647
78.1432459072298
78.3875297104671
78.6179354644829
78.8241131945705
79.0300952952187
79.279356405182
79.5206310529135
79.745533151473
79.9253634003788
80.0817736341783
80.2528686003138
80.4552993362558
80.6060137356245
80.7060849639149
80.8060112093505
80.94185627751
81.0688643739067
81.1629535010798
81.2527211715703
81.4025607389672
81.5293053532197
81.6047088501845
81.6756812403683
81.7603626509511
81.8073821132993
81.8854540125472
81.9718222984595
81.9887915301026
81.9830034391246
82.0552645862712
82.1181851781861
82.1559947256607
82.1842206029939
82.1969827269328
82.1998853272367
82.2322949601462
82.246691954347
82.2450295002955
82.2310295938182
82.2391717690064
82.2134994658036
82.187944863793
82.1965400025793
82.2016005380797
82.1487700271618
82.1084624835586
82.0848476283838
82.0668914432983
82.0219923796611
81.9824057977588
81.9637362278689
81.9541447907787
81.8681139623054
81.7728878876589
81.6784006440823
81.5792116525076
81.4449552344642
81.3454140993655
81.2561518964903
81.1736034873599
81.1198409095896
81.0886327815255
81.0121141471385
80.9655622877327
80.8773149558694
80.7563963288541
80.6522837984043
80.5815185918708
80.5211782264727
80.4684101174545
80.3845216274568
80.3196878591961
80.2105639398832
80.1236129078058
80.056479905607
80.010897255911
79.9477374864954
79.8842936662845
79.8190260800137
79.7726407601152
79.708057740013
79.6646721098428
79.5855417804705
79.5188212632968
79.4700036779736
79.4103043476907
79.333526023087
79.2776050877741
79.1769253537875
79.0617654460261
78.9959233986787
78.9910999184151
78.9175966545678
78.82738964823
78.7612599644502
78.7143872677711
78.6396293831393
78.5994422030805
78.5229008202671
78.4348723505047
78.3268404425561
78.2277295346002
78.1079474640134
78.0391403261772
77.9823270445799
77.8802902268083
77.746918040907
77.6864532343952
77.5899858950424
77.5149623535458
77.4152420100366
77.2898337057413
77.1978780456837
77.1531567877717
77.0493019631736
76.9641334358095
76.8503805836898
76.7357916343719
76.6542339350933
76.5906784400545
76.4556185758865
76.3003432229189
76.1155835855915
76.0314426050932
75.9335938797038
75.7878213478332
75.6411024697866
75.5036981420424
75.3724454070766
75.2437802745508
75.0353321694516
74.9085712206872
74.7735383044909
74.5836891168387
74.3647021373448
74.2632542782721
74.145981516349
74.0302794125619
73.9086372795213
73.8559727668891
73.7990900594695
73.7390890495745
73.5919596149642
73.4690466252501
73.3240344038431
73.2793867085442
73.1449605703673
73.0509927198764
72.8342549570716
72.6655757161435
72.421477752471
72.561845108007
72.7014245070199
72.3138566785537
72.1993695525042
72.0120875742879
71.8938779863632
71.8003068255948
71.6849778819361
71.5559687510797
71.480738032748
