1798
3999.43349933624
650.420452594757
1
128
4
96.6035744617891
96.6576383342665
96.4865224707103
96.4589509907427
96.5453340767078
96.6248187691581
96.6257691088099
96.5243357752024
96.522145035886
96.6283943185889
96.7366159349614
96.6176804742137
96.499335074109
96.5986179765693
96.6657773847814
96.7013349201719
96.6852608391952
96.5062271828638
96.4455563940261
96.5677980198925
96.511615577785
96.5460052114311
96.6327944980413
96.6308748072818
96.5565403921319
96.5417220749712
96.5927279576588
96.5972968136524
96.5508253055666
96.513545749846
96.4695753320166
96.4982870410641
96.6391349247192
96.6973143331758
96.5986506955658
96.4345060433339
96.4665943120827
96.6312488742691
96.6516603357874
96.5969643279875
96.5355956219332
96.4728359444943
96.4688249356908
96.6689972098378
96.7195035261357
96.6705050960462
96.641437665864
96.777202192414
96.7544160659389
96.4681678139083
96.3845370420512
96.5167471938432
96.5829568682112
96.6274603052327
96.683741280962
96.7337702634722
96.7064069270112
96.5772614654493
96.5154350617858
96.5414913248891
96.5362260030208
96.6320498987481
96.6267537529061
96.5902935074384
96.6184129296339
96.7202814686118
96.6464084023583
96.602632300794
96.6262557342233
96.5804388854966
96.456112676266
96.5251652209532
96.5738120858835
96.6444689382328
96.7724809604028
96.7468608347684
96.6015123812886
96.5688907119688
96.5645444684505
96.5718930240459
96.5926198502353
96.6719692037865
96.6723496763293
96.6397445332203
96.5560285553644
96.4954914577967
96.5715980221176
96.67094845188
96.6503542911939
96.6649048259994
96.685216731984
96.6332230577302
96.6535563391524
96.7044931130585
96.6575993964423
96.6152083931143
96.6138712485336
96.6277335079161
96.7544391771009
96.7782147349968
96.7313601145905
96.7038315845612
96.6289756265233
96.5447618730578
96.5794786878446
96.669731198266
96.694032360531
96.7541332005256
96.797105869389
96.7344623282421
96.6601067750312
96.6786934238364
96.6391119931328
96.6315515080778
96.6434981345901
96.6579853651025
96.7267204150246
96.6299112879328
96.5627410326126
96.6524493760632
96.6625323253972
96.7433402795014
96.8208347519449
96.6865769161211
96.528001754214
96.5773183467829
96.6246632930306
96.6610532213079
96.6121980256512
96.6473673128675
96.7533109453004
96.768681605762
96.6791119560038
96.6813464519822
96.6708561646085
96.7057635351738
96.8017225807159
96.9248569215649
96.9160984092421
96.7808719557989
96.7408686743848
96.6740652340825
96.43704976323
96.5219739267173
96.6906195886283
96.7225983530724
96.6997758980651
96.7470205334829
96.6376316474402
96.6688165857402
96.8858636963112
96.9051877982127
96.7730094014191
96.6137431502164
96.5946824123087
96.6992387676694
96.785576255202
96.756217207196
96.7104178890765
96.7863022730925
96.7495311119358
96.7199035025327
96.6649792159661
96.6703408027182
96.7771303140476
96.7549754480163
96.706799877982
96.7242024762746
96.6954040062379
96.7161868767997
96.7186866434343
96.6036197560418
96.4838539423039
96.6613939580945
96.7570455855417
96.5980318307583
96.5997513647892
96.5949280709601
96.3992056883235
96.4599276280371
96.5636357361023
96.5534372489482
96.5248933878317
96.4950489837779
96.5138861182714
96.5344785646329
96.3665660480526
96.3003250187992
96.3285763269559
96.2663292706797
96.2770821917868
96.3225060698513
96.2610785255625
96.2001778325845
96.2193437322401
96.2324882971036
96.1673088881186
96.1636869065136
96.1098877993286
95.9652698609111
95.8903702958738
95.9059534369699
95.896674308162
95.6529740722703
95.4460170936433
95.5770470606183
95.6933688342285
95.5898773864615
95.432842653589
95.5068872281634
95.4476702077206
95.3036552343389
95.2794765657943
95.2604727233308
95.2701694580325
95.2064845636049
95.0519158862114
94.9446753822941
94.9710586672917
94.9991033541112
94.9954216605319
94.9297530747822
94.8434839707572
94.8037876323443
94.7223833704
94.6673407727557
94.6643166380018
94.6205684922319
94.496957478824
94.5487471382864
94.5574262469519
94.4119761142238
94.3869400922358
94.330110009288
94.2645814418626
94.2055892175517
94.1579885836361
94.2227805165918
94.1723690094752
94.0615509315522
93.9654800750651
93.8169562482001
93.6838052335467
93.6683852130884
93.7212829619373
93.7595238886187
93.6711419114451
93.5931376704146
93.5807027006389
93.5738398822129
93.4980843201223
93.3816029424201
93.2714010421159
93.2228307860311
93.1550005245456
93.2982071846112
93.28277480072
93.0971829575584
93.0410762407028
92.9602148590237
92.9066927175779
92.862096848947
92.8127166414277
92.8236849246912
92.6788520375641
92.5518532374187
92.5424536504768
92.4986891070594
92.4488992769491
92.4631037331874
92.4523804817923
92.308632142532
92.1713067236912
92.0845197963546
91.9794241190522
91.9434531045052
91.856530015693
91.7261046326909
91.6828216757358
91.7405781069775
91.5488332834439
91.4531149205365
91.5089184724972
91.3825609623138
91.1532100707623
91.0343496380688
90.9792671974651
90.9272971238001
90.9564355394904
90.9582257036167
90.707430794729
90.4690838749318
90.4100065210171
90.447074298745
90.4287141498929
90.2662701785046
90.0980918639433
89.8660790640496
89.775192536109
89.7710912801834
89.7223107761916
89.615707530293
89.4324212167751
89.4231778487274
89.3643403299275
89.2224004799524
89.1265721119677
88.9345078002494
88.7410505083022
88.6441787704011
88.5821959433505
88.4839280222878
88.3412504562811
88.2514284807207
88.0634824513014
87.7763931899896
87.6716507209075
87.6828656674612
87.5975221652516
87.5098782233844
87.3566171516768
87.2354066642213
87.2930047986472
87.3458700433085
87.2699142532133
87.109484922359
86.9209273638119
86.9585604791126
86.9715237085766
86.9280470955431
86.835452039491
86.8188668655407
86.9090613365552
86.9550882255063
86.9249069210101
86.9213135256825
86.9604889082574
87.0395199870091
87.089708610986
87.2472343901349
87.3500314629277
87.2967283065718
87.24027736564
87.2993727632966
87.3187079681788
87.3638141489574
87.5291597690478
87.7161020143939
87.8025178277645
87.7734448852782
87.757069584935
87.8182070912627
87.8452603891708
87.9204321429164
88.0581044024619
88.1706764829805
88.1096851887471
88.1243371971226
88.241316249841
88.2992228693008
88.3148148043012
88.391296193084
88.4762529735261
88.5207022061866
88.5657717060546
88.6531913678702
88.6000829613388
88.6020438641184
88.7451657078757
88.7979955999365
88.7342762401339
88.7122560179168
88.8107722665459
88.9509367801977
88.990727662976
89.0143307021519
89.0063767732132
89.0825032029535
89.1829666817018
89.1950421857307
89.2399611357532
89.3872352906225
89.4501616335546
89.3750530353173
89.3923009092469
89.4211280939116
89.4083155919437
89.4308968756377
89.430181147552
89.5338267712763
89.6795615473161
89.735939784097
89.7240941326352
89.7481884321904
89.7806899184612
89.7308839314267
89.7715004275061
89.8857572640442
89.8724370915749
89.8882173320053
89.8989806842913
89.7328183217294
89.63684440479
89.703102930073
89.7629379925834
89.7504729680628
89.6729658224941
89.7409838102425
89.7868074228188
89.8324760996949
89.9453012963802
90.0120829714668
90.0207465803015
90.099638035904
90.1544679497572
90.2786598220587
90.3970779056774
90.4274893298235
90.4826493149424
90.6167694649945
90.6888605523495
90.7034397355668
90.7377952564076
90.8334563482294
90.855992809048
90.8355263023716
90.9129751803373
91.0590966997469
91.0812202483816
91.1014337231659
91.2362244222929
91.3626920530262
91.3825589811856
91.4473861846935
91.4938946619931
91.4862030631858
91.5280969229549
91.5716379353546
91.6896531015765
91.8212344336403
91.7824681546569
91.7724993731538
91.859654281629
91.9392023996673
91.9312087018143
91.9773742118723
92.0931037934066
92.0991656757979
92.1263698393467
92.2130478996294
92.2682767067262
92.3092461282493
92.2826094078209
92.3904306087761
92.4929109340105
92.5396782350134
92.5450725008802
92.5673841897112
92.5943056097306
92.6381537790139
92.6904017877772
92.7642717535126
92.838847629976
92.871387992507
92.9141992934873
92.9840649276089
92.9919092285661
92.9980905782813
92.9703310143249
93.0008123197672
93.1399222845729
93.2380357793875
93.2761677846043
93.3398195563997
93.2986407007612
93.3082994434375
93.336844910478
93.3478245490956
93.3957006136513
93.4192536699003
93.4705321528468
93.5704883818394
93.5451990533798
93.570055012998
93.5900321105936
93.5717731223506
93.6257277939994
93.64766980417
93.7167922155765
93.8361565932716
93.8630919950629
93.9373891955966
93.9366959181333
93.9041826259968
93.9464411326097
93.9085192179802
93.9497220668492
94.0611348198535
94.1010300544897
94.1546459056538
94.1491490665976
94.1022268886516
94.1368962077974
94.2527008911448
94.2796906377163
94.3038263875618
94.2831013123443
94.24543716768
94.2967653151023
94.3592341298694
94.3892764121348
94.3824147169762
94.3982349376487
94.3825892908461
94.3886465930753
94.4400075489014
94.526770641087
94.6097463796466
94.5772020832809
94.5261947452797
94.5268065234356
94.6536878280717
94.7297546079019
94.6971392930001
94.6850413078847
94.705718954599
94.7221107883889
94.7753543031819
94.809066816726
94.7566590976026
94.7312136358194
94.8388999479257
94.8889533316354
94.8618919302674
94.8460626215652
94.8911595878454
94.9247333429617
94.9261327333456
94.9068202304638
94.903253030157
94.9172981371527
94.9630630831787
95.0466455962043
95.0762917203208
95.0910177591766
95.1214260038803
95.1354134017782
95.0867731863161
95.0185387754964
95.092063296379
95.203443466097
95.19488336988
95.1337627861027
95.1416011886804
95.1488801675819
95.1894684499483
95.2376728495721
95.2540403210621
95.1765242211377
95.2109774943095
95.2604407113769
95.2291615576829
95.2165697183054
95.2643244177562
95.3348182861478
95.3525894915326
95.3581774421189
95.3360168546257
95.2960781227073
95.3325435237585
95.4317775193084
95.4418530996505
95.3923661911776
95.3789111324063
95.3383771920732
95.3384114272442
95.4689337970245
95.5338592865634
95.5063280172985
95.4638200470852
95.477227638775
95.5634535787662
95.608155988082
95.5693767064661
95.5748727032476
95.6268028738212
95.6260605576171
95.6127997990942
95.6041376671705
95.6386827673824
95.6744737147654
95.6399137399895
95.6066101131867
95.6124786363949
95.651191159967
95.6656947325605
95.6245358991355
95.5860714141167
95.6054208718872
95.6675510512122
95.7177949823387
95.7274823777262
95.7396843678518
95.7179057031046
95.7197396710698
95.7422918869899
95.7268566671267
95.7413747755723
95.7549017114344
95.7469513120781
95.7581122386568
95.7947034313617
95.8266754200036
95.8243893566449
95.8185543000924
95.7852708336649
95.7294219554632
95.7631118231432
95.8567922181234
95.883034640645
95.833839570565
95.7852398971223
95.8151338437741
95.9302267916383
95.9719631913827
95.9363714867073
95.9075993976259
95.8967424677953
95.9012699500144
95.9026030744473
95.8681826205722
95.8595066649639
95.912229286383
95.9677226731365
95.9769705612615
95.9281511005079
95.889087485706
95.8517568357826
95.8649797160386
95.8977759382961
95.8999277865713
95.8932598393526
95.8437694140513
95.7820633567528
95.7729366389
95.7928436337675
95.7574152487612
95.6884011114746
95.660247563285
95.6903967764052
95.683145903882
95.6649135873934
95.6470094153737
95.6163459142425
95.5206884188574
95.4413821819703
95.5159693401951
95.6050917444775
95.6031775767179
95.6074287992978
95.6331099482149
95.6216867544112
95.6062125580534
95.628082166479
95.6791397716797
95.7220359494652
95.6815815215535
95.6181591614598
95.6085691003161
95.6104662400087
95.5946592009121
95.6785963535948
95.6757615318963
95.5891966458709
95.5854780081057
95.6054281180781
95.5449153746658
95.4607272523911
95.4242088531445
95.4045383483872
95.3468716632288
95.2868178052639
95.3230288719061
95.4981474273983
95.6634388156123
95.7183692933693
95.7624208469415
95.8203449076983
95.8516716969218
95.8559468017819
95.8798917902447
95.9614829511085
96.0243460203206
96.0025924107597
95.9550847400338
95.9843175473546
96.0702817985381
96.1005972316466
96.1199459165495
96.1648844101548
96.1854580852244
96.1817627756989
96.1729090889206
96.2001613680069
96.2147600002103
96.1803267946048
96.130362840814
96.1848806582495
96.2462625309813
96.2414893795054
96.2606703605615
96.2964268599378
96.310247964493
96.3359242886753
96.345591318127
96.3083998612397
96.2846810763903
96.3392624860691
96.2973628061408
96.1824874484676
96.1444175578601
96.1793788232878
96.2356743740892
96.2559014392778
96.2681694313152
96.3060172004869
96.3111371936827
96.2951990588543
96.3073675881989
96.2676992518238
96.2630244582924
96.3555011051645
96.393341206264
96.4237241977963
96.4262132143458
96.4397548722181
96.4127461029974
96.3780065520062
96.4537159365632
96.5028690330365
96.4640846279243
96.4837252483509
96.5044913221335
96.5228842871157
96.5883728966098
96.5964796091288
96.5587844881389
96.5509578201076
96.573976255691
96.6033984504789
96.6902955304124
96.6631418047103
96.5451971664559
96.5764036450328
96.6736009296972
96.7755602182739
96.7769990929602
96.7278318806669
96.780973677736
96.8318043315236
96.8549536827204
96.8247300248084
96.7701459560646
96.8334536875797
96.9196702387995
96.8979974442557
96.8489664632602
96.854710522845
96.9095979734415
96.9658066195658
96.9093517201247
96.8374315460726
96.890848138012
96.8563385921985
96.8701031314704
96.9769695066485
96.9316462367328
96.9038641719928
96.9384060115995
96.8938473894411
96.8160090106329
96.8784422377444
97.0152836602014
96.9977883211429
96.9365023103411
96.8852958816212
96.9235136279275
96.9497793213271
97.0111289798571
97.1434820097726
97.1474292127706
97.016040474728
96.9603762992029
97.0180769316427
96.9916242325758
96.9600435736706
97.0574403140484
97.0735497858873
97.0409138140337
97.0613017347194
97.0824973994512
96.9876487022828
96.8918191724215
96.9175223561323
96.9451922171036
96.9275030901859
96.9095839047448
96.9215916882883
96.8277146753231
96.6878194681109
96.5956746932889
96.6095246204102
96.5995299204325
96.5900445650089
96.6424460136407
96.5990403904058
96.5883924223189
96.6155919272296
96.5693999665227
96.5964290874122
96.6497274181733
96.6909432587073
96.7148474458894
96.6412877345659
96.5980968505031
96.5679766043541
96.5789888006742
96.5983471215507
96.634835871964
96.5988321615936
96.5725355262624
96.611180503297
96.5605543241124
96.5353854004989
96.5485829276581
96.588192308055
96.5615536295645
96.5003788619019
96.507299232014
96.3671422644112
96.2941422168789
96.2742090893164
96.2482373724677
96.1171330789744
96.0249108376954
96.0618877532658
95.9996256225644
95.9006312878896
95.9406013417131
96.0342159295617
95.9744781080234
95.9305111588328
95.9475703408122
95.9156372561165
95.8396712791195
95.6667809393472
95.443734050457
95.1587563211304
94.8843889981095
94.5079888475622
94.1484783928947
93.962281369238
93.9794247458875
94.2013062004838
94.4486444754183
94.6533738712937
94.961144591049
95.2795573884552
95.5796618461238
95.8147670172464
95.9479379275685
96.1057132527037
96.2493157999415
96.3699863036073
96.5309990780274
96.5384258218698
96.629625042262
96.7749313111098
96.7773830496233
96.6416393797061
96.6798801907959
96.7992472618454
96.8039598078187
96.7474539204505
96.7245011287811
96.7564953319668
96.6852984225496
96.6223026333604
96.5829902919353
96.5798858085462
96.6056500109278
96.6038709179146
96.6339702424953
96.7247223737624
96.7697315950043
96.7258155528596
96.6463663720658
96.5838757902551
96.5033179370344
96.4362057356431
96.3887545533124
96.4332234809448
96.5876639175473
96.6416168970661
96.6197623224661
96.5803952423989
96.5377846354565
96.5231253727305
96.5893703433438
96.6744942311666
96.6418875463333
96.5923779011179
96.6277847408047
96.6834919099343
96.7148907495695
96.7163900611779
96.7386478828368
96.7137279881576
96.6521381067146
96.6728837898068
96.7831344055925
96.8662070013094
96.8870909696886
96.9303613154699
96.9597541853584
96.9169390131869
96.9233455707341
96.9637023220797
97.0303483390115
97.1322792941357
97.1956016672842
97.364051259932
97.4249536189156
97.3526794229002
97.3471768975163
97.4973844872186
97.5084490893524
97.4040533926243
97.4318274651491
97.5114921740414
97.5674844481774
97.5025331350529
97.5780757003715
97.8595556391521
97.9465706654929
97.7773418021301
97.8560288006296
98.0933433446821
98.0578746667888
97.8586951521164
97.8706138468614
98.0746079379139
98.1965863327867
98.0760980264684
98.1033268636977
98.1904933314945
98.2335646650522
98.3002414216306
98.3915995219933
98.2572595086422
98.2533621677049
98.2903204883731
98.4434551071398
98.6425845017472
98.6986168564546
98.4836841410809
98.3195557242104
98.4352941776043
98.5681894378272
98.6667538852451
98.8012547446062
98.8970422980279
98.9469095156056
98.7776445859915
98.662139637074
98.9176870734551
99.2564054137744
99.1847197713657
99.3032328202596
99.4709581514842
99.307775865628
99.3169347670473
99.4474378241674
99.2323226999491
99.294713062874
99.4107645291905
99.6604610610072
99.9123993999281
99.8801529901852
99.8926158964668
99.8084116955593
99.3282275269365
98.9777274620755
99.0537856504054
99.1129722072892
99.0093818807642
98.9416368733953
98.913496554872
98.5008415266022
98.2607829025771
98.3097722239855
98.4260891610882
98.4046860525827
98.2038861089017
98.0660715289693
97.9001714291707
97.8089414994643
97.8507176342638
97.8508798087252
97.7014790982611
97.7742667879844
97.7500068170506
97.6644540281251
97.5801361304456
97.6153843553192
97.7916162508612
97.815718400752
97.8073673833325
97.8790749245203
97.7538463768224
97.6632767161161
97.8234884562374
97.9823138051165
97.9247268020701
97.7856611926164
97.6568020783357
97.6164957296868
97.6886774802654
97.6399808708343
97.6433607993239
97.6680811704803
97.5879891805946
97.6116825963545
97.6240201335312
97.8020306076273
97.9585935562906
97.7497496061343
97.7560706106444
98.0032514521636
98.0828860322879
98.2203998906281
98.2428302175647
98.097410664839
98.1303733204956
98.268515260758
98.2775378294972
98.5221132428552
98.8149980168676
99.0199612689336
99.2577497071628
98.8868018534519
98.6400661951153
99.0050856575153
99.0096262589699
99.036559418187
99.290278076193
99.5461729593196
99.5479023270482
99.5483850926921
99.7003331725009
99.571411872283
99.3273409248603
99.6116739050724
99.6471411353497
99.3311881104164
99.3624450828857
99.4273370052259
99.5564684525879
99.8246112436132
99.4481675370505
99.1237929052635
99.1248251176827
99.1071467869916
99.1508762779592
98.9870334673912
98.7949068589284
98.9384902674964
99.0394470028279
99.0087799134234
98.883585965796
98.7795008844323
98.7490964904737
98.9497127219373
99.2735079462831
99.5973260217818
99.738263208929
99.5793861128679
99.3640924939526
99.4770652719955
99.6624729140963
99.5620059384331
99.1465950640503
99.2082207429126
99.2903759115889
99.2194609871903
99.0420022780295
98.8431555262885
98.9357159362629
98.9000206254095
98.5916843010437
98.7032848939521
99.0368333904823
99.1689537075329
98.8500452129049
98.6368914485347
98.5440476021841
98.4710468367625
98.2790585272068
98.2913519250191
98.5462030680993
98.5177157446413
98.333413541982
98.3615423820168
98.4778789836914
98.3832859292335
98.2297902620787
98.1832291862671
98.2795319536357
98.3720860876058
98.3317608659701
98.1823973446031
98.0797175615406
98.1705440637854
98.2090286084879
98.1267227317619
98.0649686621295
98.0985534084869
98.0574020533632
98.0366958870163
98.0541175669143
97.9891231298227
97.9463711013578
98.0123478366508
98.0600383827133
98.0529627866721
97.875884844999
97.9142456452194
97.9516665981023
97.9243776777126
97.9046916513476
97.982633685304
97.9828780113597
97.8596725124618
97.8505966503812
97.9601475158589
97.8820328333797
97.8916242240276
97.8808921909874
97.8496981884993
97.8910476575326
97.9001660082364
97.8533195123942
97.8593045927873
97.8954253416033
97.9012753095884
97.879852936655
97.9205939425406
97.9632588032385
97.947952075601
97.9317195580488
97.9619261777823
97.9479181680734
97.870359835795
97.8008624869961
97.8419735230554
97.9173923810866
97.9434495785034
97.9593435455131
97.8701773543946
97.8434210954287
97.9377946549227
97.958727401769
97.9158989823553
97.8933807004504
97.919993474039
97.8901369541629
97.8899494740613
97.8701275602126
97.818957760508
97.8218215464832
97.884062793964
97.9100780710634
97.8602152980908
97.8100644456671
97.8601551923849
97.9212314991295
97.8514796934196
97.7562679959378
97.7703309045361
97.7799652224171
97.7350289627569
97.73404080645
97.7663806950498
97.7230868202798
97.6810550422707
97.7374208326582
97.771868100343
97.6250018977057
96.900461418627
94.9024210704513
92.9086450876813
93.4059107391671
94.8895426145775
95.8722733080244
96.5467848609364
96.8901161669907
97.1073887783848
97.2897451342798
97.3650102021489
97.3856278925151
97.4148751049247
97.4427688578945
97.4040408871142
97.3874371078031
97.3323263351481
97.3647151664878
97.4774476666844
97.4181296652835
97.4320154577032
97.3847927376018
97.2847161391007
97.2425974731486
97.2572324523058
97.1983062431461
97.1805188825622
97.2495647998835
97.2304667430451
97.1575559263451
97.0913226731725
96.9923386130831
96.9068367069217
96.9694366214993
96.9385494091451
96.803244520177
96.8746726705663
96.7742979363994
96.7117755918599
96.6595904764757
96.4894829279938
96.3529155225542
96.2537148830771
96.1153144777914
96.0817126438388
96.074544524857
95.9190095624018
95.7855302151849
95.6022401353469
95.5083549655442
95.4658370612308
95.3257141220377
95.2377674395281
95.2019678413138
95.1023354175189
94.9872205270522
94.8877169691803
94.7636738183701
94.6432557070448
94.4582072915277
94.261387089117
94.223993565855
93.9192248164362
93.5009838485983
93.1474516512512
92.7190268567706
92.249786956451
91.7515200848726
91.23169657331
90.777461290218
90.6580180855396
91.0846499836683
91.3818459497505
91.6096525152827
91.909373125279
92.2774703983633
92.5561753733244
92.8553533354865
93.0871887875033
93.1574780352576
93.2433285465963
93.5247084895956
93.6905916731565
93.7593368594542
93.8265252417223
93.9140615586374
93.9923827780567
94.0660575854284
94.1582023367208
94.2677780257451
94.3406792475625
94.3752803806984
94.4330305119053
94.5210303875788
94.6261419617478
94.7087094751251
94.734779365749
94.7862858438212
94.8512735618101
94.9292904897003
94.9986845108588
94.9844019521913
95.0402116917771
95.2852711996046
95.3703469068869
95.3680761890852
95.5006009071362
95.5843984481419
95.6469470351122
95.7246289187338
95.6391441389863
95.6021053433611
95.9739938810167
96.0602756634829
96.0870769370605
96.1324057230302
96.1674423728594
96.2584294381219
96.2498191474602
96.291556656371
96.3956936512489
96.4633988007775
96.55725273905
96.6310217442393
96.5434393658439
96.5165756813331
96.5493911352322
96.5125527773522
96.4686768933811
96.4444582975304
96.430701206986
96.4276230860183
96.4928092638944
96.4711411337051
96.397523826269
96.3436385468932
96.2484039117123
96.1773098266966
96.042859438046
95.937935083439
96.0562269579177
95.9965145464546
95.8244766308435
95.7043749182283
95.6292961575947
95.6397348367847
95.6288489360689
95.4918325683667
95.3607500785939
95.3389435614743
95.3074515172274
95.2324973379058
95.1105826963851
95.0290554730435
94.9460726452349
94.8363373279786
94.7132977094153
94.5232823085334
94.368011503086
94.2077930040301
93.9949759149842
93.7852532431502
93.5706979377041
93.3567413227133
93.1188463768977
92.9025424143981
92.7092037277712
92.4170841009378
91.9265637368966
91.1725394421464
90.1682367530455
89.023444980755
87.8383012881299
86.796439916179
85.8460981930225
84.9900313215638
84.2087233792138
83.429893007263
82.3245071683766
81.1732344629751
80.6990285075139
81.0351449565197
81.1076200843084
80.6371702177338
80.0086870357768
79.2880294224042
78.5516576094287
77.8441225532436
77.0225743678478
76.1908669071785
75.3686093895175
74.5525552154266
73.7170992114216
72.8840972817206
72.0812903426162
71.2565727832174
70.4140177680801
69.6095575764602
68.7426285442402
67.8764289560832
67.0005812609263
65.9083745358387
64.7128335686708
63.508450959947
62.1243546937576
60.5304208107462
58.8886052650615
57.2578472401811
55.6705122120406
54.1495343969014
52.8835193082743
52.1139400912962
51.7138279898186
51.6054684242007
51.7280828218121
51.8498386232674
51.9927631053955
52.407612792224
52.7862398107409
52.9813771820527
53.1705612026662
53.4218231318806
53.6894144875515
53.9391818051571
54.2388691726796
54.5909732478383
54.9469877208755
55.2771399910283
55.5911856020221
56.0546777988555
56.598286085407
57.0221683792717
57.3581897840055
57.6817777983034
58.0689623932381
58.4669341080921
58.8699334107907
59.2817010426074
59.7122053008575
60.1138273943589
60.5331387955815
60.9987795011441
61.4294099165705
61.8508616415528
62.2633120716551
62.6191870382764
62.9886428869303
63.3756450467869
63.7709385343038
64.1685015707723
64.5616654746655
64.9167005202022
65.2717915766035
65.6606667893625
66.0415433461509
66.414662233909
66.7882200101464
67.1594792760118
67.5295863706513
67.8865361720165
68.2495075732644
68.6165123446389
68.975691832659
69.3081057090489
69.6089618745019
69.915595693674
70.2790522751261
70.61356444616
70.9112928833402
71.2057843718986
71.5281047500128
71.8372830225734
72.1384165856263
72.4292548332842
72.7090094417314
72.9672852864976
73.227958328462
73.4761938302537
73.735845712343
74.0057942527878
74.2748561441445
74.5289373555037
74.7805804691686
74.9975065522944
75.2160392513597
75.4577699107361
75.6702399084038
75.8618533226169
76.0520933556536
76.2302129862096
76.4027928839088
76.5484991835357
76.6765558172355
76.7779788356788
76.836669180887
76.8737194443437
76.9044282241215
76.8999525260124
76.849604406274
76.752287513003
76.6263246819327
76.4876661587622
76.3156507352347
76.1123376376334
75.891136284963
75.6724854733806
75.4629919627266
75.2501750170116
75.0764100967787
74.9940783037391
75.0369100940247
75.1581606557705
75.3315071078043
75.5381677173036
75.7251399062361
75.8374098712257
75.8656146306918
75.835621874784
75.7613824463384
75.6055113685771
75.395563085315
75.1756328166687
74.938731921331
74.6392280063955
74.3369368626251
74.0382357484852
73.7389598907667
73.4432405323394
73.1735683923112
72.8983906240211
72.6413768505484
72.4167119511325
72.1699068417891
71.8758021224273
71.6118226719974
71.385498332344
71.137889089287
70.9110021270909
70.8109881608912
70.7936053329949
70.8036328179168
70.7968279999325
70.7045972484774
70.4988007802583
70.2281248138053
69.9648894247056
69.838512109311
69.8066316271103
69.8519107103256
69.9343020447923
70.0167248570801
70.1150939305221
70.2187427666792
70.2557116027996
70.2600937246036
70.2970243248765
70.3550977100624
70.3618382903703
70.3577519161626
70.4106997034808
70.4922118323381
70.5836215737652
70.7251703703574
70.918487424023
71.1669892906672
71.4651798800176
71.7839798625932
72.1034599147844
72.4623556524112
72.8582554783896
73.2709306900718
73.6850304434292
74.1275727022896
74.598682838268
75.0576172465778
75.509574105057
75.967307905505
76.3992199864697
76.811270564699
77.2036058368287
77.5715186321706
77.9302684299832
78.2898435163037
78.523908945373
78.4670591658715
78.5388667736792
79.0365596377546
79.5282477270038
79.8804271357341
80.1823254686159
80.4965407158659
80.788355335969
81.0782181528116
81.3598264151575
81.6174432387829
81.8542763526904
82.0703966212996
82.2653193497808
82.4711494870701
82.6895275011433
82.8904927546119
83.0568392348858
83.210121348281
83.3446614139552
83.4861114464912
83.6324073545306
83.7618124108663
83.8488045227731
83.927023305119
83.9726472049246
84.0109722981874
84.0754989095185
84.1861197218203
84.3255353770785
84.4775282055459
84.6237978720692
84.7728927159047
84.8778418772746
84.972762441477
85.0832093243901
85.1735048259798
85.1956219706693
85.2467666408444
85.3940548529543
85.5866240439764
85.7260912860278
85.8576350968207
85.9634827321077
86.0715513986933
86.2195554560939
86.3526550930609
86.4498885086223
86.5166387378781
86.6069165669786
86.7104422608645
86.785058533984
86.8642196294906
86.9526558097466
87.0244217773685
87.0994963924396
87.2086476782892
87.2793879330589
87.3266953113791
87.385234472685
87.4585044225866
87.5108862753914
87.5880854419629
87.6643834367087
87.6994102490883
87.7408159084653
87.82760294229
87.9044257018571
87.9939708398266
88.07214208012
88.0838745494146
88.1248925812017
88.1799593886625
88.2305676230599
88.3199826309524
88.3673580026079
88.392144198707
88.4136873832716
88.4813701995794
88.5233791023581
88.5342006971103
88.5804754542014
88.6609792296124
88.7442985478242
88.7879850946903
88.8051748239571
88.8466255816342
88.8822539794788
88.9300988221219
88.9631653276834
89.014374917761
89.0435376852817
89.0648662574263
89.1050366014284
89.1525235094325
89.1870661698583
89.1806570176757
89.1557611269037
89.1792378841667
89.1778606892267
89.1885424259988
89.2217743186676
89.214353411538
89.1945523843146
89.2451119728634
89.2554523871671
89.2585202539299
89.2936395738073
89.3078975307534
89.2834576153935
89.2308256951575
89.1484470773902
89.080269617933
88.9983011996598
88.8860923793287
88.7205916589224
88.4932154584279
88.049087093586
87.1185291869972
84.5104940871867
78.1745609310938
69.2603646353626
64.5227301988341
67.8540897344373
74.607151991901
79.9204767790912
83.1405531211579
84.9475600079671
85.7975843031074
86.1461720183463
86.6474359146492
87.1460691718195
87.4290196470414
87.6310588569944
87.7573595713744
87.8265810250002
87.882098272219
87.9083001306466
87.9091763670973
87.8682278856205
87.8610657686244
87.8765844061665
87.8967192319993
87.8351518753298
87.7494674386423
87.7196360798022
87.6911084196541
87.6449719400977
87.5891411072203
87.4594821644983
87.331911170779
87.2754173004176
87.1837668304013
87.0458352415588
86.9334465444395
86.787709420215
86.6260784634838
86.4552040210465
86.2908690188374
86.2051505087997
86.1295839493666
86.0200272409618
85.9758868656156
86.023749916482
86.0280340597088
85.9905920377149
86.0099323101235
86.1091683498299
86.1842260255456
86.1728804028961
86.1811870803904
86.2599564180888
86.3337284058171
86.3349626980698
86.3298176728341
86.3764083371159
86.4363656510791
86.4122844603212
86.3864445721626
86.2777727052053
86.0623476266433
86.0452559081821
86.1448389644142
86.1720695329694
86.2092451783222
86.2804830810621
86.3022357258855
86.1958915860531
86.1228690285713
86.0787655698629
86.0567921767826
86.0247775104182
85.9728449140983
85.8983540244618
85.8544977744546
85.8380135478886
85.7789927084365
85.6996795615896
85.5844581866341
85.5225716300186
85.4566387839331
85.2964427213591
85.0915082382537
84.7994873192852
84.4172487807265
83.9395043018759
83.735268734555
83.496589592366
82.9956506741836
82.231027446899
81.1436098636426
80.1839817669751
79.9657984763993
80.5677526359741
81.3693869943632
81.9840737785545
