1798
3999.43349933624
650.420452594757
1
128
4
96.1781679381111
96.3936841941112
95.9760143324048
95.527575547979
95.6784948282391
95.8863532298575
95.9330629838909
96.0369760003931
96.111946895801
96.0403855331875
95.9665950830872
96.0079260974429
95.986778021792
95.8683941603198
95.8351367485702
95.7771297275096
95.9067217457483
96.0193938214427
95.8792529779472
95.9806256491813
96.1431598274269
96.0633770070488
95.886909003004
95.8003243038924
95.8566359197902
95.9672264002244
96.0467589849762
96.1283583395017
96.1020593237585
95.9855490961704
95.9149407635035
95.847870402575
95.8698384638488
96.056515450938
96.1090372305665
95.9696647392157
95.9845288837749
95.9106752786575
95.9098990001025
96.0358169073504
95.9598521673738
95.8307607549723
95.8679834566391
95.8673839776805
95.8210169220227
95.9060803118021
96.0445824466945
96.1269868396951
96.2331588253205
96.1926842232401
96.1007888740087
96.0696084579871
96.0516927241481
95.9651914699457
95.8088427378016
95.7919645866243
95.9059756694113
95.91953826792
95.9629380935189
96.1062836772957
96.098304557197
96.0019881694156
95.9802246252202
96.0025439728605
96.0801153158757
96.186454237786
96.0589055270143
95.8914195260266
95.9433533361064
96.0759834338527
96.1585880041067
96.0884143977126
95.9594707465035
95.9737997911381
96.1397018232343
96.2797489386839
96.268298259018
96.0939358470917
95.838326171614
95.9941817108321
96.2627440354623
96.1668349416088
96.0297094064434
96.0974179406806
96.1787957577597
96.0985703558069
95.9992919188644
95.9731348890758
96.0238094501009
96.1750893265032
96.1430465509375
96.0210946574184
96.0482859647363
96.1512496424513
96.1607050229727
96.0262486119274
96.0884860254218
96.2178252583014
96.0593779350286
96.0880422942616
96.3006770181028
96.2260397959953
96.0883155175639
96.135781514094
96.235521152243
96.1666369894633
96.0680094846755
96.1045104277431
96.1339136904641
96.129029415448
96.1201319774411
96.1244895277835
96.1338757003147
96.0826246736394
96.1237858847286
96.1957103707003
96.0885712179619
96.036798953452
96.1898935271335
96.257718317199
96.3212792741131
96.3566756455262
96.2033992350636
96.0938652981138
96.1563392971259
96.2086292364263
96.2826753928174
96.3500387210885
96.3448390955416
96.3199458542455
96.3625981071151
96.4798737515735
96.4591022181224
96.2541831078244
96.2370064064732
96.2757373984688
96.197053484813
96.2671178992487
96.4338706788003
96.4178066233269
96.1524944936367
96.0260711023125
96.1039850342037
96.0947371671919
96.0653339442487
96.1268218595125
96.2106642216229
96.3297930978623
96.3886824457014
96.4156882015074
96.4150812758514
96.3197856241564
96.2908750317135
96.3014811368618
96.3410373484171
96.4354071955566
96.3731232690196
96.2991993912027
96.4224294365453
96.5057505537374
96.4231522862955
96.4022501179118
96.4581630769842
96.4645429528629
96.4407646785754
96.3767405738055
96.2009452174561
96.2236596445617
96.4213510452591
96.4394267228584
96.3791424724022
96.3719136627817
96.3518756439132
96.2628208107115
96.2295119243337
96.1547341893157
95.9728842587544
96.0078571731786
96.2199730448157
96.2806270882634
96.2094317374357
96.0965622455424
96.0821740092209
96.1223397996563
96.0394676425099
95.9890632596154
96.0165993356896
95.806697183247
95.5178895267314
95.5192838793931
95.6666307670262
95.7391178286005
95.7154932138508
95.7623497874668
95.8375150040463
95.7172799843522
95.5722265324961
95.4491767531203
95.2001070821422
95.1980152819494
95.30778125141
95.2701812604796
95.1643460744354
95.0287930855308
94.9332157553715
94.9105513005568
94.8464011483527
94.7501415752373
94.6860706495567
94.6415239620922
94.6344925133343
94.6157242982129
94.534691672608
94.3555153327445
94.268212766001
94.2232037103017
94.1466312704456
94.2240320613138
94.3038662330295
94.1880431185958
93.9588200714029
93.7985179252251
93.7976613788838
93.7288470537249
93.609723525191
93.6014652332189
93.4944408171455
93.4167075786529
93.457493183003
93.4060680170336
93.3249780027617
93.1778322303954
92.9691285092469
92.9242351569403
93.0396188548864
93.0300412760829
92.771565120629
92.5888314445866
92.6007965099436
92.5153217231401
92.4098398263021
92.4104371410582
92.3778120656477
92.2700536039087
92.1399263492416
92.0255798476921
91.9869649510643
91.9647038831645
91.8740195276043
91.7927972911118
91.7630114059741
91.6782835936722
91.5257318667838
91.3542339010092
91.2922815025584
91.2626837586206
91.2143663286262
91.1360418005881
91.0314400510032
91.0073132618946
90.9798970546289
91.0178399055127
91.0459433102851
90.846381866955
90.6286661867764
90.5496327143232
90.5099097656335
90.3706290448443
90.2472046937349
90.1987438030663
90.2209115790029
90.193772297753
90.0523433261699
90.0002162473113
89.8298368871894
89.6468199123454
89.5828078040838
89.5786029448306
89.6004883943002
89.5315675489871
89.4187990858034
89.2971541180528
89.2012734880115
89.1149029152572
89.0150098085869
88.9485074028862
88.9056989238162
88.8791903352676
88.7740388300812
88.5995540689215
88.5279871921369
88.5845987443711
88.5595082206509
88.4778270277018
88.4078080930359
88.2413019019309
88.1106089205883
88.1133231445811
88.0777134199444
87.9682145267103
87.8986762511084
87.8109741237183
87.6862360121556
87.6023613055022
87.596095501777
87.5175918663264
87.4023707672188
87.3174697743632
87.2519169343647
87.2380073402233
87.1461371186664
87.0823696926669
87.0154397670765
86.979226376472
86.992371096607
86.8567832053317
86.8274752742606
86.8379795919388
86.6377799716538
86.5041213451848
86.4735183532007
86.3536529276586
86.2282474599724
86.2321510467997
86.2390272076354
86.1775336177301
86.1525007176938
86.1433532505232
86.1214118697509
86.0903485447538
86.0319987176632
85.9464121393067
85.7996603536073
85.6897949035576
85.7569084795123
85.7380848688562
85.6870424884006
85.6239059665616
85.5064749056602
85.5081920802952
85.5542432707218
85.5200330704945
85.4171788205518
85.3035144123615
85.2426382316397
85.208246343447
85.2031537808938
85.2105393546067
85.1143963272886
84.9762877961154
84.9318447956589
84.9697899037678
85.0222079954909
84.9626075490936
84.8700226950407
84.8078933158735
84.7686202395859
84.7771006549462
84.801958386662
84.7873783514052
84.7335879682227
84.6789269073128
84.6844575645988
84.7066047816639
84.6562764618851
84.6231388738266
84.605468231087
84.4926438298098
84.4374889059521
84.4775614563821
84.4238717136737
84.4187791969734
84.523750101784
84.4255171368605
84.2819555562471
84.2592479826439
84.2612257108269
84.2755388578155
84.1964658327071
84.1240234974114
84.1729156658716
84.2110301382972
84.1862557311764
84.1798396754451
84.173597549356
84.0604708842193
83.9431386228984
84.0092681849876
84.1509851196996
84.146355668582
84.0592777939908
84.0517006221425
84.0463776922791
83.9654703500414
83.8894566292859
83.9103857565103
84.0447227782044
84.091965204287
83.9894699931167
84.0029073912396
84.0709326134761
84.058147669583
84.0598257280353
84.0745090531274
84.0380108155245
84.0709518173858
84.092304688103
84.0186536754731
84.0701629185288
84.1795940405471
84.171382249215
84.1123628740192
84.108002350319
84.1910286253741
84.1629277498343
84.0412770873752
84.0708931930623
84.1630664353936
84.2440167477627
84.3104888048476
84.3604609804178
84.3764212944861
84.3417311452543
84.3754617452458
84.3996342286327
84.3930184114298
84.4080778855379
84.4379246036725
84.4972728718841
84.57024105404
84.6040387641473
84.602393638946
84.6141867240926
84.6042093884132
84.6028635888664
84.7096816230242
84.7758108765166
84.766415686001
84.7959728841075
84.8508661166675
84.9009867681501
84.9327687517633
84.9717607052769
85.0442876077783
85.0696466470633
85.1130715697222
85.1956964066506
85.2488885638142
85.3219559417732
85.3485668542661
85.37674619742
85.446901272331
85.4590398998304
85.5411836223306
85.6652432095549
85.7120920809745
85.7071652487071
85.7399612099245
85.7810545530166
85.8038813403073
85.8829390466344
85.9468023531104
85.9362235265474
86.0287928184515
86.104656686023
86.08344615316
86.1464403545947
86.2668176928741
86.303407708294
86.3007419797341
86.3010438207694
86.336520927218
86.4150841659746
86.4829987284376
86.5586975356261
86.5724339048452
86.5942074867946
86.7208056625622
86.7669149144793
86.7355884352756
86.7281901008252
86.736065626563
86.7562203341542
86.8092057329876
86.8740798437335
86.9115584786065
86.8722160832015
86.8455663153913
86.8882670947291
86.9556715375157
87.0075790889273
87.0374346396026
87.0811914434408
87.1130697914422
87.144762174368
87.2402328319562
87.2553879459508
87.2499221438199
87.3024646796378
87.3022563426345
87.2745489574843
87.3442043315036
87.3926810941581
87.3494703485877
87.346270166632
87.4069518276912
87.5083732673462
87.6160806177857
87.6704177408487
87.6547786962046
87.6554572391948
87.7258024799146
87.7596838296723
87.7946559847452
87.8596003174216
87.9032733543116
87.9454057127159
88.0133125513554
88.0309984400703
88.0500387388184
88.0972250896048
88.0753249795593
88.0730740511211
88.1330632478962
88.1819821434565
88.2264440890713
88.2293324265181
88.3340132966148
88.4841864409214
88.5427126677958
88.5529014990265
88.4768229395433
88.4156920463981
88.4978882744913
88.5244841283102
88.5418319104111
88.6238093239841
88.6411210286284
88.6140614282035
88.5929673359499
88.5685052256092
88.6121421196717
88.6560532356346
88.6007072480433
88.5196260814744
88.5407598244197
88.5840462021152
88.5644148450129
88.5499866862712
88.5512099258758
88.5506696129829
88.4955552223629
88.3766838782934
88.3748549872996
88.4129117441075
88.3736330908955
88.3470644032233
88.350029996942
88.2969620194381
88.2343922628392
88.2654364958429
88.3480575419536
88.3221207419544
88.2802081182462
88.2662374205556
88.2132446185001
88.1457320090616
88.1449286719751
88.1376087159527
88.1534652927456
88.2066006343154
88.1498744657195
88.0895935300161
88.1329233833076
88.1770160194432
88.1416871414389
88.0335386457708
88.0275255352559
88.0906625551958
88.0896642489695
88.0614970870505
88.089853563177
88.1528869694306
88.2365767702097
88.2762466234963
88.2968211352159
88.3083997772508
88.2787405447973
88.2887965735725
88.3858693181994
88.4464765133039
88.5149665207798
88.614261096263
88.630426933882
88.6127562060027
88.6296306810724
88.6369326529001
88.6172084047507
88.5751485861629
88.6009905786979
88.6980543166356
88.726427305201
88.7207178920381
88.7786595065394
88.8568591615583
88.8836934490003
88.8811936965528
88.941375750936
88.973574465353
88.991437611974
89.0907498790885
89.1936330820563
89.2090873500037
89.2270254987383
89.2329327207518
89.1565299130202
89.1158387209248
89.1819050921744
89.2703964695069
89.329573924601
89.3578072722586
89.4120250515236
89.4465082878434
89.4842553132827
89.5292682336766
89.5519842671114
89.5794264912822
89.6329122485961
89.6591978551198
89.6725056351742
89.6942301530422
89.7310025280981
89.8148719336071
89.8801267252036
89.8944638644815
89.9468261608733
89.9621671667612
89.95341174936
90.0229547513569
90.0947819095989
90.1053714288651
90.14465542874
90.1551223101447
90.1433761472063
90.2115205851685
90.2604752281364
90.2874383262475
90.3181620394706
90.2865813542975
90.318707715306
90.3948409597231
90.3910605165826
90.3747860805287
90.43838869457
90.4637261550879
90.4718417234669
90.4825782475948
90.4633772538135
90.5003074180417
90.5724882263652
90.57494448862
90.5985821131046
90.6422091903963
90.66464761962
90.6624009778622
90.6330683879452
90.6160658754975
90.6696863531266
90.7438222200913
90.7610354718777
90.7589425754271
90.7960350035315
90.8225043150052
90.8032488019201
90.8139108097579
90.8519302080412
90.8539313359685
90.9000954193463
90.9444446684167
90.9270380883608
90.9057955321249
90.9061721007082
90.9554546439963
91.0055581854714
90.9664839633639
90.9548894063436
91.0108625584387
91.0586535987056
91.0787173937683
91.0513288450587
91.0333961391006
91.067813739175
91.0825124241414
91.1078336889416
91.1325867172907
91.1257696679865
91.1269453342902
91.1892753245582
91.2484918165262
91.2609354412017
91.2370747367029
91.2278898724299
91.257005782002
91.267959328611
91.2646561349807
91.2764694771665
91.262246607938
91.2641577205263
91.3106700590945
91.3421520238285
91.3917165156586
91.4194777722532
91.387683921032
91.3905416600624
91.4246504060554
91.4613450834218
91.4582354365449
91.438218531851
91.4148925060599
91.4255813403247
91.4643128282355
91.4689392622691
91.4707420323168
91.5221561622772
91.5677688534746
91.5919305784307
91.5932795642146
91.5610532302639
91.5722207936281
91.6427622684991
91.6881896770048
91.6999430899806
91.6992975453484
91.7059777169486
91.7046551576075
91.728823330859
91.7685779585839
91.8315954285047
91.852899322938
91.8580738782962
91.9135689578295
91.9394066020188
91.9308741666876
91.9944332878604
92.0545766160853
92.0263464985606
91.9886683043402
91.9652446573544
92.001761805175
92.0947434753606
92.1893420078888
92.1860830302664
92.1659516891774
92.2218061649527
92.232997875636
92.2384619988639
92.2640019925628
92.2845230603043
92.329048691555
92.3912269966152
92.3946385009304
92.4036642995442
92.4405736575706
92.467647016605
92.4720745094629
92.4408059950085
92.4358930813359
92.5198586232952
92.5395830640136
92.4849449244468
92.4903660314747
92.5441509281481
92.5168373201294
92.4728812955654
92.5488833833157
92.6466493479916
92.536128717519
92.4307848876703
92.6052739369046
92.7575562886757
92.7013139773563
92.6531566291257
92.7222682005582
92.7764479462801
92.7090744160721
92.682048051187
92.704357606696
92.7237569066625
92.77806399178
92.7883883275512
92.8141665446543
92.8024899513322
92.7324267454012
92.7353749722186
92.7670020620605
92.8008324583078
92.8223614502234
92.884748280923
92.9262454500992
92.8271897980758
92.7418357918623
92.8201673817229
92.8602639183255
92.8734070294724
92.9009075378495
92.8373865481829
92.8440622995835
92.8991014795753
92.9061301041188
92.9053023044485
92.9618139938377
93.0444429064509
93.0089958640278
92.9165087326622
92.86268262095
92.9236813002398
93.0027027956828
92.9444022983023
92.8811329579582
92.9126082284774
92.9806835376599
93.0052550238916
92.9373351355024
92.8917107224791
92.9583927389251
93.0105092785104
92.9588771866241
92.9006866587896
92.9509590863718
93.0133849547673
93.0525179188129
93.0677267728195
93.0540592515277
93.0562493643098
93.0443728932244
93.0403596234876
93.033224016206
93.0345866913864
93.0825113911144
93.1179671606624
93.1236767375318
93.0911958667054
92.9599336256477
92.9567350366207
93.0678707528987
93.0880318538608
93.12606337201
93.1959558201933
93.2140446308424
93.2138708680041
93.1589586456294
93.1205915945387
93.1377711778973
93.1071286108832
93.0496332694837
93.0660877150533
93.1023089971868
93.089721810787
93.0946848185589
93.0853462348243
93.0877668726178
93.098044127177
93.0627884920071
93.0444965041306
93.0998643215609
93.1763206528811
93.1698449187973
93.1183065386008
93.1117669699809
93.1428843869597
93.1115175565677
93.0650756356948
93.1120849380582
93.1997504903142
93.2066366884985
93.1407196291362
93.1054003040789
93.1255172615081
93.1406711431699
93.1738583517255
93.1418511489575
93.1393199477534
93.2185371323725
93.2084981492531
93.1819256062163
93.2128648615197
93.2018153232353
93.103753373447
93.0290191954686
93.0556306270772
93.0619614415343
93.1158367577486
93.1744573312601
93.1149143358166
93.0691422608137
93.1285057054911
93.2148442102029
93.1983697614872
93.151525963886
93.0987253790059
93.0350706714055
93.0472955021884
93.1472114072612
93.1853722717051
93.1654845282357
93.1672791571615
93.2102850342161
93.251289840671
93.2727319759699
93.3358905747124
93.3555723238735
93.3858660623934
93.3982657765383
93.3210098296313
93.3179752360533
93.4447940576628
93.606644247931
93.6400109086965
93.544979552007
93.5749342195351
93.6390013837718
93.6724379710004
93.7873099012859
93.8064291263254
93.8328868235809
93.9550615821353
94.0447093257897
94.0730674535515
94.0573550219678
94.1031430006094
94.2446038153135
94.2507093143032
94.2108577074396
94.1695987477888
94.1998893963118
94.4555134717269
94.5235673260666
94.3707438779815
94.3243847475059
94.3347751504906
94.5133798126383
94.6665027714233
94.5488263331583
94.5064191189881
94.7133912486084
94.804929278316
94.7972955036582
94.8637173523249
94.9885871196823
95.0497908824437
95.0531045268759
95.0956248250554
95.1604449243668
95.1768954896684
95.283396938215
95.2989433243927
95.3404446711247
95.4771429428078
95.3858509679841
95.2988638788958
95.5614920108333
95.7572823080147
95.6878989190709
95.4682829498462
95.3734361652327
95.4097426104856
95.6776643020737
95.9086446468989
95.763343329534
95.6626370027608
95.8584693675852
96.0230730126824
96.154953130606
96.4199855519143
96.3599244156914
96.1705624231608
96.3253343510147
96.7083272945077
96.9393503844024
97.0249123707361
97.124855691942
97.0435217964768
97.0561440248052
97.4979934631305
97.7655028893479
97.3263832961641
97.1550252769596
97.1283417949266
97.1945248606891
97.7607682656855
97.541515038515
96.5785129632074
96.3378222779006
96.7277091722161
96.6413737697613
95.9693026158423
95.7359937971525
95.846402194029
95.859077134977
95.6598319429574
95.5128066554464
95.4879690249601
95.350352550541
95.1280923173482
94.965575456002
94.9694836061595
95.072100286672
94.9188534080317
94.6756937199623
94.7279338541583
94.8089755009158
94.8813300571813
94.9797018074939
94.9891656982014
94.9266147794032
94.7155018278547
94.5976491084368
94.7098610422538
94.8744832133021
94.9136046445401
94.8765561709844
94.8335253939944
94.9353977239588
94.9989103807752
95.0072745589159
94.8989183699882
94.821011422733
94.9370165564732
95.031642238028
95.1002975209565
95.1306748203228
95.1952451108109
95.3647368777131
95.4114209886652
95.4435474725651
95.408675750589
95.3931205217281
95.4813963792347
95.6085415514494
95.6581854404555
95.632539678198
95.7264941807635
95.8971498578261
96.0486789688216
96.095548338064
96.1662819606481
96.538978835881
96.7694031177651
96.8397587724193
96.983231718996
96.9754295172924
96.9436760125255
96.9601478679442
97.0449385635408
97.6826513096424
98.1041597277323
98.1182152103304
97.6763863619315
97.2095379018886
97.4020219182658
97.682424421837
97.6664058506411
97.7571030711516
97.5991780888321
97.3336410341922
97.3973870764449
97.4671673540673
97.4614031534938
97.7468587468896
97.618501155213
97.0426603992325
96.6135125313859
96.5461258937941
96.7048935584818
96.9313835206397
96.9089480207505
96.974571391929
96.935065973774
96.7030566549698
96.7098669474051
96.9238525472882
96.8084102537397
96.9583627252351
97.3233152592285
97.3994520166805
97.4894559756105
97.5698319179987
97.1188544055807
96.9713137395585
97.3452766397799
97.4956183232124
97.2876267448878
97.2142265708583
97.0614842499299
96.7722587167651
96.5338137033527
96.4280424873266
96.3237129228871
96.2580366088714
96.3046136776259
96.3770368882192
96.2291373994427
96.0023355906334
95.8382336524561
95.8192828896712
95.8763157642688
95.689473845469
95.486746689298
95.5745566021617
95.5634903695201
95.504481762748
95.5961114547804
95.64524321815
95.5270154294258
95.3559331945439
95.3550497990368
95.3205639767945
95.1509234964039
95.1192998721645
95.1943400136951
95.2583659826095
95.1578551572172
95.1150026965756
95.2192512870935
95.3120674757838
95.2881509699235
95.2100045574584
95.1246823287876
95.0378224707195
94.9374895322629
94.9365873029735
95.0358987440229
95.0672292254456
95.0148483107087
95.0442073324043
95.0302560182538
94.9975715367179
95.0107049511828
95.0306828390764
95.0526263881222
95.0710778814069
95.0057074545393
94.9829493211915
95.0376582379276
95.0401716111859
94.9965068127954
94.970013224809
94.9635931795238
95.0171846495261
94.9917925964676
94.948888689802
94.9717312489514
94.9645663959137
95.0126282981868
95.0527590966576
95.0187542993321
94.9679341237976
94.9829671872355
94.9928655223159
94.9738966430444
94.9875815787405
95.0435228682791
95.0711405907428
95.028838093088
94.956489509694
95.0128117029275
95.0202159334142
94.9527409034311
94.9641669059597
94.9886629103853
94.9705714095539
94.9813127977253
95.0633477863155
95.0763139282745
95.0132534740864
94.9895600299726
95.021288767476
95.0318985417095
95.0117668119231
94.9578349680723
94.9367870356272
95.0222046459735
95.0531107134608
94.9322763518078
94.828711069366
94.8717438398482
94.9320354697755
94.9156524555078
94.875430853654
94.8364503808215
94.8065809476814
94.7981258036286
94.8055264834065
94.7747068763204
94.6883092998382
94.5177974579745
94.5780321491217
94.6184099541191
94.5563241694657
94.4939365863209
94.3677985119238
94.2720307322695
94.2832034735294
94.2004802170374
94.130830003445
94.0463106155446
93.8505158991951
93.6920066314387
93.601569999026
93.4833193992304
93.3336513071527
93.2091930550387
93.0946061165889
92.9091144142474
92.7787164767361
92.4647363159466
92.2460028282862
92.2408236172573
92.1017237072784
91.9678269642852
91.8986630769844
91.8112393910419
91.6743454901628
91.4558897084293
91.1576324286539
91.0668206067517
91.1135681390612
91.0627571804519
90.9629191744129
90.8959298269571
90.771079218647
90.5092289110239
90.3780665275729
90.035992133969
89.5558930908196
89.509766101918
89.1390143722973
88.8606672569035
88.7376406672503
88.3862580731264
87.9741297247069
87.6103447210926
86.9860577080762
86.6649343343199
86.5877608566494
86.1995201371267
85.769180865362
85.1947566876803
84.8235096353953
84.4769576991643
83.8961611697729
83.5006913592287
83.2820412276382
82.8185923109173
82.2762255158131
81.9973500469147
81.7164644127047
81.3237421464
80.7379966657865
79.8026786942812
79.9739598801401
80.1120368840736
79.5182498697234
79.1361944221138
79.2499350163431
79.1305553748521
78.8552679537553
78.5609211473859
78.0895898721788
78.0611607519804
78.414058873188
78.3822657740991
78.1144143023243
77.9957870880045
78.0259633793706
77.9876186522354
78.1426168569511
78.1728148356047
77.8334361811354
77.7400515718096
78.0559417327276
78.0661717073632
77.9210396780503
77.8668112727263
77.8711442301014
77.843434938998
77.7864025537618
77.7650112258396
77.7516750451112
77.7120350668377
77.6850541754862
77.7224375397557
77.7858887045288
77.8562966973552
77.9404193077957
78.0313563247717
78.1595436069298
78.2952592626245
78.3990605250602
78.3959300654674
78.2375287553616
78.550630177305
78.9370485778495
78.8157765732384
78.6914478902298
79.0201818673524
79.1523323389169
79.1098823348486
78.9419335792404
78.1725742138084
78.2501310732154
79.1006546150773
79.1534324688222
79.0721083479106
79.0303809490202
79.0559036739812
79.1278771494064
78.9509661945198
78.8085647159378
78.6543281122201
78.9009985698456
79.6162307034676
79.8124311880902
79.5536101204531
79.7949615647467
80.1412281129105
80.1897947880156
80.2191561596259
80.3834123528519
80.3983204145927
80.4833445956101
80.9063298504495
81.0037175594932
81.1518671271032
81.3630168768216
81.4139897731063
81.3402357959958
81.1030470281419
81.5983496252193
82.5327085240015
82.7461297439
82.6006905471825
82.6128307582874
82.9285670029718
83.4505717954943
83.7036353877558
83.6665001310715
83.9101020154565
84.4073086215312
84.7916330669372
84.9997286825544
85.1122971759144
85.2426470922265
85.266892261121
85.1684718783574
84.9883534522437
84.8107384889421
84.9024488433872
84.7876846030445
84.3792500209142
84.0198469814304
83.9537524964813
83.8029192814972
83.3540218400745
82.8441841976158
82.9703450326352
83.1597181835632
82.9634881141045
82.753027092902
82.6101746718266
82.6609925339421
82.7158822992939
82.6709196092929
82.5978026901738
82.4519057367014
82.1953574386448
82.2838209509361
82.3241784035564
82.0496429101941
81.7763361477573
81.6299498211508
81.4236040110424
81.1050251876019
80.8483996654935
80.4768050213167
80.2562116951062
80.3812482012347
80.3359582794884
80.1713132768122
80.0390414612759
80.0051728856395
79.9609222404863
79.9233390372816
79.9995184687505
80.0719592948752
79.9784471142841
79.9946312209982
80.0569032394637
80.1404108600802
80.3206474101198
80.339461738103
80.2054339855339
80.1860874020675
80.317679300469
80.3498752747821
80.3436476342741
80.3480058910292
80.3489234129815
80.3038485579298
80.3296264149365
80.4927474780884
80.5798542888342
80.668608205231
80.7836809080862
80.8166650288996
80.919197003916
81.1851435048836
81.3713965374634
81.4386811883867
81.4843967709404
81.5744292336382
81.6492658042234
81.7210488547559
81.8042797623679
81.8779857892433
81.9442935543259
81.9898498447987
82.0128936605904
82.1089094506316
82.2377139729817
82.3303868649519
82.3649404607831
82.3756361271076
82.4054391574
82.4616323162171
82.4991437466543
82.5367487163683
82.59060115087
82.6283561499588
82.6823802438905
82.7617385562417
82.8099876806713
82.8444604228893
82.8966686193607
82.9465638584366
83.0099938951438
83.0719527369154
83.1155899069175
83.1492549344657
83.186479800278
83.234283801954
83.2880850621831
83.3167620100237
83.3220771097189
83.3417065091359
83.3561396323377
83.3403261266993
83.3071393144954
83.2705518009583
83.2268669461865
83.1844255976665
83.1053194863415
83.0101382672534
82.8973460196727
82.7652236603609
82.6452735825944
82.5065967564408
82.358513447357
82.2338029707685
82.1051542703036
81.9719713434043
81.8665198777194
81.7710461428335
81.6672632011408
81.5588677677332
81.4502078102466
81.3511099020473
81.2539135889944
81.1752849580969
81.1282019426552
81.1061551573091
81.0671851301668
81.0320862759434
81.0517292975177
81.0881854612945
81.1213612021849
81.1757016263047
81.2359388800288
81.3064649200918
81.4062554634419
81.506953510634
81.6016313205754
81.7189275947507
81.8318142672987
81.9360700787539
82.05444780369
82.166774558857
82.2876659458963
82.3976076800005
82.4964410404822
82.6053717843335
82.7106643484774
82.8286386057074
82.9490178093981
83.0613152977989
83.179939239392
83.2910427399603
83.3632080004814
83.3805434856622
83.3743040668518
83.3484834432721
83.2733881938495
83.176618801747
83.0839764008443
82.9959570079286
82.8957369672978
82.802128988037
82.7037711221917
82.5925734323049
82.4886186656296
82.40122358447
82.2926090316373
82.1579169192373
82.013393482239
81.8560505371342
81.6797681438568
81.5212087816541
81.3690386443163
81.2328395357528
81.1164291834675
80.9845463455581
80.8234305464931
80.6612476053012
80.4809112302043
80.2721926190568
80.0185722962337
79.728113292648
79.3964242788905
79.0261946734355
78.6607627215348
78.3230388934658
78.0035905036441
77.7269696115649
77.5022433876578
77.3175255632001
77.1687024557635
77.0549557175553
76.929839909576
76.813242564077
76.7218295086298
76.6206961851163
76.4858593518594
76.3749139787052
76.2239728063671
76.0138766133169
75.8184332812323
75.6110158585217
75.377915936625
75.1385142345163
74.8628528420666
74.5670246604891
74.2703494788526
73.9768212493512
73.6769850878666
73.3785999646183
73.0913603265315
72.8313416800926
72.5700777167325
72.3365414886072
72.1255160138113
71.936147386723
71.7726252403167
71.6114256569643
71.4467451052768
71.3415788587796
71.2402908120251
71.0991736591742
70.9582976460369
70.8535998323552
70.7565601809135
70.6330826620009
70.4939196819859
70.381487601696
70.2423609526074
70.1268346882236
70.03300100701
69.9388419918852
69.8381777670054
69.7395491730878
69.6805785613439
69.6737073505838
69.662469373103
69.6605886167905
69.6603355437254
69.7001010459747
69.7680173527864
69.8555008144986
69.9332475831063
70.0447986599178
70.148141780439
70.2944269529627
70.4759897196536
70.6845431697872
70.9322194802789
71.178243115919
71.4082353899788
71.6622682156674
71.921248032351
72.1920183358853
72.439493259862
72.6868038675618
72.9387356861996
73.1901969626668
73.4528307164074
73.7279065169293
73.9591800242427
74.1921113565888
74.4235894730128
74.6141736076759
74.8032829628957
75.0057266755065
75.176565110164
75.343235801999
75.5008132126671
75.6554075674017
75.8425826285855
76.0620192546691
76.3082440031604
76.5494882481711
76.7877730908946
77.0253599414053
77.241474999345
77.4573050727192
77.6758963709901
77.9004668999245
78.0984552810133
78.3088232023094
78.53005348207
78.7260810140354
78.9230471861348
79.1439081905029
79.3352483620063
79.52637802968
79.7317885188728
79.9181291478006
80.092184902929
80.2732876362767
80.40338279052
80.5106323570958
80.6173854695746
80.7283198838232
80.8277895854402
80.9119209127836
80.9897914734608
81.0899453971548
81.136755046671
81.2324111896365
81.3567021415087
81.4331783770076
81.5011753932549
81.6059201759644
81.6951062475954
81.7286036096158
81.7769083169653
81.8633349208177
81.8731134043744
81.8790256554883
81.9524754930947
82.0153929150848
82.0151242419645
82.0297759160577
82.0284037497953
82.042787567074
82.0722297909839
82.0734851989368
82.1140115751383
82.1108818920979
82.0882396282174
82.1065675178049
82.1383745896324
82.1271836115001
82.1082881129283
82.1285209326472
82.1222554474046
82.0982872449362
82.1206554773528
82.1509945516292
82.1468475939361
82.1488378100472
82.108801314024
82.05191593413
81.9841373555401
81.9484783897766
81.8966910386934
81.8322063838424
81.766616223515
81.7309061631719
81.7258328737015
81.6874492350925
81.6463310172742
81.6165347063824
81.5773699146512
81.5642387935704
81.5454215667136
81.4916629773302
81.4310701841387
81.3535705668238
81.2879540945661
81.2316003175416
81.1468893293508
81.101117204768
81.0932911123211
81.0478509373899
81.0019271448668
80.9768728002306
80.9500315204391
80.9421036295924
80.9104624734947
80.8786706757472
80.8757831999575
80.8393246907008
80.7844853957315
80.7300933825283
80.6160741512387
80.5501579744744
80.5429297808896
80.4971345374926
80.4435686322809
80.4221000653111
80.3684745552872
80.2887301964791
80.2581674420941
80.2512515916508
80.2007667564724
80.1814045724437
80.1335355137598
80.0727839479145
80.0078365960237
79.9088140258145
79.8194401008779
79.7843779389982
79.7389408600523
79.6769302765159
79.6193035347597
79.5289722876392
79.426041092077
79.3407536979867
79.243895110263
79.2283943527161
79.1920706302864
79.068628480956
78.9544340725194
78.9120305178479
78.8491374228734
78.7902357173201
78.6800914356779
78.5349867551295
78.3667815871258
78.2104256263263
78.10357722393
78.0722798111137
77.9988687624569
77.8997934172525
77.7639620992738
77.6480152283869
77.5211746529701
77.4011529379772
77.2602939245429
77.1065534135024
76.9207787094678
76.7783760304634
76.6232563766826
76.5157303603366
76.4364931066804
76.3703322568814
76.2759585041424
76.1951236163201
76.1351233738262
76.0519538169757
75.9179160909934
75.8369724867172
75.7143544542403
75.6177078239422
75.4897393097108
75.4038804989576
75.2830899593748
75.1302103585254
74.8576411876932
74.897379377497
75.0218656921245
74.8043509889519
74.5637136270923
74.4589185031823
74.346501274718
74.2646889811533
74.1934634167184
74.0103246726541
73.8648319043163
