1798
3999.43349933624
650.420452594757
1
128
4
98.0300298453196
98.0804288098823
98.1615671057466
98.0908286233076
98.165089406631
98.1960556504912
98.0715026788156
98.0973123692382
98.2184383178355
98.2223021859371
98.1723663835612
98.1107274914323
98.1188353608655
98.1039459240478
98.1020673113755
98.1305103839505
98.1497472713094
98.1613994157675
98.2119738452615
98.1337578042949
98.0688062801239
98.0623493444063
98.0498446946426
98.0622446737784
98.2093445802884
98.262621355224
98.1911172817971
98.0586300473042
98.1570519745241
98.1121501742181
98.0286606172223
98.0767579269575
98.1908900769546
98.1633924424249
98.1360590064663
98.1125104032133
98.1730882252342
98.1454311845637
98.1180194673192
98.1840136490135
98.2173906053504
98.0895254426622
98.1134122560409
98.1482707313042
98.1435340266834
98.1969947798349
98.1961956868819
98.0694175150591
98.1634266686923
98.2563488613645
98.3811321563018
98.3076320927987
98.1677708416981
98.0298469600505
98.0855072119111
98.0274674076993
98.0578713732019
98.112677087337
98.2409250140734
98.3052527493481
98.2668501209089
98.1193388184402
98.0469396877577
98.0924603580726
98.1211568933535
98.138914942606
98.1857728112916
98.3151048231235
98.25085851786
98.1057268709237
98.022051009069
97.8951346622554
97.8466231032333
97.7428091587084
97.6562828062678
97.7837876394061
98.1737136522169
98.2244389433922
98.598077967598
98.4528887599068
97.5377472390446
97.6330402552314
98.0650073295726
98.1155244587486
98.2050096974916
98.3335617197239
98.4725656857459
98.1064194094324
97.7819809071096
97.9841387252063
97.9908016116304
97.7442288030659
97.8519170608748
98.4662534194882
98.7629492412039
98.5468917687379
98.0215617909696
98.072892434308
98.3866175819332
98.4423578300434
98.4391329845763
98.142293431025
98.0389568608724
98.0695090230486
98.1383269005426
97.627255434882
97.879300698271
98.1271783063022
97.7957225994847
97.8640558213413
98.2046386922767
98.0116922113582
97.8769140274568
98.0415989287973
98.3323829787353
98.534924754828
98.3177683000326
97.9798182018723
97.9505713757558
98.0782338593155
98.2004459725075
98.3117715956713
98.4030320287206
98.0561590317905
97.8416033319037
98.0327122014446
98.2989815842711
98.17771586199
97.9777733223734
98.1465754421342
98.3671074163858
98.468842436356
98.3437672592081
98.2337523356867
98.1895618192342
97.9470970406982
97.942854601579
97.9530269877156
97.7822717183955
97.8360700918957
98.121116295903
98.2900708861678
98.1803031534268
97.9371141869875
97.8366579256063
97.8936503451069
98.1167616763223
98.0838659156823
98.0859587857953
98.156320158668
98.0405832083276
97.9833612365781
98.1643226410445
98.1800823179771
98.0680381561533
97.8889450875347
97.8293496474255
97.8382467616009
97.9095396772677
98.0250298916478
98.1338479534234
98.1595369852525
98.1782649239064
98.1885232170193
98.226253049931
98.0966250516977
97.9035674817393
97.7142705466327
97.7128292026809
97.8406809125528
98.0704450555717
98.1713434150384
98.1389330095506
98.0304619817238
98.0676178824901
97.8590826575419
97.5750152085549
97.3936986445515
97.3548545808189
97.3973876174936
97.5565362526969
97.6863420893152
97.674554154171
97.6121991154621
97.6483529453344
97.5882717552573
97.5773017053937
97.3820499893267
97.024790727333
96.9395382853798
96.985414657337
96.9504272954809
96.8433733786434
96.8382244378405
97.000367858767
97.0248317887002
97.0274295832457
97.0252571822558
96.918454071428
96.5254751862663
96.3122652794612
96.2554860494
96.3603160785726
96.3642257925988
96.2283098048334
96.216081706405
96.2269081342112
95.9180509191981
95.79092190027
95.8365962140428
95.7579957646144
95.6534102824613
95.576945430749
95.5348361980454
95.494462459342
95.3475068318059
95.2923142363256
95.2173532007244
95.1621143013161
95.0820887322461
94.9095473062803
94.5522325756935
94.4556614331169
94.6810252239023
94.8109007474955
94.5446499487383
94.3279103365667
94.3509695584326
94.3214687889058
94.2440163961816
94.3124874900559
94.1356123259167
93.8012103171053
93.7108623360525
93.6536369393373
93.3916250728401
93.1812934523654
93.203162406974
93.2839235016628
93.0552429308824
92.9834226105433
93.0488910831098
92.9097657986874
92.5254803960499
92.5335075173883
92.5253440463045
92.3637509420839
92.2045561703956
92.2473779819379
92.2194018487762
92.0882843207968
92.0143764103301
91.8984255918983
91.5938095067676
91.5118911129932
91.4119033417394
91.2023706455634
90.9380288689236
90.7678819004186
90.7852216233848
90.857716512266
90.7737465879604
90.6820503469654
90.4941736968326
90.4186542610797
90.2572890085233
90.1533627175901
89.9417178713569
89.7209306458384
89.6410481784667
89.6487271896641
89.5600948845956
89.4908670519754
89.3174184002526
89.237378766298
89.1623424555858
89.050221232942
88.8845352896027
88.7529691116313
88.6689400801379
88.6316509135458
88.4230895783094
88.3787850201509
88.2940288778911
88.1405256577351
88.008536591968
87.9312735457765
87.7851452696703
87.7134941684767
87.6705314496163
87.5919039622041
87.4624943148146
87.4227457600921
87.2502778358883
87.1095869659561
87.0839338639568
86.9766139139339
86.8259528214004
86.7272109626938
86.5087417898076
86.4736501612379
86.4640601447618
86.3915523199399
86.2706808068562
86.0996958478942
85.9490536738119
85.9637420095197
85.8804003159585
85.8705073345995
85.8799495247559
85.7572817475712
85.5276031096673
85.4585057301637
85.3245348987075
85.2380317940754
85.1651033074696
85.2272534752523
85.0847322443147
84.94133323761
84.8439182985706
84.7812190096343
84.6734684254691
84.6087392400656
84.5492758106883
84.4814906712923
84.412912773395
84.3596842405832
84.2558462621825
84.2679737999062
84.1316682667166
84.0993986261632
84.0324849658032
83.8859813261714
83.7352406649258
83.7641894742055
83.6850824143023
83.665774813093
83.6262634341694
83.5388158325654
83.4038927800963
83.337728707488
83.3269984167966
83.3227899446526
83.1707463608516
83.0904659183534
82.99468588713
82.9615553683205
82.9443451585741
82.9243238656847
82.8860869239684
82.8372767699028
82.781966444332
82.7265598964406
82.745910492687
82.8669669703528
82.7672091928219
82.6118733089265
82.4738371671779
82.4386867466623
82.4413304510637
82.365237225656
82.2832424057827
82.3729707157974
82.3844952187215
82.3238308690409
82.1855156973132
82.1371852571236
82.1538205446522
82.1962187404525
82.1923122406288
82.1093836993378
82.0331845810893
82.0813484412426
81.9677805955803
81.7923541148988
81.7296992100177
81.812759541003
81.757143404585
81.7640030185202
81.7669120353828
81.6810371290266
81.6118723747393
81.6319419760233
81.551822885047
81.554874641615
81.594821069534
81.5821996335521
81.5514140175268
81.5780400939238
81.532082004876
81.4769270414264
81.4281805994464
81.3982109612331
81.3779052702981
81.4875768766913
81.4811190884708
81.4715466377589
81.4131749594627
81.4482010804514
81.4149445125737
81.4489849097232
81.4818349365485
81.4594114313639
81.4484402257647
81.5243080154142
81.4134172538715
81.3518426575388
81.3825208309038
81.3679734083466
81.4572875649503
81.6659153576118
81.6216049013099
81.4950417391461
81.4459556804125
81.4829560808367
81.441238146691
81.4739344735869
81.5560367566757
81.5650748493128
81.400125824258
81.4240378154543
81.5138183123223
81.5893720663871
81.6184073514762
81.5799682290467
81.4706508993241
81.4884892038396
81.6658853688973
81.799969908344
81.7512729386594
81.7435059926476
81.760943829106
81.8000683866296
81.8307012430996
81.885919594673
81.9297897998395
81.964296861477
81.9540610003638
81.9160999526822
81.8589031279098
81.9634833826688
82.0286927721366
82.0899718134774
82.2059331848908
82.3281782960781
82.2907674304642
82.2779187557872
82.3144866419231
82.3821531166464
82.4582489065165
82.6213794479147
82.6714467582858
82.7110890446818
82.7474390555007
82.8003309344342
82.8535191368281
82.8329434691352
82.7287673489015
82.8692434141208
82.9948760679741
83.0440288808793
83.1678797265393
83.1487750783059
83.094568473536
83.1906759399305
83.2474525007716
83.2793873082518
83.3078911816531
83.4332269617698
83.4497783967014
83.5073934150173
83.7085979784056
83.8769004297476
83.9875116714565
84.0227072973899
83.8530637709243
83.8838353209922
84.0069023748506
84.0611223362643
84.0733724950425
84.0490799775892
84.0469556892566
84.0891001018179
84.0902377155176
84.2250905726789
84.3584178903139
84.3927115827836
84.4138597229044
84.4281723945871
84.4352293779211
84.5877189654557
84.6813893079368
84.764510678842
84.8678832438435
84.9701076748164
84.9413720877723
84.8384200857346
84.7784203543992
84.8623791775285
84.9808856127648
85.0661891447903
85.1108233710551
85.148845587893
85.1655118189387
85.2796766701242
85.3155141818193
85.3766922446765
85.4029209431012
85.4527779982408
85.559089337257
85.5761894586517
85.5379682973884
85.6126313373661
85.7410968918957
85.8153283920346
85.7866578712188
85.8470235188445
85.958509646132
85.9649143902142
85.9453671441912
86.0178278717165
86.0653006600866
86.0765281746056
86.0566856787081
86.0158111118353
86.0556115359857
86.129272237023
86.2058865646237
86.2437122911668
86.2218372049898
86.1846753317832
86.1310219119912
86.1612188744914
86.1744120356729
86.1802436965999
86.1852770763741
86.242217756863
86.2721188021095
86.2559247831175
86.2730919207643
86.2351127503277
86.1201329516856
86.0374759794359
85.9520474885472
85.865211483778
85.7210013741445
85.5168801894572
85.3483833768596
85.2285710768441
85.0108588384308
84.8002832375975
84.5736089486097
84.3140221915898
84.0131055410644
83.7150488620741
83.5469031486304
83.3877319134007
83.1851368847074
83.0307766249874
82.9399358068377
82.9626696543678
83.0417870381231
83.1175346870313
83.1625722871712
83.2235341712562
83.2152673687262
83.2234956752505
83.1507387211313
83.0306949014017
82.9113344979818
82.7957172750263
82.7135623192561
82.6845865076951
82.6705580654835
82.7480413163821
82.87711052174
82.9894722929041
83.0926523174452
83.2324074483844
83.3652052897363
83.5503965658456
83.7861049192766
84.0455349123651
84.1998724729046
84.34465237372
84.4836943267044
84.5779173094226
84.7055279734568
84.8296321813037
84.9068403723976
85.0440830836057
85.223015202979
85.3493690975613
85.4258749675268
85.495063738073
85.5490743374217
85.5750450229138
85.6048804393983
85.669680890959
85.6512648133379
85.5848523061662
85.5572806707227
85.4947943716689
85.4944614460511
85.571637101837
85.5324151505919
85.5154416998259
85.5541767883438
85.5966075204567
85.6675102488428
85.8014387331522
85.9411177031876
86.0503381632137
86.16954525458
86.3036289689285
86.3492627871322
86.4113773001266
86.5790114445509
86.7807825095873
86.9634806184045
87.1212884343959
87.1982687095759
87.3934017180273
87.5888738842629
87.677940675844
87.6977764525991
87.7013201972483
87.7330452330772
87.7998011530715
87.8375466252967
87.8649339195704
87.9534793844095
88.0113700227761
88.0337743023651
88.0832547208486
88.1161221408305
88.111935426036
88.15560349789
88.2139884071227
88.2477041005627
88.291939036702
88.3275006485164
88.3445779588053
88.4150536938069
88.5410120601822
88.6535752308245
88.6720513714616
88.659915102046
88.7727380076676
88.9269574686233
89.0459372448865
89.0712422141413
89.0780115890046
89.1605626159985
89.2671315903212
89.388008645441
89.5077309100729
89.6442100815514
89.7677106377942
89.8684714035509
89.94970572013
90.0243594830061
90.1106546827546
90.1619319474468
90.1673687673528
90.233008294689
90.318732141495
90.3718399643085
90.391274084699
90.4114270436307
90.4782443433078
90.5310030910635
90.5477083106668
90.5403022634589
90.5427085783415
90.5506117615163
90.5421459332888
90.5836874852399
90.5955017425379
90.5658269073785
90.5126000790612
90.5209693424349
90.6057472785382
90.683425243497
90.7189077375637
90.7433367388271
90.7038483762968
90.6124639580967
90.5903159586608
90.6106745744026
90.63675342061
90.6598566912997
90.6521853812181
90.6406898175315
90.6470972596247
90.6649175085521
90.6795008871777
90.7374352081891
90.7925582406334
90.8424578059931
90.9223691988823
90.968001735685
90.9792753308999
90.9979526421076
91.0588827030534
91.1552084456158
91.23827134244
91.3190401044949
91.3624901347954
91.4107891896598
91.4560434743878
91.460342440748
91.4360378995844
91.456215763495
91.5043201967412
91.5543432077911
91.5962611383944
91.6385642068715
91.6380019243051
91.6224965870313
91.6271118692538
91.678794952193
91.6924411599954
91.677003967204
91.7538520490531
91.8651395008554
91.8284766707393
91.7861540126668
91.8490099950478
91.9179326430739
91.9590296313074
92.0009225362525
92.0112173873164
92.0006207431426
92.0334794386291
92.0910314542172
92.1069635779474
92.134077434634
92.1483594563591
92.200772118698
92.244741576324
92.2595074296384
92.3078211110185
92.3282134612365
92.2739911071766
92.2975783105478
92.37186095463
92.4333679423253
92.499358031776
92.5724579796483
92.5566995753916
92.5021123752857
92.5230404286557
92.6129667276941
92.6425720720265
92.6459077046156
92.6529595216024
92.6488337833875
92.6523050361887
92.713703826744
92.782570725527
92.8747447461671
92.8562959640104
92.7868580247848
92.7708479949748
92.8253387389588
92.899768010644
92.9242261565401
92.9011987603914
92.8992409522784
92.9168021593139
92.9888543877977
93.0300149619428
93.0695782841279
93.0769030916228
93.0571704992026
93.0275177080421
93.0793236978828
93.1919091150423
93.2337787243412
93.161281040192
93.2184583702076
93.2382758317717
93.2150950926899
93.1465224778738
93.1831760598821
93.3083387844387
93.3100133109235
93.2718595751014
93.3305387107257
93.3035824965994
93.2073200823226
93.2020365932875
93.2826973576765
93.3100374407137
93.3152829052877
93.2659065799789
93.2695548378336
93.2662630217064
93.309176990293
93.4025100799617
93.3800447758041
93.3048662165686
93.3559104177836
93.3797997630086
93.3285804929364
93.3280801902289
93.3580239641767
93.3498825225648
93.3964029522291
93.4417475399429
93.5089602609979
93.5054642845946
93.4726728699136
93.508605549995
93.5661477092124
93.6738871910911
93.8045446015188
93.8020682617585
93.775110994079
93.7193602350387
93.6513945215965
93.7385201807542
93.8840988258673
93.9191192803384
93.9035050081368
93.8633479891723
93.8436894220606
93.8451270298026
93.9492554918221
94.0380512582065
94.0284966947254
94.0664670906181
94.1781828866554
94.2127989208732
94.1836291799524
94.1459667774786
94.1573120266794
94.1659637840299
94.1483101795257
94.2059662627636
94.315222803506
94.3956670786431
94.3885408576533
94.2709448876092
94.2605515026718
94.3470655676766
94.4474177785234
94.4717829514792
94.4246654803964
94.4152860421667
94.4619948391957
94.4589782146188
94.4707090179793
94.4048737240482
94.4215616532994
94.496508365778
94.5022998593279
94.5190796125078
94.5368793076163
94.5100848357287
94.5365368449329
94.5559914338942
94.5224089803193
94.476934009095
94.5130528608423
94.5978598375718
94.6247716533625
94.5999532625369
94.6673659848802
94.7922287117897
94.9255668823498
94.9124633205034
94.8791989397838
94.9889069665659
95.138977004881
95.1029840179206
94.9886888103455
95.0464744452786
95.0938658380219
94.9928001784142
94.9138191436465
94.7543812073574
94.6901666133335
94.7722504773302
94.8503233745631
94.9161204543634
95.0109466180782
95.092437052937
95.0868088257571
95.0147944930663
94.9618345109327
94.9252645255907
94.9326643476033
94.8730867163254
94.8938755340024
95.0411176915288
95.0632129754166
95.0173169481711
94.9810121807887
94.9123291147189
95.0194946291728
95.1068560444816
95.0598334153706
95.0964426128663
95.2008940088641
95.2421054000216
95.2726909303485
95.2766296860774
95.2921653043337
95.2787755236432
95.2982070602061
95.4105100288752
95.4543492258437
95.4390729177546
95.5700911533661
95.5995608475652
95.5559800379738
95.6547937654274
95.7852989098286
95.9739329995223
96.1913869782369
96.0730435526075
95.82648940874
95.8580378943273
96.0838524179274
96.2719360389989
96.3778164045188
96.3417628842932
96.3739865187473
96.4908750430394
96.6240323149894
96.5530440825763
96.5156707123974
96.7105065016797
96.7946537015925
96.7868514080533
96.914633340244
97.0677053545471
97.087912147977
96.8616026866353
97.0219687603445
97.4376707156605
97.4694723136069
97.2556748847895
97.3972174783446
97.5149237671053
97.2649427336022
97.2289157644629
97.4457803894963
97.5475950976575
97.6484001814581
97.7390528952458
97.9907314006893
98.1619949962199
98.2825500357707
98.2197412905949
98.0352752448254
98.1273527800154
98.3406386365773
98.1859001895158
98.2474831180238
98.5415629146143
98.4608508861858
98.3927297453523
98.5954790052671
98.6210675535659
98.9425541867952
99.1575516585793
99.063972775471
99.0954019868639
99.0225429035341
98.8444548097459
99.2133953994391
99.6062528499381
99.5178182707992
99.2108249283157
99.3144378513966
99.7782133200819
99.8854243446739
99.6502419337495
100.04604195193
100.14903984021
99.6486411183227
99.9418916669385
100.832971612381
100.945558250012
101.034703962048
101.324740319157
100.710921712893
99.8656361732405
99.6771041085985
99.5450895769649
99.3415402140339
99.3096028874146
99.2909823000492
98.9904258364767
98.7749267847316
98.4295066152301
98.0815682992342
97.9644599023337
98.0947360411329
98.0978737172449
97.8092911094922
97.640046029086
97.6778719549268
97.5383276289371
97.4230255433865
97.4078413707435
97.3662738402292
97.3687206873644
97.356120916413
97.2941737676555
97.3011886949304
97.3011684223406
97.351451946535
97.3808456324417
97.3948408425401
97.4364193027557
97.5921873210574
97.6496870946455
97.5419925494492
97.4503586837952
97.4715099778976
97.4860268175481
97.4605808128438
97.4741685223434
97.5333593973331
97.5494345867054
97.5584650223459
97.6641985695502
97.7924538237911
97.7817937799634
97.8175325051183
97.8150814194078
97.7498768186817
97.8105588507993
98.0028651658489
97.9684170125847
97.8153544915718
97.8964244209248
98.1525803683205
98.2783881642209
98.342662008614
98.3251556783378
98.4897977802149
98.8303482815936
99.2459773175125
99.5162159866651
99.6558128382901
99.5987910641073
99.5729912240813
99.7279048575155
99.8297175090399
100.141378015668
100.391561150676
100.020301223975
99.70365430783
99.8815294836189
100.052981609261
99.8456503988311
99.7845477566271
99.829845596814
99.7131198513869
99.6331796936237
99.734254750185
99.6060950509895
99.3828617497366
99.3961024742697
99.7108865693212
99.5085893311237
98.926791784236
98.7755491432289
98.8356239629535
98.7789387607869
98.7971289307893
98.8248264455802
98.7114881647065
98.6620392776168
98.9102877517534
99.0732621076102
99.1034938922696
99.0499926751434
99.0512305196909
99.4631871068893
99.9972977777245
99.7599531803551
99.5006962604865
99.3446626986678
98.7916476823193
98.3696529067549
98.3941126058322
98.528496563971
98.4826826000505
98.2957637846389
98.2708697349562
98.0364608429375
97.799292546187
97.7575883306149
97.5023179769049
97.3545435804536
97.4183609406643
97.2933304147985
97.071571467788
96.936938926228
96.8562926817521
96.7708504728477
96.7153729576983
96.6430308230339
96.6519700502276
96.6117968453972
96.4408402986064
96.2903088418064
96.3037667654304
96.3411280245276
96.1865173816542
95.9757011033483
95.902313477827
95.9735376979691
96.0372013090493
96.0922822151787
96.0674646923502
95.9109096993435
95.802278689423
95.7437233839613
95.6981879452525
95.6499126121194
95.6517922996825
95.6719480195187
95.6965819961652
95.6977844502696
95.6197346272943
95.518365282826
95.4887319270086
95.5179147725929
95.5415573489062
95.5239882085076
95.4888635332633
95.4180984095134
95.4031309308062
95.5003354208712
95.5223260567166
95.4238107803191
95.3570549522202
95.3366943869546
95.3158364998159
95.2965651205203
95.3120089079674
95.3183027158584
95.2600641964214
95.1958699006281
95.1734071616483
95.2036835673666
95.2451512785758
95.1714298822716
95.1122569393077
95.1386505304107
95.1200257389069
95.0626082666074
95.0290356641304
95.0322244386509
95.0025997142635
94.9777720476932
94.9797589635779
94.9426947321874
94.9119616535215
94.9055143523303
94.8884821660971
94.8926615485111
94.8527733078494
94.8001181540871
94.7744443705387
94.7826415815772
94.7882637581256
94.7504046705268
94.689312911051
94.6366001783616
94.6355370442368
94.6224001111413
94.5449614732627
94.5356081872
94.5627469981365
94.5336622782677
94.4738723746214
94.3967221486284
94.3106514995045
94.2558858210692
94.1684566577312
94.0704118020045
93.9623436907571
93.8549185287022
93.7605070786132
93.7039352189391
93.6505042666971
93.6131799892112
93.4977300953031
93.4179711631548
93.3736828628697
93.3266410534577
93.3328750984429
93.296490644085
93.1728596991195
93.0301528144187
92.8491253276802
92.7273257111055
92.6445187701734
92.3787040381866
92.0281413035569
91.7885891622199
91.6184410461978
91.4149700436075
91.1735755368313
90.9806657871899
90.7746211624078
90.5676510926766
90.2271738988346
89.8797130043652
89.7675559794506
89.6461047407474
89.5229527010969
89.3819813170031
89.2040890453098
88.989135851625
88.713763828984
88.2550420691287
87.7872717369379
87.4889055483497
87.2624690912301
87.0434130357791
86.7162150564439
86.3344071199094
85.8570681376332
85.4366299975777
84.8878869501207
84.0095917617256
83.510716895077
82.8530491284419
82.2724098663661
81.9747169900439
81.5310954549853
81.0294014899089
80.4894548554829
79.5906414288828
78.8231775385599
78.6270363877894
78.356031728722
78.0694344502073
77.6002327857959
77.1803185128786
76.9069037357156
76.5191943563513
76.2189007361649
76.1526585008886
75.9587833612934
75.5654420718937
75.3658466326491
75.2821359629127
75.0991357006497
74.732142539128
73.8789962704186
73.6702723852233
73.7277161278564
73.2996934714471
72.7745310045853
72.5688631083379
72.3240887292456
71.9644142156356
71.5073295296368
70.6812852994473
69.8417216536054
69.5340716906872
69.1492732368289
68.4767575705479
67.6997958999549
67.0240267983992
66.1707640616831
65.4369162637133
64.9010138431796
63.9968890660171
62.8213016882791
62.1868996088713
61.5905905853772
60.7893393726397
59.9412688486048
59.1392941130786
58.3850586619445
57.6295432349128
56.9215332054036
56.2446086551269
55.5964879365402
54.9635825625956
54.3255861243141
53.7302474674693
53.1483194784053
52.5932572566284
52.1099475414406
51.6731413431671
51.248268514463
50.8939790458155
50.5706609958961
49.7889474952513
49.1184601465243
49.228158198092
49.1298779276027
48.683914315936
48.8050469625802
49.3384088382933
49.9978173219802
50.7506937563155
51.1303806452405
51.9238293269072
53.6648298164655
55.3086343234235
56.7650810966401
58.1294764198899
59.5072118133489
60.8137707849885
61.9814233032831
62.9524806888715
63.778013461908
65.0801999779847
66.5296319024415
67.3168209400259
67.8193098889558
68.553952131758
69.2168388626999
69.6093867259121
69.9951297224727
70.368016678011
70.5753273403586
70.7978750657085
71.2136698252264
71.3701333306457
71.5463089640409
71.7477604974924
71.7314423711554
71.5384481505335
71.0654943856675
70.8349098943191
71.1861788322791
71.1881034363176
70.7645763528154
70.1734279067889
69.5834824154574
69.2426261633849
68.9608884814097
68.3335100086592
67.6422294347168
67.182996064339
66.7728201702998
66.343036259883
65.7820043926214
65.2248770388398
64.6462202790123
63.9134639395832
63.1407048779127
62.2342560362057
61.7232720361572
61.4461528432873
60.8883975892286
60.1066126282428
59.5369100763352
59.1993704203157
58.5811395603369
57.3986256597303
56.6039973344875
56.570623652305
56.2642109844677
55.7847539771908
55.1560891730518
54.5598551222326
54.1041618581035
53.5850765455579
53.0634124399298
52.5363505450624
51.6182647558073
51.0345016324969
51.0044742656597
50.691815486729
50.1971438754957
49.9363063912642
49.7620097860808
49.4725228939266
49.3035628684021
48.9389536158092
48.3026141225089
48.0633399788415
47.7795484200873
47.3469386382979
46.9684775339643
46.8105972873937
46.8233177040192
46.8482214935845
47.0090304308263
47.3441458494932
47.5163454543935
47.7110486678574
48.0744312770592
48.4181783820784
48.9171300315581
49.4148107826503
49.6644861786118
49.8451243392035
50.1673316967407
50.4552830754019
50.6511506978519
50.7946412635285
50.8810072149235
50.9090692978564
50.8622805954185
50.9251911783721
50.9228140612925
50.7668416077244
50.5725450350613
50.3442724468005
50.0898182575764
50.0141042532599
50.0366239668064
50.0248633341892
50.0576779300032
50.2258105033736
50.4816643951828
50.8112484740393
51.2248857845823
51.6908908560335
52.1654324634752
52.6259916461758
53.0554629576992
53.5888268411537
54.1939525238597
54.7661445162292
55.2938388115366
55.8232657101712
56.3247205437136
56.7135570412144
57.0148270194757
57.3391530075566
57.6735228441027
57.9673119037445
58.2083699276524
58.354382919016
58.4266038443043
58.5989149213978
58.9091233104668
59.2424077796433
59.5216870879513
59.8083937889559
60.1093135174569
60.4223630125716
60.759062398572
61.0997010392768
61.4537420843752
61.8578940785493
62.2641426865337
62.6696317943132
63.1041793529902
63.5596051432715
63.9918135409531
64.3959876723153
64.796579831421
65.1780463772395
65.5139960341247
65.838154966048
66.1215816952727
66.3979864011849
66.690541251111
66.9401218826113
67.1398968973403
67.3210455117016
67.504478057144
67.7130160593142
67.893082693453
68.0470043354459
68.2174043087773
68.3790334166409
68.5301967577006
68.6818223083845
68.826803643026
68.9459573362639
69.0436784796498
69.1854236095766
69.3454182414654
69.4969463927321
69.6552544213004
69.8206226073327
69.9960623671177
70.1655308103961
70.3177636491055
70.4612884668939
70.6045112605959
70.7472497602416
70.876295574667
71.0437180573945
71.2350972303746
71.4178403409247
71.6124085197412
71.8243424486967
72.0269877692683
72.20648108664
72.3769634165906
72.5270664971383
72.6505760231515
72.7749363487626
72.9202074722153
73.0642436437379
73.1951075238061
73.34583299315
73.5032084779688
73.6580154690417
73.7870276301787
73.8820141214339
73.9532675020696
73.9676531822984
73.9355431300174
73.8891534885282
73.78920332169
73.6490489613892
73.4969416518905
73.3432677877262
73.2187145738222
73.1207777896128
73.0141441562312
72.8807423314497
72.6762545938527
72.4145070169336
72.1337428149558
71.8372525878718
71.5432711207921
71.25256558427
70.9578123853789
70.617775636703
70.2187581539853
69.8544004988601
69.5123687801589
69.2068412733463
68.9607107935601
68.7421367126534
68.5511609282729
68.3767595530941
68.1909935131597
68.0229623469912
67.8661089298186
67.7141577633291
67.560036690586
67.3970577403745
67.243820379509
67.109001607722
66.991952650972
66.9025319036004
66.8307450036312
66.7587948608212
66.6852885677056
66.6393226708374
66.5698465807314
66.5068280512068
66.4625088284452
66.3920321590406
66.2798489980128
66.1042520987146
65.905667774978
65.698632975631
65.4682334788004
65.2466489482761
65.0115617943947
64.7676046232163
64.5213189838787
64.2855034588903
64.0245977061953
63.7598826153723
63.5297121449389
63.3204007934436
63.0981405099398
62.8912263649395
62.7330482387005
62.6058966712484
62.439704204525
62.254404735663
62.0847206644982
61.9346151866109
61.7770127053867
61.6334283453623
61.5190535944998
61.4777153166632
61.4718706660257
61.504427249921
61.6153808302883
61.7978345754914
62.0043867279737
62.2487865336281
62.5015640321475
62.7631383828076
63.0285506628299
63.2949860516017
63.5112693104796
63.6580863921766
63.7581127162764
63.804058743398
63.8232914465319
63.8289628711754
63.8122553521664
63.8417231229286
63.9060547696966
64.0537710735726
64.2822622557592
64.554733801743
64.8970698901816
65.2712947579731
65.5845053399466
65.884148762242
66.1675097004755
66.3646233802652
66.5136527226283
66.6467198303844
66.7191799988462
66.7821631675298
66.8398189196419
66.9063765312644
67.0212868277736
67.1929335818118
67.399607980774
67.6581678215024
67.931846931229
68.226869656667
68.5703310311978
68.9261879327063
69.2938731860646
69.6725858757756
70.0240993666034
70.358519807181
70.6737327118342
71.0195609907737
71.3665120273011
71.700503922184
71.9705931180122
72.1587642819394
72.3410305043102
72.509107861919
72.6552565171893
72.7798504875662
72.8368420274417
72.8716318820589
72.9281875486994
72.9933849389035
73.032423311206
73.0119988473156
72.9192839109003
72.8118376165784
72.7091065516974
72.5945175972834
72.5189077622031
72.585440307252
72.7701828002463
73.0738172454203
73.4217625097383
73.7575116166656
74.0783649207268
74.3611570642256
74.6077755205234
74.8353043888325
75.0532129887087
75.2694545966229
75.456853846152
75.5958931151014
75.6751662987367
75.745561801283
75.8086312454551
75.8067288218226
75.757447972775
75.6039008458099
75.100967696744
73.9242895926585
71.9882326016839
69.5673057196421
67.3338250235281
66.3438864017045
67.1266643585417
69.0516849333214
70.741237633171
71.6188306543655
71.9269413584237
72.0074035759942
72.1110442509638
72.3129413515478
72.5582037379433
72.7449378742283
72.7481047232249
72.5556890136368
72.1654386562208
71.5253965193934
70.7895942200664
70.1335266388387
69.5074549726761
68.767319653033
67.9438146843801
67.1856433212444
66.5092396485045
65.7890993769133
65.003888581696
64.3867781268359
64.2805181018643
65.0020488019065
66.3658904144346
67.8549033738764
69.0379016027063
69.8362092423553
70.367084362072
70.7270751597384
70.9915866113828
71.2315192288974
71.4581933052018
71.5998636094278
71.6924340793829
71.8238146296492
71.9249716028103
71.9830489052318
72.0507405229939
72.1037087680037
72.0753056554321
72.0078844636616
71.9248514209318
71.8493418562262
71.7544633594524
71.5886163165727
71.3826996285241
71.2276635132438
71.1100813012461
71.0080834848288
70.8606483421232
70.6833232429185
70.3867122700843
69.9533028032476
69.4111554766091
68.6634446615886
67.6901339409243
66.9041472050644
66.7514176888929
67.1288504917203
67.6829183704855
68.242283680055
68.7750414128307
69.2225337633622
69.5439319823099
69.8291603461291
70.0715562149452
70.2662680011364
70.4469649006644
70.5982289220731
70.7103548899741
70.7813806426062
70.7995361296635
70.805225758425
70.7542071822562
70.7021539571346
70.6380299818555
70.6123315212213
70.612131833439
70.6144420726713
70.6051235388525
70.5987313436192
70.5265331524845
70.4375572047702
70.3302650565085
70.217900269485
70.0004867828266
69.582444926227
68.9468812808132
67.9913686818908
66.7039323800508
65.2909581297708
63.9952616374269
63.2441834662294
63.117272767071
63.2442294682591
63.2633104890611
63.2241221348975
62.916423804018
62.3220955298715
61.7013056579382
61.0990911480604
60.5798136047273
60.2849789583933
60.0975113658466
60.0137225054768
59.9809613695977
60.1003919183281
60.308426916851
60.56158220259
60.7972996328347
61.379029613731
61.7659162602674
61.7351065174938
61.5527480253583
61.2490227739544
60.8337762425412
60.2966843828135
59.7071405836978
59.2581456341385
58.9148284349982
