1798
3999.43349933624
650.420452594757
1
128
4
99.8949194300658
99.8741705798819
99.9521586291807
99.9520148292159
99.9755305138521
99.9486860648998
99.9321247581519
99.977221698227
99.9685799293481
99.7925355806406
99.865150927583
99.9377867061522
99.9559449445479
99.8679869803019
99.8301094876642
99.9016217843245
99.9657399611886
99.8701476221525
99.8687063953807
99.9309163518495
99.9564923692708
99.8645165089265
99.8600076364109
99.8468161169802
99.8691333508791
99.8836325953793
99.8845140059286
99.7891260831716
99.8088980379246
99.8746731176598
99.9295784742726
99.8926224397508
99.9021661872736
99.8473653029755
99.8139243462819
99.6963719657485
99.683054493147
99.8087393708183
99.8431283635565
99.7505007199092
99.7173243125484
99.7201626602249
99.7738521488038
99.7712932538159
99.8031456538246
99.7950478710848
99.7765860099505
99.8104033604329
99.8483885063788
99.7053299249303
99.6307062926207
99.7117318110442
99.7620590205176
99.6765857867066
99.7311289555637
99.7696418641033
99.7956458912177
99.7694529807421
99.860147961779
99.927828920605
99.8663611334162
99.7676022102533
99.684168966341
99.5604348396662
99.6270283007094
99.792197036804
99.8365778935051
99.7419268972852
99.7221536654669
99.6834381253682
99.7982850666862
99.6647279195116
99.5294553258374
99.6205930826689
99.7215616155402
99.7512229937013
99.8034977399037
99.6356175178585
99.6182131461391
99.820290699991
99.800973477522
99.7242968445379
99.682343606892
99.6317290166766
99.6973036001647
99.6927057507106
99.735449142792
99.8124786872901
99.8086216627624
99.7911294989853
99.7561055832578
99.6679774864261
99.5862655323631
99.5461118555543
99.588966434576
99.616714839102
99.8094366975742
99.7733202547435
99.7046321984917
99.7428559521752
99.67780210465
99.6091893084833
99.7341133612564
99.7500616902196
99.7967099954825
99.7555040566563
99.802597127586
99.8521178674205
99.6863032760576
99.4940456796235
99.5684901318568
99.7490307926016
99.6993572407124
99.5706954129887
99.7067022891766
99.6580040220631
99.6087695856817
99.7482025804692
99.8321664068584
99.599684316515
99.5475926038107
99.9062193048775
100.247789291588
100.156443479277
99.7239854106659
99.345877491698
99.5403165067306
99.9614417515782
100.116817952064
99.8751484473254
99.7230399530738
99.7515274426052
99.2656004369541
98.9765612658327
98.9427473367388
98.7943067835666
99.26090293269
99.6516406303834
100.136522441112
100.138124404371
99.3171310782261
98.9806137540788
99.2620127555437
99.8437524971642
100.039409740854
99.6475212121448
99.488494944466
99.1483055485016
98.863471971512
99.3003235833886
99.9152799574753
99.621560385257
99.2972544696521
99.429624432477
99.7589592205421
99.8988048993576
99.7614900466769
99.8711500315831
99.709464646527
99.4108804104534
99.3906808764158
99.5954890348205
99.8180774025303
99.8592683186341
99.8918250361234
99.5351241610601
99.1055292681537
99.427656439654
99.6795126987635
99.5236939591259
99.4059933861097
99.2967660790773
99.3106131047822
99.2433036571321
99.4122036195897
99.3141419401609
99.0083786247003
98.896579097443
99.0378030058478
98.9861504216715
99.0445229232901
99.056130527272
98.9551980583007
98.8394655691064
98.8906142147158
99.1191859686608
99.0495995730556
98.8125132183933
98.5783189122972
98.58763854384
98.6792987592729
98.5362227870415
98.5053878822913
98.4698874695084
98.4462867232649
98.4272299991825
98.5054576693527
98.3762516302462
98.253116185046
98.1865058865572
98.2256787221059
98.1809142429941
97.9455721593142
97.766810760918
97.7848636088771
97.7937644381837
97.7466770822183
97.472684024445
97.3463585145016
97.3149816278135
97.3175665957282
97.3303431880829
97.2006735357906
97.1782899140669
97.1622060831281
97.0570146475051
96.8773136044004
96.7758328244252
96.888385812406
96.7051428505311
96.3565770488038
96.1519575968337
96.1635405035544
96.281036126464
96.3225654369486
96.1977508204191
96.0483928655763
95.8955290039201
95.8576303664016
95.9473140019101
95.7754103859868
95.3651157024551
95.2285131671712
95.2109663208697
95.2417399569675
95.1183137978469
94.9163972219449
94.7790861354708
94.888290789372
94.7847640693691
94.6354246195258
94.3726179120968
94.2972528760133
94.3549014016825
94.2623605894503
94.0179925020172
93.9354178406613
93.8740372692274
93.8129441392258
93.633574765987
93.4459697422502
93.3313656944519
93.2414060267349
93.2947266970881
93.2314847307194
92.8944035453503
92.8264045743333
92.7258780679263
92.5555624493491
92.5006838144673
92.3293324456288
92.1075005432074
92.090690478868
92.0519041458729
91.9764308712367
91.7795714348063
91.6389097008477
91.4073726342305
91.3588469529084
91.3483759792553
91.2151263136698
91.0497692569122
90.9174438510885
90.7532518390472
90.7208029344406
90.5958315807301
90.3910696607888
90.2266096695325
90.2079497109897
90.1414041316575
90.0623578161991
89.9231416692117
89.8328336936206
89.7464815361453
89.628837483797
89.4881783364402
89.3792964670025
89.1760522206837
89.0782296558161
88.9155672592563
88.7446119295216
88.7286401414265
88.6970920517192
88.5387406647853
88.4543706332125
88.3541892784837
88.3535900026128
88.1977117531571
88.0351862790377
87.9328884723208
87.940796289136
87.753053366015
87.5958557876937
87.6638373352968
87.5878942286883
87.4140982026074
87.3066644069227
87.2068752557178
87.2210929596593
87.1603256862836
87.0774305496564
86.8953318115716
86.6534710178611
86.6149230998843
86.6260876104769
86.4758534479033
86.3614969938274
86.2360621567571
86.1274530947848
86.048150997438
85.992613624066
85.8183652612961
85.7708070519541
85.7943109026898
85.7647111620566
85.6323093902155
85.5183787671107
85.438405401628
85.4157441788128
85.2936274675174
85.198726767969
85.1303547698324
85.0837728269051
84.9290869052942
84.8552480585034
84.8341968839805
84.8555995319004
84.7484002366334
84.6082010154133
84.5163033080851
84.5180687186068
84.3830335237569
84.3140905609618
84.3088200532509
84.2828607459531
84.1397142112272
84.127233166583
84.1045205739164
84.0076208081793
83.8783935751557
83.7932017140784
83.7484791758633
83.9182445595613
83.8361739216015
83.7118076331992
83.6744223423153
83.6440068527096
83.5688986206392
83.4876713796672
83.4510657532634
83.4573185562105
83.3401134593422
83.3227572944036
83.2953098637531
83.2700485941577
83.2282804240615
83.1613963128504
83.0082782577662
82.9709334978127
82.9727729633355
82.9952098817861
83.0018693226243
82.9608684397748
82.8378749619588
82.8605249858446
82.84362525138
82.7366281669522
82.6238096951059
82.7466371464268
82.765029592084
82.6186976993917
82.5485584386337
82.5550581940426
82.5132438637068
82.4618186386447
82.3590051179916
82.4162823347205
82.4811946726427
82.4591386727599
82.3521231398697
82.3967960712061
82.3518549565551
82.3011635179914
82.3506717381154
82.3508250010271
82.2567840660152
82.235045617997
82.2014924830848
82.2629815073937
82.2307765928978
82.2403733841052
82.2535833535529
82.2942447642233
82.2860165888022
82.1874872796653
82.0809729145623
82.1230832846367
82.1623487972501
82.2555522598954
82.3679375392832
82.3994136479452
82.2889380508437
82.2613341695963
82.2312413201124
82.1809659047619
82.1971844814265
82.3309873669919
82.3653188523781
82.3483107488333
82.3421219435718
82.3642454899575
82.2812401059732
82.3241326183215
82.3138743202677
82.3399420914509
82.3234814303026
82.3456951457688
82.4465313527498
82.4945941141182
82.4885981257826
82.4431328956638
82.4040131695597
82.5171394189484
82.5882551149423
82.5910010287206
82.5777745763607
82.5844646042593
82.5890425349511
82.6650931796948
82.699376426014
82.7833489895309
82.789711989734
82.815042983821
82.9520934463852
83.0149503818303
83.0394674696205
83.1071240114518
83.0581670739508
83.0410942557465
83.1082543062174
83.1776813886873
83.2673289298823
83.3960629485337
83.4594789453324
83.5348551239194
83.6002097214611
83.5781329357577
83.5835560445551
83.6672981333868
83.6509277063822
83.7792605393211
83.9363735248233
83.9131968205182
83.8383718449081
83.908485047985
83.9745023974137
83.9702528416669
83.9791165728284
84.0233876022021
84.0706631136629
84.1277663344373
84.2091011968953
84.4844195378996
84.6729326169493
84.6723948252799
84.6175624350602
84.5428067444072
84.62322512293
84.7203386145646
84.7005394889237
84.6682508434582
84.7648171855583
84.9374769186143
84.9662150320486
85.0004436223614
84.9388513727288
84.882637615045
84.9900721439579
85.1740258666394
85.184665946683
85.2096930015715
85.3130433668233
85.3952874153878
85.5239893097923
85.6054392524802
85.5654520204561
85.5850704001931
85.5264206074108
85.5388389288466
85.6527380696772
85.7798282228606
85.8446907012343
85.8275660024806
85.8233963419957
85.8792940454539
85.8718008461055
85.922960590731
86.0466637570372
86.1402611889172
86.2054723064496
86.2408812374791
86.3229778294405
86.4479633825461
86.4793511262857
86.4974952345592
86.5154556053956
86.5537577664428
86.5944989304245
86.6098673451184
86.6006373210643
86.6051693539183
86.5673690007355
86.5747300388632
86.6504443886455
86.6680222153134
86.647522581784
86.6908319797237
86.7534381996984
86.826383232596
86.8448403554405
86.8306656100522
86.7631720936049
86.7387700390001
86.7444767185918
86.7495712060248
86.7066287003532
86.7695729623303
86.8723938103898
86.8946286726171
86.8934633638233
86.8637879922234
86.7595379995532
86.6228538132871
86.4762949821973
86.4041351658074
86.3163673662437
86.156020664205
85.9563509747803
85.8326916152449
85.6352656340995
85.3630057944711
85.0768619412956
84.7695248194989
84.5741028005619
84.3677573841337
84.1255362097509
83.9384848361623
83.6738614842011
83.5389463696124
83.5125871657986
83.3984019370256
83.3288455039352
83.4462367767348
83.4721356867859
83.535276695607
83.6514022616703
83.6331570237638
83.551194450686
83.3939013942801
83.2481643835364
83.1614449895858
83.0168214013537
82.9597179750718
82.985868547174
83.0196404251723
83.0017478261222
83.0849645175248
83.2289938052663
83.3584603898803
83.4951105604537
83.7659342894788
84.0520134589248
84.3155142784328
84.4959700735115
84.5753657698597
84.6372642836254
84.7958752104136
85.0051216176976
85.1454388996591
85.2104010990178
85.330630860724
85.4955341174163
85.6490413980541
85.7810548311822
85.8390206076928
85.8556691816261
85.8917647205246
85.9825724738877
86.0288092780621
86.0263265568789
86.0098443026694
85.9023594120992
85.7602327544825
85.7819697307738
85.8652073310382
85.8478413190078
85.8579503927558
85.9433752449836
86.0095549437735
86.0102107459492
86.0516422124529
86.187256312543
86.34689698852
86.4482066486889
86.4888575038205
86.5371022817855
86.6847897484575
86.9063162560748
87.0797347045162
87.2286759983334
87.3277077413783
87.4787125520847
87.71336125114
87.8726193829535
87.9425327214708
87.9911136891415
88.0315872614534
88.1119214969351
88.1749709575576
88.2085305870258
88.272363739241
88.2981310987132
88.3063459548142
88.3618702108267
88.3648965609162
88.380322850649
88.474122129142
88.5552547187071
88.6198317981009
88.6441715737672
88.5964170316578
88.6102501099118
88.6401667446735
88.7074774725436
88.8502360112305
88.9067313712132
88.9693878476465
89.0692323603018
89.0999112765228
89.2121531946681
89.3248434397769
89.3312077258187
89.416088952507
89.5488115111075
89.6068406215225
89.7051039655313
89.8456029096886
89.9766382609357
90.0774055349829
90.16833993659
90.2708594738173
90.3650634756495
90.3924979426953
90.4269171220253
90.468243453362
90.5039213974417
90.5307654097855
90.6304856138035
90.7140852002609
90.7363935283762
90.7381384255064
90.81432281487
90.8884693337036
90.9197024331872
90.8728000716765
90.8447712298306
90.8563655232852
90.8489642064736
90.8541967176218
90.892557588105
90.8857986161017
90.8698689078784
90.9130820726136
90.9814259926737
90.9823872106006
90.9392595230202
90.8923864197888
90.8960266120612
90.9009695012835
90.9205912190625
90.9224959565211
90.9624421889556
91.0280778883538
91.0147401234454
90.9244972558693
90.9200086232802
90.9926839043128
91.0198596101998
91.0022672224344
91.0157325931752
91.0411152537227
91.128092590825
91.2109483975486
91.2772776421305
91.3376689181304
91.3881505089525
91.3834156653028
91.4533197829739
91.5649554639507
91.6568501247813
91.7133150947585
91.6925711765609
91.6850350760753
91.7436780022603
91.7760869736334
91.7866906380065
91.7957510324062
91.8198668749894
91.8122097193473
91.8257775971109
91.8494338129671
91.8403732053666
91.8565238602578
91.9131397658542
91.9445795574545
91.9606630979092
91.9500036362999
91.9778998614631
92.0182865913883
92.0389754063956
92.0680146490766
92.1641146127244
92.2007772086975
92.1597167971981
92.1702149369276
92.2732534412006
92.3276153197173
92.3473541658317
92.4509661395913
92.4441168294024
92.3729855192174
92.4340581578849
92.4761534280142
92.4630809337386
92.422557973535
92.5572310829516
92.6587957332906
92.6298719246786
92.6533920940673
92.6828949958548
92.6857451611056
92.7443251939277
92.7752882100502
92.7515600581966
92.7048835978605
92.7807093431212
92.8753373460449
92.8421063222944
92.8287062108564
92.8703360407538
92.8418497277717
92.8950416656125
92.9545628631867
93.0156913233899
93.0883233480664
93.0991532550159
93.0489368549893
93.1764785734801
93.3274875372547
93.3146456547687
93.2219429849233
93.2496278452474
93.2476337721973
93.2518395794654
93.226515535104
93.3114584995552
93.3745515984263
93.3836646242699
93.3958339500772
93.4215968462182
93.3598238873871
93.3968057348353
93.4123790373799
93.4468500759106
93.5415566111674
93.5562895571392
93.4641279061867
93.4478553238139
93.407201090535
93.4405530045171
93.3787160806627
93.3851500828334
93.390570671875
93.4174663512018
93.4908671073995
93.5425736718797
93.5293214807001
93.5683331094813
93.5515671925686
93.5383799728831
93.5931059103755
93.6514665066862
93.5476181090904
93.4604440085562
93.4663608981034
93.544198433164
93.6149277900561
93.630849332065
93.5322394094999
93.5557537998317
93.6867509030232
93.7115094218518
93.7652255509699
93.8599993400161
93.7923777322138
93.8424378404902
93.8761479385792
93.8317827886618
93.8694850976231
94.0173168405896
94.0452862153048
93.998152897615
93.8700018195769
93.9048103097477
94.0878142620298
94.1488100842118
94.1020035452148
94.1911553245909
94.2146924357197
94.2213322804125
94.2919920546906
94.3047681735365
94.286395613025
94.3510853741025
94.307792330524
94.2589650894819
94.3163015895183
94.413448483215
94.3877562126845
94.3188887041192
94.3317349842962
94.3962897919722
94.5013656390234
94.5758801103977
94.547979029279
94.5841607793306
94.5378321163621
94.4975951307959
94.5042697903969
94.5470709701544
94.6911584724666
94.7594629621772
94.6766555219993
94.6513924157326
94.6617714645787
94.672400041458
94.5990415579375
94.6628615835558
94.7395289632757
94.7486340362647
94.7241271743527
94.7483249240052
94.746337673158
94.7287627416363
94.7107958076942
94.771868359126
94.7956708892651
94.802243443757
94.8204340908964
94.8599189170501
94.8593340073402
94.9103373530457
94.9694747116792
95.0255702416867
95.1003255020152
95.2368971869066
95.2947217207107
95.2763035444315
95.2793631000623
95.3268758971921
95.2325022392089
95.1756032897552
95.130379883722
95.1070279208811
95.119726658286
95.0808287255886
94.994857661679
94.9796603733095
94.9642184231177
95.0429138198871
95.1173879315985
95.144027615131
95.1336384476032
95.1671415425826
95.1555770150421
95.1714574351347
95.1741465766606
95.0950290393753
94.9080779570603
94.8880099927679
95.0152108801316
95.0810763139969
95.084778846672
95.1340865087571
95.1277454605927
95.1666331958062
95.246765343333
95.3406086347131
95.3963599368864
95.3970987509947
95.355986715624
95.4057475155365
95.4818319984372
95.4851657913377
95.5225632633173
95.6048650609993
95.5111239437198
95.4377709347667
95.5344897112611
95.7170349276391
95.8733511705866
95.9767911093005
95.9960486907333
96.1833746136768
96.3274709983176
96.3368609416932
96.3467350773024
96.4683753918052
96.5608294129387
96.6444519695248
96.7105876186353
96.7983996031322
96.8216891375941
96.9226573677828
96.8785749132048
96.8254648826789
96.9730435907862
97.2636520443572
97.1662063438882
97.014686895084
97.1517360579568
97.3542045804429
97.4353335220413
97.5068515769227
97.3086423045714
97.4725922587937
97.7743695595844
97.7016893649296
97.6728406886652
97.8065640576512
97.8871332607019
98.1360197465182
98.4165826624187
98.5833000157848
98.4244640351353
98.2006774499123
97.9596045042472
97.9828658155043
98.1794066029486
98.4795192774072
98.5990864941254
98.6268314130143
98.6119122375688
98.6350029023732
98.8187408961111
99.0563143955038
99.0405289627993
98.9835958147915
99.1070517331321
99.3838111908652
99.283134447202
99.4318637564876
99.478727554091
99.778918059638
100.031268053538
99.9314969563893
100.088801262648
100.222621324769
99.8278267743041
99.8684319332506
100.006491476164
100.247421989467
100.569387194424
100.906880223094
100.85749295105
100.99447171269
101.200832994997
101.436380989104
101.488781756524
101.756493510407
101.317197614617
100.657573405303
100.109283795996
99.7129098415201
99.6345011296811
99.7053721015254
99.515200920702
99.2532293313496
98.8713517413703
98.585758575685
98.3875763049598
98.5151217662963
98.52001332764
98.3987140855575
98.2250022342437
98.057436382922
97.8923997016523
97.8145810003282
97.6522047619103
97.5319940382962
97.4679880197121
97.5622506848906
97.6633154362195
97.8926836900479
97.9120170485132
97.6676033944968
97.4738705768077
97.597080102965
97.6245106819579
97.5623122019317
97.6451320613589
97.7272233408244
97.5913456176631
97.5241222937166
97.5897281883455
97.7679093264793
97.7086601496413
97.5183264743113
97.5208049641037
97.7351256664279
97.8338663952749
97.9801106259317
97.978697274723
97.9278305276868
97.9783680070488
98.0163016956281
97.9743862285192
98.0344757885752
98.2092363406216
98.4744733846647
98.3926840703081
98.1469518853127
98.1607428869482
98.4903377528526
98.6429017863619
98.8059624573796
98.9734224818236
99.3486406272774
99.709546094309
99.8451010581007
99.8920093275585
100.012965058931
99.8513506896996
99.6928598203044
99.9911273331554
100.561531537628
100.729762181538
100.79091268224
100.704747552588
100.692938606147
100.769612167024
100.65397913458
100.256551629209
100.271240362052
100.073327450631
99.7734015955127
99.7861503825582
100.043963999459
100.006089976784
99.7544241605473
99.4502101205745
99.3843251266769
99.3320890276961
99.1538231930818
98.9333063615006
98.9820493198352
98.8626022906844
98.9183514358941
99.2564388820073
99.3114942615761
98.9209543786298
98.9633846715414
99.2235402979042
99.4518788629802
99.8018238916436
100.291205401973
100.117102296794
99.6633786398138
99.5120606757477
99.9347094017076
99.795668336661
99.0397695633539
98.6782837157985
98.6696067663102
98.5503235646456
98.4153520779605
98.2598135751832
98.1669756497008
97.8910403915576
97.6489824673898
97.6368237416688
97.7395129723166
97.4217759796867
97.2018840998368
97.1894332638671
97.0982734511346
96.9833136492775
96.9201698708
96.7982810855871
96.6214483845815
96.5302987049111
96.5320694884367
96.444756206371
96.4395269257345
96.3881270730656
96.2686544875346
96.1997861605486
96.1747228450092
96.1038338045362
96.0968330331712
96.0781733851772
96.0710700292855
96.0043338335908
96.0200710762126
96.0745200986579
96.0189621104996
95.8558266891823
95.8160001302919
95.8388474906787
95.8525449928909
95.777408418221
95.7221069080471
95.6861444556974
95.6840393712907
95.6889970786283
95.708588970779
95.6373604156562
95.585117944722
95.5807491969793
95.5194631522436
95.5190401306848
95.6222844041889
95.5890479397189
95.449449400281
95.329564005118
95.3246439748059
95.3490172109944
95.375867083682
95.3576743219214
95.3258942330425
95.2920962168329
95.3484831381778
95.3777999774003
95.3808489326977
95.3428987581522
95.3053145329867
95.237523149624
95.0891175556559
95.0940811376377
95.1728509672737
95.1617876873535
95.1224872117424
95.0869267455355
95.0438958432925
94.9799707221013
94.9987393900715
95.0218209813255
94.9580601881342
94.9611877555228
94.9776261745164
94.9236497881922
94.8337366077611
94.8026606692917
94.8238802792956
94.797617478952
94.7487659081039
94.7254926010721
94.7178162164489
94.6799611012808
94.6083428731801
94.5521887600772
94.5472022670382
94.5277284818987
94.4745390001708
94.3664130121093
94.2902489635402
94.3219895993337
94.2933340835919
94.1978473214184
94.0842716659719
94.0008734598803
93.9006457226421
93.8246667757187
93.732337878598
93.6457620798698
93.4778804757977
93.4282361194345
93.5013633728043
93.4720118403255
93.4616442462266
93.3801954754556
93.2165062400342
93.0888152594038
92.9706826587612
92.7881424412275
92.6463829716648
92.3581300647052
92.0318461671632
91.8104612603434
91.6284667150796
91.3862023835464
91.1224761735404
90.8791651020255
90.6287044167879
90.4694613816768
90.1657377188319
89.7928612122908
89.7552974858168
89.6174083742309
89.4796942685616
89.3160213067733
89.0893086721833
88.8036928503873
88.5459804233702
88.1035712923007
87.6683581475435
87.4241640189936
87.2124172841891
86.9347629683435
86.5572979686474
86.1203192893327
85.6141686115833
85.2031359517982
84.6566203619903
83.722913954935
83.3684995267009
82.7501146813974
82.1730828362404
81.8585584651512
81.2690443616496
80.654761592122
80.1251997412738
79.2977920920717
78.593865544221
78.4316491372744
78.1101958209082
77.7509070138432
77.1760913294472
76.7797959454769
76.5352933080382
76.1212398234961
75.8520867041788
75.7700001944752
75.5322869364798
75.1467741843616
74.9186763603431
74.7521294525053
74.5128269258135
74.1067608660504
73.2348800499411
73.1481826244314
73.2868298341548
72.8296589308125
72.2849592677205
72.0655959340624
71.7559897441294
71.2651511669222
70.7310663566026
69.9115599844465
69.1143541374229
68.8489996962662
68.4335278464516
67.7002907859375
66.896508266109
66.1766299551417
65.2680080476639
64.4914308767093
63.9145609555387
62.9950193754846
61.8287731269402
61.1894937778983
60.5475840881654
59.6816498778667
58.7779320987673
57.9213245345062
57.1255930165763
56.3347760349064
55.5578112175073
54.819914087958
54.1282341496104
53.4125926375191
52.7366364475415
52.1296651256682
51.5221164538848
50.9356081369415
50.4183720935123
49.9334165129403
49.4686044933087
49.0156036828455
48.6020617026672
47.8616484817641
47.3119388558678
47.3553473089303
47.1379235620917
46.6973282590411
46.8084725593765
47.2275928118972
47.7965817248629
48.3781500695137
48.6315358218009
49.8686780081685
51.9072745766737
53.5364940117194
54.9892646908819
56.3662322289644
57.8246984628082
59.1903950382301
60.3192486368228
61.3299788039933
62.1922588286623
63.6339851826359
65.3275939740346
66.2161058972775
66.6635705346551
67.4016330584982
68.0963042760668
68.4757660473952
68.843892675269
69.2487802733314
69.4857387030079
69.7511652914805
70.2685082927207
70.4526427114052
70.6228204065366
70.7776208324939
70.7338057940819
70.5620925714865
70.151166491604
70.083237479471
70.4826815276688
70.4319385490784
69.9395605656349
69.3085523437324
68.7426959232633
68.4187150878614
68.1043277248444
67.4396240589039
66.7876758432973
66.4178897566129
66.031782514244
65.5355849715615
64.919588327683
64.3192564781958
63.6753864167732
62.9278932203903
62.1938518068464
61.3751226522283
60.892270221222
60.5009292177844
59.8228812186866
59.0036729683521
58.4341216727539
58.0126234513104
57.3108665860184
56.275699324207
55.6795066453885
55.576299685126
55.1360321730116
54.5730427850703
53.9328211207693
53.3811238408254
52.9068634640609
52.3171906608835
51.6803332868976
51.0591875499249
50.2215197080241
49.7522606675457
49.5771907487621
49.1252763100717
48.6047311734789
48.28406098386
48.0181259894465
47.6799048241916
47.4580986520759
47.1253219871163
46.6918097972423
46.4902378651075
46.1092067186257
45.5940534260634
45.1600589455166
44.9620317201856
44.9443150437696
45.0298895793376
45.2623295283336
45.5559112683094
45.7332706692877
46.0099073023793
46.38988084167
46.8240250674024
47.413663860596
47.9026283846473
48.16661512431
48.4445965723251
48.8665891524663
49.1748394321441
49.3671642684631
49.5492869881427
49.6689642118678
49.6912831500242
49.6838776121623
49.7655438751119
49.725894242567
49.551598801782
49.3590807054162
49.0984384432165
48.8354603294902
48.7569532055175
48.7330667758842
48.7038099409323
48.7148539679436
48.8646102716173
49.1224135641457
49.4746026457476
49.904087643361
50.3833369853585
50.8756801263416
51.3238257724489
51.7566470303485
52.3248736748553
52.9585692491599
53.5605432754768
54.1092060398566
54.6507185191271
55.1585087634673
55.5695877129536
55.9119375043807
56.2630100298414
56.6090701294673
56.9084833684838
57.1662869639185
57.3400257149646
57.4111023629228
57.5731649467993
57.8723067014538
58.2109661004136
58.5263509349237
58.8219946276104
59.116804480013
59.4111587808571
59.7244336254572
60.0887592960464
60.4814208646577
60.8724038171743
61.2715794764241
61.715116007047
62.1553632445484
62.5861070461579
63.021826429674
63.4434443885964
63.850273972361
64.2582210903315
64.6230567531374
64.9580958165887
65.2746317874065
65.5571691532938
65.8203931401496
66.0752255713945
66.301025863884
66.4964421943273
66.6700565465885
66.8431801336869
67.0351949422687
67.2246798431308
67.4126585489114
67.5938156551808
67.7463142748603
67.8912856167921
68.0336595402439
68.1590136381904
68.2709214601016
68.4009418029948
68.554208885278
68.7243296417601
68.8795528984526
69.0381598539866
69.2209356095642
69.4014986013489
69.5547242998854
69.6983094185101
69.8449627051524
69.9942377083911
70.1327869312652
70.2997737936638
70.4941756657402
70.6728884045145
70.8583754564735
71.079382731235
71.296940708432
71.4719051180467
71.6244026200214
71.7775229781969
71.9229183775104
72.0672194399687
72.1997817221884
72.3431297193855
72.4901552623536
72.6272250476974
72.7828658075908
72.9541986264865
73.0956721376345
73.2058294220524
73.2880060315912
73.3360086716963
73.3296055529621
73.279624374415
73.1815966992718
73.0423367214519
72.8791244676083
72.7461124995137
72.6320847226012
72.5156249912087
72.4086155163623
72.2800690837192
72.0865868690344
71.8253862192693
71.5273363037078
71.2343107759525
70.9446055096546
70.6577081420165
70.35098683174
69.9923688605979
69.6019127611716
69.2053491318464
68.8284446909239
68.5254464855352
68.2366944247376
67.9912763423009
67.7912298529664
67.5993029143547
67.4029067624277
67.2166543962459
67.042849037966
66.8729570652358
66.6896099044916
66.5105355550977
66.3357865911241
66.2005466371148
66.1020391989419
66.0092418177483
65.9303192504752
65.8552919156628
65.7513096340685
65.670125375307
65.6286812525169
65.5849699916137
65.5195016299232
65.4234853262699
65.3009738877724
65.1509611541348
64.96127867247
64.7350306420696
64.5015565250821
64.2748882610368
64.0302816977859
63.7744536808228
63.5112707106616
63.2387827517301
62.9595879812838
62.6898306850325
62.4343414248138
62.1962355857531
61.9610912854244
61.749393795189
61.545931224679
61.3640058661662
61.1850001378346
60.9878542135934
60.8067650590263
60.6542174596631
60.5014462801066
60.3653851087488
60.2415302114077
60.1802882904401
60.1829391439634
60.2366314811972
60.3181122498542
60.4771734560033
60.6774471388158
60.8906889659095
61.1313521906451
61.393031553031
61.6321890732596
61.8593466019467
62.0757456704204
62.2614054900325
62.3801081974201
62.424022983003
62.4252283937039
62.4214488484026
62.4038530429061
62.4202481550739
62.4950172353284
62.6174524691123
62.8119974884557
63.1062969681867
63.4291367606885
63.7796211904994
64.1390294687033
64.4710513797432
64.7357277112243
64.9503899997178
65.1133291340286
65.2308957723876
65.3114849281833
65.3794008234237
65.4319846659443
65.5132562031229
65.6193713930584
65.7514515199477
65.9459208687594
66.1875235409372
66.4888786410587
66.8300047275482
67.1658734447331
67.5255327517881
67.8963982831536
68.2837590634013
68.6745526387609
69.021137029362
69.3402832522851
69.691662916808
70.0626490236778
70.404711916972
70.6798081402128
70.9131356884445
71.1124113049408
71.2931168176196
71.4521194462598
71.5820329742433
71.65562583166
71.6894896630621
71.7304267410397
71.7890176096397
71.8186932822752
71.8157112285284
71.7501192757536
71.658912877794
71.5501799269166
71.4297619991398
71.3680614600396
71.4201925903714
71.6082707532067
71.926779459353
72.3077594805521
72.6602198636728
72.9665983913745
73.2681625461227
73.5494494184661
73.7863148104537
74.0168192566129
74.2679176602575
74.4610444336758
74.5604351843783
74.650811433931
74.764116829598
74.8521494398617
74.9137614546266
74.9087406964658
74.7746051923697
74.28937485734
73.1572038426239
71.2763137775535
68.9198667181286
66.6958379803388
65.6131248913117
66.3266614380871
68.2471822111743
69.9979486464146
70.9404236389337
71.2663531408132
71.4046386661543
71.5715784262047
71.7883553208089
72.0513548352197
72.2550085153114
72.2828986720747
72.0657706593035
71.5995068687469
70.9438897110679
70.1961755654722
69.4946506619015
68.7898261691545
68.0095107270424
67.1630707811023
66.3668077510512
65.6325801220268
64.8559776395367
63.9683979484802
63.2273604378661
62.9934802018824
63.5758175679114
64.9068503417968
66.4708593219833
67.7389216955981
68.6153840511298
69.2025170513255
69.6358259669221
69.9607660348046
70.2090889238851
70.4245491045231
70.6401001133424
70.8282071338823
70.946558048863
71.0239695522717
71.10595654971
71.1388003649785
71.1686510262935
71.1571633799325
71.0983470826291
71.0528799013717
70.9589889111649
70.8069060674721
70.6697012632807
70.5022062013218
70.3395746409725
70.1854646576582
70.0669091482095
69.9253153102468
69.7140731020921
69.4133366689537
68.9947212327819
68.4250998386599
67.6350038666322
66.5828299680563
65.7007298645485
65.4730673603685
65.8684900787603
66.4647529693057
67.0368938951213
67.5922294737872
68.1298412478046
68.5611537116162
68.8777552883545
69.1005403926118
69.3116821735422
69.5106361153471
69.6542504529802
69.7652186359525
69.8889777315387
69.9314888878892
69.9387478744476
69.8973241654858
69.8509526925905
69.8118272734313
69.7791535533567
69.7292489660332
69.7243856508427
69.7071819930713
69.689796833338
69.6396550511542
69.580785053733
69.5312988838067
69.4192500867027
69.1361429283196
68.6678044105344
67.9535738091539
66.9690081486355
65.6504157703204
64.163126968093
62.7614527260634
61.9888518800785
61.9010553980164
61.9888479804956
62.0010640758143
61.9298718516808
61.6851911145946
61.1715436240832
60.4360412453573
59.7494464731124
59.2141440635087
58.862893436381
58.6435740209616
58.5566696026259
58.5297386204533
58.6600491257105
58.8926825521393
59.172475485237
59.3565964828149
60.0867459710325
60.5930912283172
60.5303227323656
60.367199934623
60.0775131453966
59.6441914084282
59.0839263902048
58.42009161087
57.9222613099354
57.533391198222
