1798
3999.43349933624
650.420452594757
1
128
4
93.386976588678
93.4650718841286
93.5343446261294
93.7116126663012
93.6049276381829
93.5354353102971
93.5581073464136
93.5230861213598
93.5214106454268
93.534987889921
93.3999272304793
93.412955815519
93.6725076334573
93.8258677665126
93.6339385150375
93.6282737821949
93.7637572303166
93.7502951372549
93.6001763870686
93.5214975459951
93.3886621704653
93.4472208899208
93.5427515951787
93.6323990688868
93.7124912947042
93.6167278623935
93.3971311481443
93.3444483542812
93.5022853172243
93.6927940676524
93.6699929200068
93.5694458495939
93.7115722667567
93.66658870311
93.576158631153
93.6091427653275
93.5214490260003
93.5610089885143
93.7399505461085
93.7188269112525
93.5230809593236
93.6759044407446
93.6938504330141
93.5201451270545
93.4782830268135
93.3650406649089
93.464278910327
93.6791379558094
93.6784348011769
93.7185978334962
93.5848378150566
93.4360643533675
93.5418529203523
93.6118947815393
93.5623903367546
93.6437374429817
93.7262204797131
93.7128704586797
93.7019069940911
93.7484856546579
93.7518859807832
93.6743372252283
93.7079044973503
93.729718043769
93.6403406963254
93.7166987707474
93.8506736798592
93.7013429182498
93.62252687264
93.6915393574949
93.6704831459798
93.7044114366195
93.7558487507053
93.7859045273223
93.8052645041657
93.7585848108293
93.7470151509326
93.8100718223046
93.8230250946453
93.7496113745767
93.8682247151476
93.9405159322214
93.8101259900998
93.7707151083373
93.7845736465522
93.7753465225496
93.7453203338002
93.7055935219739
93.6883019078855
93.8734327914942
93.9525920965023
93.8139900934525
93.8267015150166
93.8757568748796
93.8089326814945
93.7907816280954
93.7951924265972
93.8419438753667
94.0050788074052
94.0178096402854
93.9999453754429
94.0460815664553
93.9291703581872
93.7684614725857
93.7977082032006
93.9639540979694
93.9100906740408
93.9483121563683
94.0987318896398
94.1543147161614
94.1322700885758
94.0361513668239
94.0168821613194
94.0327777896244
94.0683706552935
94.151498912391
94.1030302230802
93.9638170998239
93.993935933855
94.1328686580554
94.1166761527585
94.0328515603405
94.0103144056964
94.0262021068755
94.0552593044699
94.1525433910791
94.2547210973725
94.231249955633
94.1745901196876
94.0770587130374
94.0599240337606
94.0934970307937
94.0222078873474
93.9880389084296
94.0115320754102
93.9593263987039
94.0643125613048
94.2766280881819
94.2160470802624
94.07498394738
94.1069054754551
94.1623449735191
94.1002430621209
94.2168564228308
94.2387739369867
94.142359161869
94.1908756779969
94.1108896882371
94.0656523170585
94.2126080943274
94.3920775032746
94.401666235061
94.2542538785374
94.1882509534055
94.3677033547422
94.4631396366726
94.3531145965688
94.3509123018295
94.3118866835506
94.2066703599645
94.2592774297482
94.3536816849536
94.4402451282634
94.4232300501174
94.3390192562894
94.2749012076203
94.1967490169758
94.2258369135213
94.3392927733231
94.3946250022201
94.4085914645575
94.2757969589481
94.0483935394359
94.0822956634639
94.0945586770304
93.9952293286846
94.0942557671067
94.0984397222155
94.0835976199054
94.1383659376492
94.1520835751311
94.0790211308085
94.0348846031026
94.0362457854612
93.9288763113177
93.7788315090675
93.7257126395256
93.7539293027565
93.7418261590741
93.6961526910127
93.6786853825414
93.6479553433674
93.5731549336065
93.5051244429141
93.4200015000891
93.4573781820061
93.441572857144
93.285293632787
93.0910054006213
92.8689393894999
92.7686259890549
92.9497926536096
92.9399634995439
92.8304951214158
92.7165676220168
92.6903485722023
92.6152118339982
92.4780805935146
92.3880039630827
92.2489134003051
92.2087955002426
92.1762124701278
92.1005493723327
92.0951542030788
92.0172006141944
91.867082952188
91.7315413026304
91.5979664140099
91.5020161031688
91.3943139022324
91.2490340437984
91.1621530778673
91.0820872412637
91.1325166074047
91.1758167270509
90.9432692656378
90.7918004211079
90.8564661431072
90.7891797438949
90.643617305413
90.5160331217409
90.3554429162593
90.168305719867
90.1040449875431
90.1115293262543
90.0955704233998
90.0802967344361
89.9100413764366
89.7369482539874
89.7013316761879
89.7141459671339
89.5729244733179
89.3939315168268
89.3309889575223
89.2146122001328
89.0356718764813
89.0616200160221
89.0565182648031
88.9207001310069
88.8262808669542
88.7032784191369
88.5789460575421
88.4074160867459
88.1975791422062
88.1527154395049
88.1046357230722
88.0312552642242
87.9564616811903
87.8419914115782
87.7337711579892
87.5845900446317
87.4767663887873
87.4871929344086
87.4353854396132
87.3063218153038
87.2010044738286
87.1259372176504
87.0652214946634
86.9803814979642
86.7861634586654
86.7317786532857
86.7786295989146
86.6306998037394
86.4540553479447
86.4440443584603
86.3670841669947
86.1490833676941
86.0105387681231
86.0301471119824
86.006649904732
85.7705356491199
85.6042923095355
85.5812027975134
85.6319939297102
85.5895387105634
85.3995863709132
85.2378571179591
85.1486656955553
85.0327385027046
84.9307473337134
84.9638543635077
84.9495812899797
84.7820422883537
84.6278062036828
84.4351453808204
84.3371184282219
84.3830603359493
84.2844501155246
84.2093455341955
84.1831232823626
84.0503823036439
84.012999558944
83.9208202819081
83.7456362968482
83.6321424810798
83.512603055795
83.4561659717271
83.3905198517932
83.2283421012375
83.1630092088048
83.1595412749654
83.1582744167862
83.1195395204921
82.9396941208335
82.798866505183
82.7433249122397
82.6927861510401
82.6425462407366
82.567454815735
82.4402641666822
82.3576445913908
82.3460916604256
82.2163051052722
82.1172640802056
82.1699411968116
82.0906902084485
81.9707622940637
81.9696392025851
81.9025233944675
81.782173444673
81.7114360063669
81.6259388081216
81.525279175909
81.4359772649451
81.3499180088455
81.2931496863531
81.2888819197573
81.252066052923
81.2412691497178
81.2344301278785
81.1541053729459
81.0682937736891
81.0054541561551
80.9040888815798
80.8629634135201
80.8547318875739
80.8466177196504
80.7791929337036
80.6928604361824
80.6328594333937
80.5402840625532
80.5115650140576
80.5497470260412
80.5509200042488
80.5057908780921
80.4383224018753
80.390357292606
80.3647296127508
80.3080981420522
80.2635721422712
80.2871478658931
80.2341413137144
80.1253830549696
80.0656845562706
80.0322595721881
80.0057382104913
80.0227905252691
80.0043017103608
79.9604774098094
79.9466310504407
80.0646277457397
80.1366166291868
79.970500533585
79.7999439324325
79.785863455466
79.8413121445547
79.8800055745672
79.8526541113885
79.7828498968234
79.6765503435164
79.6359671900391
79.64869392697
79.6880651740853
79.652357971594
79.5676983119299
79.6216070966179
79.695069989118
79.6025013567659
79.5296952804812
79.6198384623143
79.6167195530164
79.5409893332247
79.5577712450501
79.5913028326731
79.5762208431256
79.5423165285434
79.4935681832348
79.4288019472754
79.4867658164296
79.5776345286084
79.6325101116808
79.7187554839744
79.702903758375
79.6492196809514
79.6769391672754
79.7403786513811
79.7559065977786
79.7331424573882
79.7284292057896
79.7393675200095
79.7747495851262
79.852230753482
79.8647639113561
79.7861694784502
79.8078177061519
79.9127527826739
79.9570700545424
79.9813597352679
80.017633744965
79.9830034958209
80.0006839780061
80.0266411375987
80.0158583702215
80.1233335584595
80.2229374182854
80.2483676714772
80.2554383491754
80.2977792528267
80.3967884157478
80.4330807313574
80.3474998612973
80.4046755879542
80.4906016528942
80.4607338805811
80.49964716244
80.5978031520952
80.6460768413248
80.6958990294042
80.7963374077688
80.8177882971398
80.7785732418304
80.8797019488852
81.0109508972761
81.0425193920959
81.0918491947389
81.2431032341922
81.3455631261678
81.287717432682
81.221941197357
81.3312297218627
81.5022785142283
81.5991045006469
81.678875408243
81.7560607169132
81.7755804905901
81.8122169593299
81.8976649322943
81.9415210554352
81.9888270851948
82.1118612509067
82.182463777216
82.2327691751239
82.3090315133131
82.3016423732708
82.2751664405447
82.4122712970881
82.5263699802771
82.5660907604885
82.6425927871767
82.7504355154739
82.8257299277426
82.8609317521673
82.8995709077273
83.0061626079352
83.1019956403768
83.0492568205982
82.9882600299106
83.0909457185063
83.2079382690461
83.179516578962
83.1919011086546
83.3173934977499
83.3657533883781
83.4029329632973
83.4511699926827
83.4600080057792
83.4975354022784
83.5397046909612
83.5163621183763
83.5415372415561
83.5951708143962
83.6817483115372
83.7484573113347
83.8044744249493
83.8664030486315
83.8717712486058
83.8512196224331
83.879156243148
83.9614778455716
84.0163178089307
84.0725384154182
84.1324177716434
84.1167714031705
84.1022403318507
84.1375584327239
84.2016515559665
84.249957433878
84.3607913271267
84.5027582157417
84.5268731320901
84.4477395709638
84.4578209731404
84.5813969690681
84.6851512646307
84.730706881272
84.8030979261029
84.846476086215
84.8514680348462
84.881485807993
84.9278763780642
84.9332828245556
84.9805649009878
85.0772259795098
85.1028695742916
85.1184846285946
85.20407591787
85.2594992809325
85.3234051592259
85.4043382062403
85.4306604969585
85.4295652853662
85.4788446627432
85.5208975648093
85.548541525575
85.5586725472154
85.5329143872998
85.5513785285653
85.6363225437324
85.6293339567354
85.6257597856544
85.6876458412688
85.6559291477319
85.556876054631
85.5034370953298
85.5210611780056
85.5314812598919
85.4836890154593
85.4736755989686
85.4307298881395
85.4175380866701
85.4036283873294
85.2948428532342
85.2722641943843
85.3400864057371
85.2901405235699
85.214006584788
85.171841770468
85.1442412394475
85.1257848902074
85.1402445300477
85.1372841374292
85.1250610844372
85.0805675470803
84.9989052463879
85.0004125521559
85.0812831391354
85.0756552596106
84.9864549718911
84.8830861611449
84.8086339325686
84.7456075573085
84.6960703276419
84.7027069145823
84.6864959107196
84.6474216577216
84.7001429323391
84.7508387952464
84.7545541155749
84.7803489744347
84.8333681218717
84.8510346975471
84.8396755482314
84.8819965540756
84.981208773047
85.0891843061512
85.1967412535646
85.2350412659601
85.3163811942437
85.357629335568
85.3703915384696
85.4732530958646
85.5726673343473
85.6554816547032
85.7077229111314
85.7049645510807
85.7604207498614
85.8073619295198
85.785850143378
85.7839580739963
85.8677648799265
85.8949174637848
85.941558934911
85.9805422148857
85.9897276671955
86.031534380338
86.0628233505423
86.0913223130491
86.120395619839
86.1456085856289
86.243796216081
86.352698675281
86.3787432670697
86.3742615518102
86.4344313560088
86.479346103317
86.4853590899599
86.5021333935622
86.5633222217056
86.6219815191661
86.6764633393368
86.7299210037386
86.7820780638199
86.9037314912441
87.0497981114091
87.1150459049177
87.1427399451916
87.1606737389046
87.2156786180356
87.2882767401219
87.338442251858
87.3544649897102
87.4346042115234
87.5273017811467
87.5393249027038
87.5922716949201
87.7189665349534
87.7423819292337
87.7061121948429
87.7446050825171
87.7935945306887
87.836691813605
87.9082561984918
87.9094247301716
87.8902682394332
87.9136752340139
88.0067966966461
88.0903254598424
88.1057601906515
88.1272184393012
88.1720853401758
88.1811416208362
88.2014435879932
88.2566464323216
88.2966566356174
88.2707654378622
88.2990391068234
88.4000725446582
88.4241759400381
88.3956628276615
88.4246662233734
88.4686879326369
88.5335617102273
88.5734492394534
88.5944252813207
88.600732572355
88.609397075069
88.6205437734204
88.6274757859668
88.6777701697212
88.7305052731382
88.7168363752575
88.7336658954177
88.8216517392021
88.8876928043097
88.8496022560428
88.8396394750865
88.8845947646067
88.921203836576
88.9164313069936
88.8996663575016
88.9102966224326
88.9174250046142
88.9237037234218
88.99157451439
89.0463068352018
89.0665794962662
89.0694455005858
89.0711004026638
89.0975857272102
89.1218373957014
89.1172798057854
89.1901405151562
89.2727939044207
89.2664061488578
89.2416664747628
89.2419178170665
89.2183787906683
89.2172572031882
89.26777974825
89.339081857457
89.371582617854
89.3646366812394
89.4026461906765
89.4762721582795
89.4627696138301
89.3980128727374
89.3968405579663
89.4785799189936
89.5447944438152
89.5594951172548
89.5233352412496
89.5455132532345
89.5950190892677
89.5903708174281
89.606239669209
89.6189665040798
89.5952998544874
89.6070085818542
89.621676010665
89.6312089394337
89.6575376959358
89.6862841767014
89.6943705808194
89.7089172683045
89.7258674424729
89.7461123526191
89.7563655929136
89.7911264230355
89.851171308447
89.8701065375819
89.8088135386532
89.8029107202222
89.9132727808477
89.9976798708056
90.0149274296463
90.078242830382
90.1202172295589
90.1196021067561
90.1351907507753
90.157418980213
90.1481404851133
90.1991770118992
90.2618142207019
90.255029896346
90.2603673994913
90.3348179043584
90.3729445494532
90.348726230382
90.3314511786675
90.4061442435492
90.4499054742066
90.4494511968961
90.5269031364093
90.5904673697682
90.5848782492651
90.6082629954837
90.6493795217665
90.6568954038714
90.6448447539256
90.6824107492439
90.7208580160647
90.7789263449978
90.8679729956815
90.922725029013
90.9169574693644
90.914060162706
90.8802913120207
90.9128843558624
90.9649561528551
90.9946061940743
90.9635770670396
90.9412234124338
90.9698929175356
90.9950536820492
91.0221402575656
91.0692110780211
91.1125441923305
91.088934508522
91.1120612990865
91.1557551197669
91.1648025509109
91.2262010625596
91.2523908720534
91.2412159892724
91.2031007002059
91.1973944417787
91.1932900359567
91.1158356393349
91.0991667797389
91.216440923752
91.3080079126793
91.3323921396963
91.3000097916603
91.2817024820927
91.3739521558254
91.4623778983146
91.3786986897977
91.3153363036822
91.3986280296158
91.5020344920259
91.5161293414255
91.5249807137994
91.5640506032602
91.5228522258776
91.4506769910913
91.4507596077125
91.4659561402533
91.4944899001064
91.514411543526
91.5395057153754
91.5874071050217
91.6081070433863
91.5340557185769
91.5703984259058
91.6457660205803
91.6068476367551
91.5634402857492
91.5386573918573
91.5550092448671
91.5578267322863
91.5283249016746
91.618085468037
91.7170144556712
91.6684928927786
91.5974519197677
91.6139541215733
91.6519379800429
91.6780370523328
91.6540826955267
91.6297616074611
91.6464367627772
91.7160859620357
91.8120626664944
91.83201211366
91.7582408063805
91.7888488386597
91.8452548437591
91.8197304371944
91.7774951270651
91.7786034431789
91.8121511014769
91.8093152629241
91.8289612817508
91.8856490363645
91.8627573712926
91.7796363524398
91.7947539299181
91.8395889817911
91.830369663919
91.8927236261842
91.9461226198436
91.9263600646413
91.8887496195964
91.8403324125881
91.8416002851952
91.871910090713
91.8783977917942
91.8507933583244
91.8465757609074
91.9681364547731
92.01617182442
91.9062767910641
91.8050279256498
91.8294519157804
91.9259551711747
91.9400118750975
91.8983845071599
91.9134098044365
91.9332789886516
91.9335105001549
91.9109740494814
91.8444971556146
91.8446286286825
91.8964449240963
91.8513781140448
91.8937650485941
91.9998219265125
91.9755157324111
91.9399498979658
91.9830864541927
92.0171466579447
92.1122173007825
92.1751551926824
92.1382962982687
92.1036643941018
92.0805625535826
91.9735262533692
91.8662376264861
91.8864572344528
91.9405675818318
91.9594497873349
91.9669002164589
91.9796193712695
91.9899098553296
91.9649009980374
91.9652364961917
92.0406935431644
92.0361438140345
91.9211082702334
91.8385386225948
91.8640205363099
91.927090465068
91.9178980867152
91.9206977621223
91.9998864570939
92.0484782762349
92.0357602734622
92.0284332011988
92.0512866394045
92.1118852291417
92.1488080298816
92.1107579123567
92.1498653105907
92.2538326690379
92.2690753870462
92.2708736852573
92.3310283965795
92.3606118665744
92.3291157422669
92.3360876455741
92.3737238563129
92.4380664046803
92.4871622938456
92.5610182454531
92.7574642996849
92.9537807915879
93.0127820666092
92.9309216875207
92.8953902088995
93.0359528506565
93.1972704846281
93.2425698194581
93.1841986847952
93.196468612355
93.2002040008083
93.3270975295883
93.4813099841614
93.4826574877203
93.5692822596858
93.7106619332168
93.7665770507769
93.6512494097362
93.6343722978554
93.831016074762
93.9284750065044
93.8853958063621
93.8146573067812
93.8468603831676
94.0117588823784
94.0531835775772
93.9997753898981
94.076464301651
94.2773306423394
94.3174635321315
94.3797615394611
94.5595472335982
94.4096096388728
94.1329998936017
94.155036796129
94.3815275755843
94.5448816966252
94.8056944366752
94.9635406242707
94.9812629049031
95.0732970908918
95.1756256281679
95.251332338542
95.0922321501627
94.8958762976335
95.0218820251743
95.1877113119337
95.3047586754499
95.5809321007943
95.6304282302643
95.6016371057558
95.6412566611938
95.6553796841041
95.9129450033427
96.1240861885939
96.1731642624223
96.0541024661159
95.9121853712706
96.0897491053694
96.5703342191375
96.9787052867689
97.1324296886157
97.0759017558419
97.3677145338365
97.7929805467344
97.2793160606388
96.2347346242481
95.9926882926109
96.3349520849759
96.1205713787872
95.8183843968605
95.7974656948908
95.5457906783129
95.2964436022631
95.3585308929089
95.4278541210442
95.131007116669
94.8426191226387
94.7529291543527
94.6072213780324
94.400416624757
94.3253814491504
94.1868324441575
93.893509166677
93.8239602018374
93.9216711562409
94.0761082774319
94.0877523121511
94.0426070170668
94.101850704521
94.1175642778177
94.0904796071591
94.067833264362
93.9752963537924
93.9200194968851
93.8485301354941
94.0021938402788
94.2007854328175
94.1345887053686
94.101493933749
94.1324660210854
94.1217945126994
94.0940171325422
94.1050057188246
94.2625922199386
94.4854337273421
94.5186098590627
94.4209058552929
94.3308627601614
94.3697191459888
94.665794554016
94.8467399658728
94.6619163948481
94.4799960945038
94.677426579078
94.8951060131532
94.9604452790497
95.0932256280342
95.1538838359303
95.1300408776315
95.2562301234392
95.3716122632366
95.4120259472765
95.7332965351181
96.2138124199843
96.51482275041
96.7310340212824
96.7217640936646
96.7736862399101
97.0066358577665
97.0879318201275
96.7980573058776
96.7436426220285
97.2003551376415
97.4654138569854
97.2933543208913
97.2069507373302
97.255177303697
97.2793648502344
97.1877419154801
97.1606278256584
97.161831790446
97.1502389778286
97.1552873506055
96.9835010046967
96.9121370094407
96.7973381393313
96.3332807415455
96.3677752679838
96.6468857635262
96.6119363283243
96.4427186163742
96.5116188820332
96.5064270809446
96.2659061652263
96.3624500492049
96.3788728614937
96.2503550144092
96.4284209924483
96.5251807843476
96.8420159313432
97.3596276795234
97.3175619377748
97.2418312773822
97.2916789206268
96.9558155923007
96.615692295698
96.4604681192461
96.4999250729987
96.5452281957221
96.51244835012
96.4591703881786
96.2747481289787
95.9862802216775
95.6906105398845
95.5342148547357
95.6439818928508
95.7877950848145
95.6539407066167
95.3797774052651
95.4593321284209
95.4437252264272
95.073361366933
94.8536996697877
95.0242773182997
95.124375931214
95.0544873273541
94.9269643145004
94.8557923370154
94.8325827698985
94.8598659792877
94.8117937569738
94.730006558815
94.7212413453088
94.7367593059332
94.7197845880508
94.7162945558839
94.7937982682874
94.802052284477
94.6607254755095
94.4957287440464
94.4873472006287
94.6367241530675
94.5982630621621
94.5061793231158
94.5229062278569
94.5629658225422
94.5697787935254
94.5456223959576
94.5729479569706
94.5449871048595
94.4579612071725
94.4014824774083
94.361606311125
94.3526707558654
94.4519538368614
94.4997184192174
94.4120098501676
94.376309387821
94.3528493487926
94.3108361002883
94.3357285171166
94.3356577820138
94.4025034054517
94.4641600534235
94.3718922365714
94.3273709806571
94.4083253763389
94.4574094945453
94.4437334962098
94.3939259684862
94.3716916013775
94.3456496098076
94.4047072945478
94.4283190083105
94.394779703737
94.4094879676429
94.4135199818404
94.4056609089373
94.3663683294225
94.3479590862048
94.433814631641
94.4165688505062
94.3968156650074
94.4664781707019
94.4450200504834
94.4438753313428
94.4647438686812
94.4753531003732
94.4329194802272
94.380079803171
94.3877009917388
94.4521170364755
94.4391800879551
94.3687599485577
94.295973659431
94.2838584508011
94.3227961417605
94.3138733104742
94.2269309452946
94.1522089115389
94.2459147094484
94.327984278462
94.2558632167706
94.167657156492
94.1429771081145
94.1536073401315
94.1547128371927
94.1176012439727
93.9804264002735
93.834189572518
93.7416562569114
93.8305776672384
93.7618485370408
93.717106264935
93.6632788425483
93.5323867783363
93.4676450359195
93.4138190751733
93.2796931541786
93.2266352732794
93.035647484281
92.7505864482648
92.6468243456945
92.5471003534382
92.3915613533007
92.2194578624064
91.9839833071979
91.7319082755301
91.6004148433196
91.4740964492526
91.0363753304121
90.8562152758183
90.8437965905857
90.7310877732102
90.6194035057413
90.404141201633
90.2059323358862
90.0409978959826
89.7622650907722
89.455504936136
89.4611854719563
89.4852380759477
89.463280164246
89.3478853833933
89.1210683285614
88.8802604058535
88.6601418183249
88.4558705764984
88.0191153764328
87.6900401832997
87.5698834622754
87.2115793711677
87.021447009361
86.6677300480401
86.2137142427739
85.7507295607892
85.2038439651735
84.5511874775059
84.3489834482602
84.1271341156414
83.6531174073896
83.107393076536
82.4810765968376
82.0965129016737
81.5926103788022
80.998164136858
80.6198437693359
80.2419498621848
79.658852892135
79.1305257112759
78.7851734054627
78.3376701294206
77.7417164809651
76.9466117207639
76.3332825745647
76.5630119741106
76.3575261776408
75.8433424435423
75.6634302573357
75.6136934611027
75.3537869877271
75.0205073941703
74.640635754278
74.2743676143589
74.4075835997629
74.6024149193043
74.4620930220618
74.2755762288315
74.1941996812618
74.130668184663
74.133024158519
74.2844840103525
74.1781533483847
73.9473913010289
74.0760225107527
74.2864380224651
74.1910951102979
74.0981408851171
74.0670903592144
74.0584158468387
73.9931116038486
73.9262153869667
73.8976100231031
73.8997968007417
73.8508776751033
73.8242947446718
73.8827273394576
73.957814553559
74.0256130403128
74.1576120372283
74.3031451796483
74.4288064063809
74.5766257183318
74.6857106277628
74.6007132036097
74.5359090646122
75.0327061673304
75.3079758055984
75.150077817354
75.1794962406104
75.4296772610106
75.4890884548047
75.4706590050795
75.1075919484474
74.4175762899376
74.8839499343573
75.5544791838364
75.5891752095462
75.5911210184854
75.4870594401157
75.4782796114143
75.4254905283661
75.2297509477984
75.1102967136774
75.0111642681624
75.5618364960972
76.2841311281469
76.3034374837908
76.1795844278699
76.5663517354158
76.7937446557199
76.8022659841943
76.8804521828841
77.0404411468707
77.0542853882995
77.3299463230326
77.7519249476294
77.8369719544875
78.1098608871117
78.2962043239766
78.3285517964065
78.1858511603997
77.9578301843562
78.780423181917
79.7544453388723
79.9114591861457
79.841495598141
79.8703738505004
80.2569607783793
80.8807666526108
81.1377300414151
81.1546985653048
81.5300029116799
82.0771835731543
82.4958282900652
82.7172701809896
82.8627265040313
83.0004187714502
82.9465329310242
82.7487236881987
82.5356715203903
82.4340049810572
82.5485973491664
82.2916536876933
81.7764978308328
81.400251273909
81.3562573866704
81.0807060062273
80.480957729079
80.0133196246267
80.2832522858492
80.388359639578
80.1635308212361
79.9582135583256
79.8314361673106
79.8907742127357
79.920392569304
79.8922206092617
79.7947110672499
79.5264264642301
79.2847736972827
79.4716428790376
79.4109041378282
79.0991413124262
78.8397400018656
78.6274801668449
78.2913083970885
77.9556353734807
77.6603777160289
77.2157916123912
77.0802427334853
77.1926896794355
77.0995905572897
76.9446344758823
76.8350006958516
76.7961626522254
76.7214255382671
76.685004197173
76.7690772655877
76.7840364606003
76.7048868641964
76.7847670032327
76.8327362782927
76.9619954382633
77.1489798496617
77.1252530423502
77.0100992986057
77.044938872056
77.187947002768
77.2147753041126
77.1981955716598
77.1765694696817
77.1679091370533
77.1271477114857
77.197405900217
77.3945674576398
77.5008453255783
77.6034867134639
77.7322888763744
77.7782381601391
77.9206751987822
78.2257583492795
78.4323375422883
78.5439740756739
78.6390423955142
78.7388307505606
78.8133428095524
78.9014704048847
79.0237759612748
79.1228329825815
79.1768447986672
79.1699910258329
79.1923558844322
79.3596248501775
79.5077593604409
79.5775718082751
79.6406498215646
79.7186213339468
79.7769922936224
79.8224973586582
79.8619303143524
79.903938039843
79.9436866870352
79.9849539657144
80.0471255702125
80.1154979386869
80.1818684548233
80.2385758616447
80.2893362828259
80.3509507137618
80.4162212070345
80.4880403846732
80.5481625236897
80.6045790316849
80.6558939210535
80.6876823920702
80.7307564952929
80.775408952362
80.7843923259753
80.778328018602
80.7790925428983
80.7755946750843
80.7466397701913
80.7000773521735
80.6495183182198
80.5713612888722
80.4553845812378
80.3188999835357
80.1959121463756
80.0639994552044
79.9229578068433
79.750511323032
79.5699775657234
79.4072962241448
79.2386150482197
79.1011326687988
78.9753237685863
78.8454462999774
78.7165319660758
78.5877932712762
78.4658440603375
78.3607422736352
78.2673004423411
78.1785645022298
78.1047111747433
78.0551995818896
78.0281227152824
78.0234456261947
78.0288922490181
78.0683807809795
78.1366892090291
78.2085781731397
78.2824714068012
78.3684290452556
78.4592152374367
78.5742312159979
78.7226196066232
78.8560143085891
79.0013522644527
79.1561376988392
79.2836505950414
79.4323053774883
79.5713557763542
79.6930249740288
79.807628184267
79.9358628753314
80.0894627775334
80.245615368035
80.387360527565
80.5339010866508
80.6876863952218
80.8042136027104
80.881346366483
80.9148732538702
80.8958290089287
80.8674748781404
80.7940742298976
80.6672639073946
80.5373634939159
80.4079272073985
80.2611012748008
80.1410478387221
80.048485199608
79.9459071232134
79.8294423544884
79.7141025092199
79.5843227713694
79.424659019605
79.2644589315564
79.0733682890173
78.8754368827371
78.7086438038898
78.5336166000189
78.3594788846084
78.2106060991434
78.0566091180443
77.8651173382075
77.6592644819188
77.4346875397224
77.1821902872664
76.8836498583709
76.5456304918821
76.1602191012763
75.7353844286638
75.3037741228323
74.9036565998671
74.5380712662126
74.2142554296324
73.9459453287461
73.76201291053
73.6070079485912
73.448282791321
73.3121627533676
73.2146396380314
73.0960274099846
72.9389906638352
72.8070478418859
72.6805549794347
72.4889285329743
72.2788613256102
72.0584266302724
71.8194885066613
71.5294998061061
71.2063698937396
70.8906487278829
70.5652889376779
70.2008598936951
69.8391722987848
69.5004926115324
69.1631823897677
68.818698261979
68.5238226212261
68.2514876582088
67.9652783373747
67.7026664176218
67.4941752365894
67.3085313366436
67.1314478700835
66.9514542350889
66.8272887741947
66.7076192309703
66.5724414369282
66.4478369168746
66.3181212327135
66.167193039352
66.0226229904817
65.8655109907401
65.7505092277552
65.6334103699025
65.4893179165505
65.3355798247427
65.2152442533739
65.1101086165047
65.0343233612114
64.9813909455765
64.953523237822
64.9536464458517
64.9699370028756
65.0067047685561
65.0512784713706
65.1170394110252
65.227995725996
65.3462534757031
65.4776437544096
65.6254764122668
65.8088776257682
66.0296052532876
66.2735879980172
66.5464018035294
66.868355776783
67.1600635265858
67.4692170689194
67.8103998704201
68.1415130077643
68.4287210504438
68.7383314298931
69.0469718616599
69.3207925392323
69.6187385292039
69.9425745488755
70.2340142567461
70.49420732051
70.7559265857647
71.0296881542265
71.2614139747231
71.4697897564864
71.6588934884284
71.8571253123445
72.0810719090327
72.2920634618483
72.4976171726799
72.7915236921336
73.1047648945103
73.3797312574747
73.6465446924501
73.9259613674437
74.1963720590078
74.4261979574484
74.6589056483694
74.9170710025309
75.1557296599264
75.4220444772562
75.7016718436507
75.9421643505984
76.1654120430715
76.4263653546722
76.6560610354036
76.8887853290132
77.1407043635664
77.3767100044165
77.5777088723889
77.7521508294696
77.8994904258898
78.0557198019253
78.1880372186437
78.2909242200832
78.4044187899002
78.5143898597803
78.5760482327659
78.6735968983388
78.7921961086236
78.8946057373776
79.0095050349799
79.0974585502052
79.1941162117876
79.3257564877261
79.4045502132799
79.4762064666474
79.5581422143988
79.5901134812451
79.6540356052061
79.7146941139627
79.7030468988172
79.7120655759466
79.749703568442
79.8022007291191
79.8419100119542
79.8522648010196
79.8572916514287
79.8542467151547
79.8517384379213
79.8443457215232
79.8399350970091
79.8874487597321
79.9200423397518
79.932391971751
79.9231675607266
79.8803231313905
79.8598352036937
79.9109246977319
79.9252153862
79.8807362438008
79.8568450201394
79.8320438483192
79.8009727619259
79.7808674037546
79.726543321416
79.6537502642385
79.5915762274564
79.5362783198151
79.4606493574617
79.3728034296179
79.332307937269
79.3596999134763
79.3379474062162
79.3094321337866
79.3134437827528
79.2845543000499
79.1554384906145
79.0499286852147
79.0176228253823
78.966804596884
78.8998190392838
78.8267771627094
78.7495472218488
78.7039895574754
78.6523506049048
78.6036615522858
78.5597883296833
78.5368641050783
78.5041168897457
78.4759420990321
78.4570234091357
78.4340658389248
78.4134822220332
78.36984170473
78.310096873856
78.2649003292834
78.2001865580459
78.1445748008294
78.0936138366337
78.0207381861259
77.9178341342151
77.8635622363018
77.8371359354895
77.7960223801595
77.7947935871608
77.7769468685966
77.7221114274311
77.6753411665265
77.5974992338695
77.509491892872
77.4935179449075
77.4493929091848
77.3222217459006
77.219655561898
77.1458916322105
77.0814081650907
77.0005250309921
76.9044547603125
76.7971585253547
76.7216540198441
76.6627461120723
76.5933259059701
76.5241388311783
76.486959073578
76.3908212645526
76.2707044855983
76.1589380986953
76.0394642767698
75.9014377084827
75.7668848982149
75.6491606675462
75.5569995502578
75.3820541621884
75.2292625774014
75.1550002807488
75.0570799131378
74.9205543757672
74.7931400139976
74.6542674815391
74.490439454006
74.2698753233271
74.0862617421275
73.933782696193
73.7787096169743
73.6099662431983
73.512642436967
73.4205707040567
73.3223865707981
73.2262480946732
73.1641281057815
73.1072727504979
72.9999625477339
72.8162814167829
72.6750956294294
72.5598131855025
72.4458474393061
72.2392917406671
72.1240694042541
72.0681585589019
71.9234905071601
71.6581063689456
71.8148855630109
71.7989635106705
71.5331608002195
71.3843962676232
71.2599122588558
71.1367782173274
71.0022558348621
70.8507661443112
70.7410456327633
70.627537857143
