1798
3999.43349933624
650.420452594757
1
128
4
96.5512190179085
96.469846644377
96.4309121327009
96.4448580301659
96.406538299082
96.4082672491503
96.4387504375083
96.4517976566749
96.3773274255259
96.3637803301921
96.4189687608119
96.4687090119782
96.4715360582297
96.466069720886
96.4575401428163
96.4877987714596
96.5144432086989
96.4578682420143
96.4110621420853
96.464085629147
96.4942868751186
96.4652149495601
96.4041721164589
96.4180844808885
96.4466004541823
96.4141066584671
96.4191770813194
96.4408884312953
96.4577793576693
96.4780145987033
96.464255019746
96.4921042879596
96.4905856892843
96.4475508458199
96.4265394124037
96.4456190296053
96.4327493799272
96.4074877417747
96.4026530410757
96.3433809015962
96.3583784913147
96.4844471920095
96.4330905238749
96.4338574068251
96.5623459214801
96.6248695476356
96.5692535169342
96.4927101317646
96.3582938044688
96.2625707927324
96.3177868881378
96.4437734030011
96.5177453841867
96.6487011471883
96.7337457746369
96.6142540570605
96.4075019995486
96.3451899469417
96.4507694992916
96.4535344777337
96.4212327932149
96.490173737233
96.4843409054528
96.4447877060782
96.4715642379187
96.5517796079597
96.4903018491713
96.4013283662758
96.2555531386772
96.3557053297198
96.4884723434726
96.5556861939859
96.6734560301494
96.6807485289834
96.6045774580942
96.4513192517154
96.2412286162263
96.2037881643701
96.3721786677974
96.6777894147908
96.7705140186433
96.6022957755891
96.4390734060091
96.4211984040552
96.347027341331
96.3412448630991
96.4570033802889
96.6047901338827
96.6426975040597
96.6894922046248
96.7002362864242
96.6520512751939
96.506138954509
96.3325375543272
96.2594353015101
96.363688414586
96.3662032023472
96.5905782311414
96.8052703064983
96.7933405607944
96.6702076663152
96.5405011069522
96.4120829664881
96.3973110800343
96.3106452514611
96.4323937750989
96.6598532388663
96.6574361661016
96.6296926641524
96.7747940208814
96.7854401153508
96.5719188498193
96.4545347558044
96.4400738334579
96.4356343225599
96.4878365405266
96.5085111557665
96.5037496238209
96.5068990540162
96.6116670766347
96.6316704603972
96.529414989531
96.4391180546123
96.5139954228819
96.5294440980992
96.5402024678726
96.6074463658931
96.5786040149124
96.5441793627493
96.5859766310111
96.4526472376962
96.325377968972
96.3988942353234
96.5233630345362
96.5190124187441
96.3839220952793
96.4915744353174
96.718048703142
96.7600874649236
96.5857444693837
96.4086237346791
96.4079130755567
96.6157623284799
96.7433945195682
96.7140264242965
96.6391256233535
96.5188523032409
96.4108524840691
96.4096950943727
96.5450683079301
96.5263143008117
96.5901672587904
96.6383489234801
96.4982426198279
96.5225869574066
96.6430554520729
96.6657635601203
96.7374006357746
96.7150108838656
96.6384152782993
96.51650534066
96.5179726174807
96.6602465629818
96.6356402577624
96.3828576652415
96.2555712645805
96.4832191609182
96.7461882210297
96.733700289228
96.5969097650675
96.4706167060268
96.3618675072743
96.2443905158647
96.3327302185998
96.3967032386404
96.3438671682858
96.4776883635026
96.6762343403282
96.7349144457268
96.6311987700858
96.4286556916387
96.2639582017461
96.3119486450368
96.4740034353431
96.392857316046
96.1791275492562
96.0391893763511
96.0632477663482
96.2911679297891
96.5549316645694
96.5538051118849
96.3457320480802
96.1670694682307
96.188236857926
96.1803300005392
96.088918293149
95.9203214277004
95.694572266439
95.6731308344379
95.840524685135
95.844159248808
95.8331481453987
95.745458400824
95.6156607040088
95.5552796411941
95.5848329811221
95.4767750594764
95.4420510358432
95.4122167282743
95.3909228788814
95.3102702107014
95.2283324748779
95.1426887921543
95.1003389319479
95.148024243433
95.0954066138276
94.9984089356481
94.9215941783224
94.8169368952369
94.7331486883164
94.76826598987
94.9342619391614
94.9557598139283
94.8441231736549
94.7182765195038
94.6320678331469
94.5488812941353
94.4921622725178
94.3438264076472
94.2691044031999
94.2067574026299
94.1457287538305
94.1780593358273
94.2013332249674
94.2031132779849
94.1647304152145
94.1900478370458
94.113168562489
93.9089262302968
93.9001945866029
93.8986832197487
93.8645523786402
93.7587430568353
93.6475767343187
93.6253687266623
93.6500049097454
93.5822502930636
93.5050561979872
93.3856228801155
93.4554557478777
93.5349953388383
93.3917925676178
93.2350702243939
93.1359360352677
92.9975538215178
93.0444618513969
93.0965359090844
92.937867460742
92.8279102642599
92.8982790468016
92.9628546113188
92.9044773808845
92.7772146653915
92.7412168745338
92.7171089469759
92.7041429771226
92.6721347795981
92.5512140665332
92.3673565462895
92.2538203022771
92.2305514738659
92.180998339781
92.0140850908101
91.9507954415717
91.9944520114789
91.9510072642837
91.8455862876094
91.7780061791697
91.5672286288329
91.4842611272648
91.5283064755906
91.5368256555034
91.5165532979895
91.3255413859615
91.0108348144535
90.9391693444158
90.89996250126
90.7499518907441
90.698826557296
90.6786188656501
90.6389539302834
90.5750186186342
90.3806125777701
90.2455586054912
90.2034537744339
90.1415753451985
89.9987006228134
89.9321682687648
89.8474596183649
89.7260009579436
89.5869577111199
89.4983085887387
89.3287784984951
89.154866438993
89.0332396944075
88.9685331135308
88.8314042328875
88.7327676197455
88.6390423283171
88.4942853712765
88.3414405511594
88.2071063547502
88.2228919021671
88.1681317836947
87.9052568572008
87.6966152755735
87.5854805341644
87.5355776139054
87.4490602078587
87.449772645002
87.3740093270276
87.2250187297684
87.1675880301653
87.1263839168355
87.0152243028992
86.9578738368926
86.8808110085529
86.8224023830264
86.7843830344568
86.7365156708664
86.6984077098778
86.6801252827804
86.6646042513581
86.7507884242381
86.8334445965729
86.7937524150381
86.7587102607919
86.9428361453444
86.9484482553173
86.9399429696928
86.9767894823519
87.0530407755977
87.1522805265837
87.1429797976077
87.1939545381262
87.3497598837544
87.442535154191
87.5734826518699
87.6312916492047
87.5815140562162
87.5577161772465
87.6110824950921
87.6797155841589
87.8458888122765
87.8716342649341
87.8825043432328
87.9715639459162
88.0375963340408
88.0902153149813
88.1505757560732
88.2820754801518
88.3744653273245
88.2734850949412
88.2785276264326
88.3623620447684
88.4159858182175
88.4823353402159
88.5566372621247
88.540942305115
88.6256318930575
88.6449433003089
88.6174787031488
88.6392499106305
88.6797546829319
88.7332064904685
88.8947894096119
88.9566156634942
88.9642782192761
89.0327419917631
89.1326914609822
89.1107476813994
89.1432022979705
89.2141082496586
89.2994118294185
89.2628978222009
89.1779354182426
89.23566415749
89.4169177919704
89.5137780878838
89.5297535616635
89.5586813788271
89.513756784794
89.5455150531262
89.6750451799987
89.7053093705416
89.7765777280268
89.7415877078861
89.7005312072748
89.7248932906349
89.741435159803
89.6914692683287
89.6624830972477
89.5989339219083
89.6319253180058
89.6329107416319
89.6007994881749
89.6595086371009
89.728937992715
89.7528549232511
89.8054375955472
89.8636364446543
89.866497198944
89.8539408702544
89.928355746376
90.0151865899958
90.2043442744619
90.310984396447
90.3149831478345
90.3274296219356
90.4543298879342
90.4946408362323
90.4618872658016
90.6510830298879
90.7847058401771
90.7314118536475
90.8060751834521
90.9322615088125
91.0465792672415
91.1536252608838
91.2337462202925
91.2247148858456
91.20804780612
91.2424454178588
91.3243300294813
91.357052994853
91.4442820238976
91.4594927353722
91.529112792271
91.6242242481885
91.6454737677429
91.6130603234579
91.7052004562522
91.8941573555884
91.9232124553612
91.8514523402455
91.8528056767895
91.9334412662678
92.0180958996013
92.0579642208644
92.063228403349
92.1545890114207
92.2716862303323
92.2936225360824
92.3054402757273
92.3559092430627
92.3965539306233
92.4068591323963
92.3980220159465
92.5056336330304
92.6751637661035
92.6888584380191
92.6523204605628
92.6662775238549
92.6738068247944
92.7466109545206
92.8699419569056
92.9177549256646
92.8997127336638
92.8315303934731
92.8698228963483
93.0040910559802
93.070190775576
93.0823070192371
93.1300974021142
93.2322076068661
93.2542408344497
93.2629994617484
93.2402081822055
93.2191450024102
93.3580708523517
93.4221942237865
93.4241601174497
93.5049088812616
93.5628259567507
93.5251551577412
93.5552936590206
93.5667250773204
93.57159977974
93.6148620111066
93.7007464525559
93.659461185872
93.6304170307889
93.7502378235328
93.8350773451157
93.8424918848736
93.879954954252
93.8434092155511
93.8249475058666
93.8993570407336
93.9411229270123
93.9885846363313
94.0633793518535
94.1171288262449
94.1218647518829
94.1006495772503
94.0986676229975
94.140163445136
94.1825199318014
94.2382580408012
94.2724543328639
94.2774230899868
94.3444854044193
94.3974967149948
94.3713114597258
94.3330840674194
94.3063138393491
94.3561482122243
94.3878660271085
94.4023378375651
94.4942014746753
94.5252188263841
94.5150117684287
94.5094585847283
94.5168552809804
94.5655528357433
94.6056663551747
94.6599136929314
94.7204756831727
94.7288834876536
94.7210604652035
94.7321759679229
94.7900950719902
94.7383390186188
94.7351361450686
94.7229602072048
94.6975688376038
94.7606012699432
94.8266276348881
94.8672324513779
94.8801936847733
94.8982085538563
94.9571687891502
94.9584040190265
94.8953253702923
94.8410474614348
94.8999599974535
94.9504639658525
94.9948380915856
95.0028092921227
94.9822840758896
94.9637617284358
95.0573801982414
95.0920405832901
95.0332603298046
95.0012951545976
95.0517790039335
95.1504774045004
95.1454789422953
95.0983658422347
95.1085141934813
95.1597262371919
95.2116031515838
95.1743576443859
95.1685944508147
95.1845331425331
95.2335852312761
95.2632254441509
95.3226314189045
95.3147229037979
95.2320600929604
95.1858568420188
95.2551793168845
95.3062689132788
95.3467808633757
95.366883393176
95.3604707998267
95.3473182235601
95.3547750622473
95.3626088412118
95.3828211764387
95.4196589103246
95.4703691107286
95.4533462480699
95.4131478008133
95.4576879283215
95.5310295332608
95.5054534627685
95.5217954338337
95.5509358495559
95.561325500708
95.5265021194865
95.5100840907693
95.5965322281999
95.6351335085363
95.5227542561
95.5060539539166
95.5944510488905
95.6096225730221
95.5542915322091
95.5165412386893
95.5155820514625
95.5380088956296
95.6186157007208
95.6305626315375
95.6448772658858
95.6520299089863
95.626749712178
95.6082917442826
95.6635200153011
95.6926866520573
95.6526877972142
95.6900146352018
95.6938829499299
95.6607276051134
95.696571327353
95.722113962422
95.7312607247421
95.7664671831508
95.762624948256
95.7372117829474
95.6928189217282
95.6869068805604
95.7283004844054
95.7666583812456
95.7987843138235
95.8334449758005
95.8018764657811
95.7322443853085
95.7342802459973
95.7818998455375
95.8302884691532
95.8585289327995
95.8389150193007
95.8027628497997
95.8367080399686
95.8242343010012
95.7624258789381
95.7609158271799
95.8449815705304
95.8160590484137
95.7043216983037
95.6954813712226
95.7311591644172
95.7164101706336
95.6710769515961
95.6579459465514
95.6054831484546
95.5786600005042
95.5646065632829
95.5755574092556
95.6111708405456
95.5867521059319
95.5402177993476
95.4959734131391
95.4458289967451
95.403985803458
95.3935279176333
95.4367796466677
95.5072572126486
95.5364840794543
95.5350590383533
95.5419314751023
95.5308511795398
95.5057025741278
95.5099992211987
95.5029149194081
95.488392852179
95.5223189161074
95.5333904180592
95.5176835177054
95.5316350146788
95.5592201554126
95.5590895841292
95.5528380323426
95.5279728182898
95.4635852238324
95.3873625599483
95.3269163052651
95.2659155074623
95.2332045030617
95.1872427872237
95.1689273655408
95.2566290317651
95.4168589971374
95.5792790293961
95.6396831410432
95.6551365441111
95.7336206641531
95.7361446553022
95.7165574247819
95.7466595035971
95.8114802279465
95.8264086424651
95.8404946179311
95.8590533499588
95.895460023641
95.9749219408105
95.9704116728525
95.9494894113914
96.0230869028524
96.0237900580157
96.0328704818486
96.0463980289428
96.0583931803388
96.0938774703895
96.0645196107207
96.0477809561444
96.0890163011558
96.1425989090786
96.1899744835584
96.19748632206
96.1619973315749
96.1833286837986
96.2304700027889
96.2177523995395
96.1850915027625
96.1734109169788
96.2070217213985
96.1902563265435
96.1580690334495
96.1858778077112
96.1859328292068
96.1532162805257
96.1385635560645
96.1608363183694
96.1647848797175
96.1826690691573
96.2192189391877
96.2215935835146
96.2210373936918
96.286017301138
96.3112943079543
96.312580556617
96.3342163469533
96.3510071321583
96.3483294960212
96.33817374097
96.3545595319671
96.3855505635334
96.4293597113907
96.4679659590704
96.4271780382126
96.4014705351132
96.4112578040379
96.4309424869137
96.4164989307664
96.4519290469633
96.5126091297634
96.4807477084175
96.4819778113471
96.5565998780625
96.5571043740602
96.5866984328935
96.6681994895562
96.6499354020659
96.6578392448074
96.681274553042
96.5999922721462
96.5777802409526
96.6133915825137
96.6070104156152
96.6004269782733
96.6312306029314
96.6963681828305
96.7715697007942
96.8625788966612
96.7947607308871
96.7349512557154
96.74208342694
96.7033827602416
96.6813694604921
96.7266951187342
96.8136177693796
96.8141494153177
96.861675196039
96.8185011099474
96.8395149766262
96.963225233507
96.9471208172145
96.8554557017616
96.7904359924754
96.7222061106569
96.7645530107747
96.7443863823456
96.7463183219548
96.8703970587086
96.8752127419912
96.7984665444631
96.9030033403369
96.9537983814096
96.9297793318221
96.9597251327799
96.9444110818144
96.879436610413
96.8897830706343
96.8818808994791
96.9478837961053
96.9301329624944
96.8804314175831
96.857705560534
96.7874553507782
96.8311025677431
96.9184947378283
96.9509353364184
96.9179179317133
96.8327343396628
96.7559097259213
96.7165351388868
96.6653453869225
96.6057747023395
96.5352575614916
96.5051870802099
96.4800445349389
96.4656679811405
96.5541996362928
96.5448407985179
96.5087883444621
96.4782130185039
96.4897003440215
96.5385523864759
96.5639037871253
96.470530618846
96.4160807913252
96.4799824802316
96.5888343718237
96.6046633192081
96.5979161953488
96.5414169565102
96.4549972417299
96.4705591659643
96.4644452743283
96.4316392423911
96.4373798763443
96.4418866685338
96.4637837050778
96.4236590140084
96.4195006952398
96.4718608310219
96.3994390218965
96.3115363187071
96.3131785358377
96.1941843284928
96.0403306327279
95.9839409969442
95.9658710621424
95.90725131859
95.9060696318595
95.8635736078268
95.811992110687
95.8295880733747
95.8685321246518
95.8177345184448
95.7538992453871
95.7966871461846
95.7872095599811
95.6079680618444
95.3854820642324
95.1100124654861
94.7232624173946
94.3400869313055
93.9937534997277
93.763995512457
93.8052007339878
93.9906010920112
94.2259695383464
94.4613610044091
94.7215255924586
95.0460624714233
95.3865496513569
95.6437751956315
95.8412766068836
95.9960955258199
96.1392797756709
96.3285268498814
96.3880065888218
96.3847402228038
96.4803540815459
96.5684199610627
96.5624165923888
96.5781525637539
96.6287689334666
96.6296178613691
96.7394935163022
96.8109168097462
96.71545352698
96.6167814970572
96.5014126320289
96.4549366003229
96.4979357371788
96.545791733533
96.6147749867107
96.7065876943089
96.6844784477349
96.6629695141646
96.6897024597753
96.6342248975702
96.6275643995033
96.584700325148
96.4875724640384
96.4052179355259
96.3530411102764
96.4405060835154
96.5320299392191
96.5475043837805
96.5514118585793
96.573508915126
96.6301280195231
96.6305990799156
96.5494260466907
96.5239779661915
96.6102162585302
96.6284458643753
96.6025605193692
96.5681046858946
96.5675287434875
96.6508443292847
96.7645691840527
96.7437106991354
96.6807392828613
96.6928971332963
96.7396724810121
96.7476860816926
96.772861595881
96.7556517630727
96.80432655044
97.0087248907134
97.0713144883115
96.9894098843052
97.0124107715623
96.998794926245
97.1247445937589
97.2150589691834
97.195502149176
97.3700483330132
97.3314941134642
97.2586090824981
97.3695783771068
97.447197986692
97.5497171462985
97.5855550570562
97.4430600960746
97.5191802191396
97.681314703227
97.5836962499638
97.7183216504448
97.8466191014213
97.9039726839337
97.8463629743285
97.7977730669342
97.9147851236139
98.1370561456016
98.0498598186604
98.0384363276558
98.2547564706389
98.3155212760859
98.1859002379472
97.9709762578838
97.9795818050437
98.1090034913535
98.1070264859152
97.9166827328419
97.913558703986
98.1728621220486
98.5555895900953
98.9219794833343
98.9298348311369
98.6576482402628
98.4300890004686
98.6057648107207
98.9540098971132
98.8988908365035
98.4103612848343
98.4363040735943
98.6992195502511
98.632256508488
98.8164699069359
99.0945631572795
98.9956203371834
98.9541151531311
99.0665133623344
99.101818115192
98.9096354576453
98.9781219756946
99.3615613512736
99.459945549315
99.268066091616
99.1414829641444
99.5059680572894
99.9552076418465
99.568654472115
99.192701313715
99.0973071552742
98.9054399541079
98.8008439320576
99.1167750398515
98.7831514681292
98.3972274995409
98.3669341506674
98.3706582565339
98.3957313979593
98.3729523298652
98.3147232491086
98.1295466386161
97.9949848061529
97.797131750366
97.6739475266673
97.7667998624111
97.7373610642219
97.7731579293945
97.7200383245072
97.6606066844823
97.5953360524362
97.4457563871891
97.4237310440643
97.3789620667942
97.3937596816526
97.6327906730422
97.6708568584626
97.5263954220494
97.466273019236
97.5189172383785
97.6338861687597
97.6335077858121
97.5434180919539
97.6386208254676
97.5396205454334
97.4394699998035
97.5816866158338
97.6155426610173
97.562141338274
97.6157513830022
97.5963389773995
97.6160638294238
97.7571243535447
97.7870692494539
97.5764813803677
97.3114771201735
97.4457383466231
97.7704707096687
97.7843027790626
97.8489714302104
97.8898710802214
97.8177987071051
97.8364920505599
97.8880587399766
98.1159661358539
98.474799931676
98.5278037734383
98.573907830587
98.5743565164622
98.6367300409359
98.7567934050126
98.8003349343797
98.7651361442215
98.7298324812673
98.8848015125885
99.1841469463739
99.2264531373802
99.2182874899834
99.4032891626534
99.4829900731982
99.4305710008392
99.0994010595772
98.8909917881175
99.1491294731659
99.2909594119604
99.3771962380398
99.7122498846356
99.6362876001082
99.2118018724663
99.0972828818326
99.1080653811263
99.0537458603822
98.874114529749
98.6706182943197
98.5325330497008
98.7476303742912
98.6614114416185
98.6149629612323
98.7674120646972
98.8149092690523
98.8366251955068
98.9426089943053
99.1733898328767
99.3367789826754
99.2834904183032
99.3038553075411
99.1031708406179
99.0277164943112
99.133366461182
99.2111222458814
99.0713320117177
98.8843117736955
98.8668413129913
98.6931886007746
98.6635422958628
98.7548769509892
98.7171078282944
98.5041419313559
98.2743549560859
98.4840876023596
98.563642299208
98.5941337234726
98.3559138226483
98.2301926561275
98.2096527637874
98.2046532001333
98.1223412421041
98.0408751521972
97.9402092291067
97.992383229941
98.1194281187374
98.182397855637
98.1255871310037
98.0546979055371
98.0673594472266
98.0511933043797
98.0154369917756
98.0085635310683
98.0094442228113
97.8156014989152
97.7812529234301
97.9606449944631
97.8942220520778
97.7269364075191
97.7674842770054
97.8478322504054
97.7972497705506
97.8270437928742
97.8644047157309
97.7966111363016
97.735005461744
97.7097368033047
97.7844343387748
97.8199003426285
97.7773961053636
97.7588267569452
97.7816997807079
97.8086113132021
97.7869326129489
97.7308802828662
97.673966370327
97.6942552074655
97.843574082648
97.9963604688099
97.8931022865133
97.7105571345111
97.6769686760978
97.7261625838257
97.6571284343557
97.6634186334369
97.7222545610028
97.7526966508976
97.6855146210742
97.6710562760429
97.668173263476
97.7423956567158
97.8798817672388
97.8904398172456
97.8524039529384
97.8144072482272
97.7316838016757
97.6886235808331
97.6884534574538
97.7553502066729
97.7700230943568
97.7568203695554
97.7814565622024
97.7919866729222
97.8024327949483
97.8206984523702
97.8043596301327
97.7801418878726
97.7587440180669
97.7244833146588
97.7191332660644
97.7909710188655
97.8355116593659
97.7641280890324
97.7095687912324
97.7656657701282
97.7697972811658
97.7266232977171
97.5990236653876
97.6072936586781
97.7474953697116
97.7741521752886
97.7002231857777
97.6619954889911
97.6325031145351
97.638953152069
97.6962717531762
97.6488278132667
97.5878415389579
97.5502236431973
97.6265566260652
97.7065403514934
97.5776008250738
96.849304017766
94.8121967588882
92.6130063878403
93.0417369754848
94.6336039870614
95.6771247508871
96.4252959067431
96.7085915333781
96.8548627138507
97.0437796859624
97.2441875098644
97.3373262240884
97.3152732305753
97.2874291769946
97.3009612485382
97.356171231618
97.2286909517501
97.1446336366455
97.3435772576065
97.3615900332434
97.3162631000385
97.2599081345169
97.1945717809155
97.1283367867505
97.0728785038077
96.9348989463703
97.0046312806219
97.2112258965024
97.2393048694235
97.1431352401431
96.9871089227848
96.8526882743728
96.7786381633715
96.8054776955431
96.71113638435
96.5468318861695
96.7398473419026
96.6498643374424
96.6217699589246
96.551890207437
96.3572930222387
96.2010441406554
96.0679530168903
95.8756901839092
95.8883534596902
96.0679193862214
95.9076256767496
95.6950127118654
95.4160629551848
95.3078002343388
95.2815878300856
95.1609381934177
95.1757840210187
95.2085874630532
95.0150672321431
94.8012100131019
94.8113742057481
94.7376878816108
94.5144771186713
94.2510076413061
93.9951052248224
94.1548735459475
93.9894711983377
93.4189960725163
92.9954989876828
92.6814013368971
92.1773631381547
91.5952645253894
91.02963826765
90.4752700058591
90.4253232660612
91.0687447783229
91.3315572140394
91.4878206122557
91.7184272270865
92.1258833829938
92.4223054506751
92.7741092022881
93.0242242577316
93.0383905227835
93.1224265332036
93.482850743888
93.6198244162007
93.645330712059
93.6851666625639
93.7898160630128
93.9164247668326
93.9997084954531
94.0771354401583
94.1346494419208
94.1833463422037
94.2434797947204
94.3139282430737
94.3971203727399
94.4754694396488
94.5383251006151
94.6011524578656
94.6820081417964
94.7579479090933
94.8066180324259
94.8323334583774
94.7780418771315
94.9033882670783
95.2267003453488
95.2203122379127
95.1532422357774
95.3598464729246
95.4499694364734
95.4326461229883
95.4815834076074
95.3263894417129
95.3076658614602
95.9617303031122
96.0887210190694
96.0801669963562
96.0530304814341
95.9994982949927
96.0986964610141
96.0871377060818
96.0793055843377
96.0825246676728
96.1554082040627
96.4846479195955
96.5693405609476
96.3812703392648
96.3809535412374
96.4541635582686
96.3758022991204
96.2821560234901
96.2920216310484
96.3036964502268
96.2578944054977
96.3843503160961
96.3302684078738
96.261439084889
96.2279356329958
96.080210724093
95.936743305211
95.705985046087
95.6706705852406
96.010504496089
95.9336900549243
95.6992906414725
95.51959279932
95.4095389370632
95.4314861657664
95.4414230130716
95.265524826203
95.1162229412837
95.150760788997
95.1600876185466
95.1054672666577
94.9505897976736
94.828846754515
94.7182960260305
94.5421226090912
94.3988879542428
94.2509749573597
94.2248806469679
94.0937580324211
93.7694397340866
93.4526700810167
93.2527982502403
93.0721412729675
92.7577459641147
92.4577435657316
92.3512948842078
92.1923771229499
91.6205208598037
90.8146483988856
89.752596772394
88.6143561847748
87.4295367838986
86.3254253132255
85.3096461283006
84.3784685530865
83.489467448656
82.7063174449862
81.6092873403295
80.3512962802082
79.8214740022554
80.2163978430589
80.2835579595338
79.7275562525983
79.0336933566896
78.2135917109209
77.463150161135
76.8605218491764
75.9983596474273
75.113152321219
74.2756205957327
73.455752958491
72.6213947374714
71.7724236273619
70.9703660418783
70.1510483482214
69.2495344139199
68.463580937163
67.6395910313653
66.7496954967116
65.8721499358908
64.7340957419524
63.4980165065827
62.2791032438958
60.9150374943357
59.2959891870962
57.6265389159335
55.9289090186014
54.237985521026
52.5533836915965
51.1594412093375
50.3838388166382
49.8904882831246
49.6667478541441
49.7556712582816
49.8195005095261
49.9198331673543
50.3916557232136
50.8170161601542
50.9929360307332
51.1471174142208
51.3840929705671
51.6481205694591
51.8993983385635
52.2158076548571
52.5638044930775
52.8964862689428
53.2089151132587
53.4608274520744
53.9058526136299
54.5448079016789
54.9995551189387
55.3341850318342
55.6615577158491
56.0482106665195
56.4671025543443
56.8913273590074
57.3165457960761
57.7455271094747
58.1533765649143
58.6134655099908
59.0917193881901
59.5088125245959
59.9228231629798
60.3845300297256
60.7768575196179
61.1595963106226
61.5886353651248
62.0097241895676
62.4051478306141
62.7939534724572
63.1797985064327
63.5776516399959
63.9719375573043
64.3609994036566
64.7533526364907
65.1584159567056
65.5828461823772
65.9787940167953
66.3293600639584
66.6918395318518
67.0531667223204
67.4328357455842
67.8042981230126
68.1248246922054
68.4581927341689
68.8155623654124
69.1645112604618
69.5017732572845
69.8400319877154
70.1637337189243
70.4571540692835
70.7663007370542
71.0756116528793
71.3810269886965
71.6767042796719
71.9655690333254
72.2248482262715
72.4783630570202
72.7419640769151
73.0100644547319
73.2882152268374
73.5613518727691
73.8125683094741
74.0636230368688
74.3044486469332
74.5228324985833
74.7392008576449
74.9696351035816
75.1711496802335
75.323570772971
75.4890115376977
75.6391976535017
75.7537582203384
75.8343609059618
75.8838175185774
75.9334543168303
75.9225245951569
75.8598426357496
75.7745321570725
75.662960325164
75.5243685766538
75.3527797170905
75.1344207410647
74.9143465154836
74.6973506886846
74.4862849575022
74.271873333952
74.0859236252256
73.9951488390224
74.0400265219922
74.1780361761423
74.3978328726813
74.6318874514414
74.8271836447728
74.9716076309975
75.0397301125065
75.0035054525521
74.9217306422145
74.7708571087641
74.5643880329034
74.3180946363434
74.0539855443631
73.7643070800867
73.4529046596186
73.1366051364864
72.845929491665
72.5484022623708
72.2432206571157
71.9544562338969
71.6939036159568
71.421572249349
71.1685529213699
70.893724432039
70.6020307711884
70.3129990052315
70.0597608969202
69.8755367126149
69.770807787581
69.7322047293454
69.7506632793824
69.7547322769111
69.6548084155068
69.4239186029935
69.1274298337948
68.8766762321069
68.7459520056391
68.7167510695625
68.7682760670163
68.8691722339252
68.9716761819837
69.0268718637277
69.0952137623879
69.1696269853282
69.2028261573936
69.2273823310971
69.2642808439967
69.2675616687563
69.2835128935133
69.3133986290499
69.3634604816381
69.4701328267679
69.6483040633752
69.858314871874
70.1129605722332
70.4349158649031
70.7947994181698
71.145674514911
71.5336660912494
71.9436883408416
72.388256909828
72.8717131428412
73.3556038117379
73.8212297241398
74.2986570257705
74.7703242091286
75.252060230371
75.7370397283145
76.1718489148957
76.5677109839165
76.9639966843835
77.3453209708841
77.7209904107761
77.9803780850639
77.9507784874116
78.0386987491979
78.5362470800098
79.0289043050255
79.4132632420435
79.7744610484034
80.118741216753
80.4465409810988
80.7543853215484
81.0358438429944
81.2720691444498
81.4833126273443
81.7428955589835
81.9785411580258
82.2107068253121
82.4400996192119
82.6488352864149
82.8513605689434
83.0419551464972
83.1703239352898
83.2968061994427
83.4456885576158
83.5738225965343
83.6891532035149
83.7797318828892
83.8243681069768
83.8590439968049
83.9268881818754
84.0436180089493
84.2301742315728
84.3869888302359
84.4994106458933
84.6117511451027
84.7396543767569
84.8828463321163
85.0209878428658
85.0744817723683
85.0510517303364
85.1076145690962
85.2842147312844
85.4999786819975
85.6657127711402
85.8051223435796
85.9572496153805
86.089782286731
86.1730421028345
86.2509551581808
86.3817256473302
86.5328185191556
86.6405682053447
86.7088943026371
86.7897480493517
86.8750039542926
86.946504298947
87.0270939757459
87.1055208065611
87.1773580998972
87.2501444614292
87.3207273318838
87.378868583418
87.4693963398131
87.5339912995827
87.5877724288251
87.6813483106341
87.7870201377936
87.8320332601336
87.8850593693836
87.935424319575
87.9764866935724
88.0556622499759
88.1643331316217
88.2211967082895
88.2645545254133
88.3315769622218
88.3709624135977
88.3884472527452
88.4346553153392
88.515041987176
88.5795554780296
88.5962174884681
88.6230848232589
88.6836967897661
88.7351931919073
88.8108439660166
88.8728463328781
88.8901487661218
88.9509141957419
89.0205815294564
89.0593087166062
89.0903079147523
89.1172159941649
89.1432095102682
89.1875009866701
89.2002627336444
89.1960243572376
89.2051405592792
89.2370634108556
89.2690967358747
89.3014917858217
89.3077437451859
89.3131566953282
89.3384703363624
89.3467450220856
89.3469973450434
89.3570246543078
89.3258554841481
89.3435421437122
89.4060065997087
89.3869631929446
89.3521382158735
89.3234321774446
89.2758258549618
89.1908228533073
89.08872127947
88.9485262318914
88.7530684149303
88.5250258133613
88.0224068407751
86.9913089586942
84.1127790523841
77.3171959000155
68.2663717474024
64.074668019416
68.0607138393864
75.0577918935707
80.3259631708031
83.4747453839199
85.2391968150801
86.0267864386748
86.33146332145
86.8370635196425
87.3397320591608
87.6185188012791
87.7911691784049
87.9250854437107
87.9717264556489
87.9881747923504
87.9888359315908
88.0023104211663
87.9981639798952
87.9785470725167
87.9650450775233
87.9461764805748
87.9169828879177
87.8949216807555
87.8371863279815
87.7477659296272
87.6690218218664
87.5909405381659
87.5204915021542
87.4020229307306
87.2954079705792
87.2154872529264
87.1125184422942
86.9495553237308
86.7250307426042
86.5524968475614
86.4338934558385
86.315691234345
86.1797840172376
86.0995256372044
86.0308799874774
85.9793249895188
85.966052195925
85.9527815410483
85.9586891016117
86.0364046818144
86.0992456684427
86.1384697017292
86.1537159387201
86.1785993924505
86.2340467427853
86.268581823283
86.3247914569279
86.3800359888046
86.3682300912588
86.3869591675783
86.4393746788944
86.4755989099766
86.3448466928228
86.1220045810724
86.1238193084538
86.2177404837538
86.2228540136255
86.2425814658207
86.2931163610808
86.3248343806938
86.3019795255691
86.2497541684453
86.1699082748407
86.1031608540138
86.0735932613016
86.0707671401447
86.0284896577223
85.972801299234
85.8852096076395
85.7785355583612
85.6961357405749
85.6581708109265
85.5791781385736
85.4960950183284
85.36339271552
85.1109427102429
84.7623385482217
84.3764690133414
83.9256781193449
83.7855748378575
83.4888694526657
82.8946071598323
81.9894911283128
80.8694000496777
79.9337835738581
79.7573974826188
80.4056554973988
81.2923805506624
81.8832047983935
