1798
3999.43349933624
650.420452594757
1
128
4
93.1883319956789
93.1593975314982
92.956621743558
92.9417322448349
93.1175780396251
93.1474453361779
92.9647347713247
93.1063941682815
93.2951886626909
93.2335402838451
93.0328125075688
93.0116056586703
93.004944893337
93.0827996448821
93.090071498593
93.0503568193566
93.0128945356804
93.0385854419083
93.050232095485
93.1624642930155
93.2373984263687
93.2584339912746
93.1286923045285
93.0855237477435
93.0974591364996
93.08123662455
92.9766799550282
92.9483643416824
92.909656172335
92.9888682063198
93.053037184032
93.0330688904776
93.0211277991471
93.1090042585938
93.1997630653203
93.2143869467799
93.0628958454408
93.1435928076274
93.2317607528426
93.1929974058767
93.1685050189059
93.1316715801331
93.0329045108896
93.0847077072166
93.1124726208702
93.2146893083607
93.2347546584135
93.1333035856422
93.1059742421177
93.256050938734
93.2115863762535
93.1465724756391
93.1305645545092
93.1316110559725
93.1100650135724
93.2151353479127
93.2581439550583
93.2925842556317
93.2013483294442
93.1031323242691
93.1273915291058
93.2101722829948
93.1491936219593
93.1624987164483
93.1487248052259
93.2438478155589
93.3353777008632
93.3307736869867
93.2441273765648
93.2819067463994
93.12986028022
93.1530428237039
93.2517067874161
93.2220858808578
93.1601095230897
93.13829083265
93.2060636308865
93.3077893184208
93.2073482698167
93.0350987801712
93.1490039848823
93.3905931698993
93.4758700837732
93.4927542823203
93.3893778362262
93.2773198186532
93.2188244853443
93.2241545729604
93.1843501247131
93.3086579853054
93.4379055051901
93.4967772811549
93.4370767477272
93.3661617153362
93.4071373052332
93.4385278248992
93.2215058148209
93.2839412045747
93.419623070271
93.3637403431804
93.4640935028965
93.6851484317793
93.6618787525703
93.5841558904486
93.3925823299004
93.4876006526914
93.5746159022106
93.4661944888151
93.4587391344855
93.5584425829875
93.5893711752206
93.6643131528231
93.6184274881161
93.6095931492859
93.6601086706119
93.6715819295891
93.6356144699785
93.7123584565588
93.6720452085316
93.6437586766328
93.5825826195292
93.5906126797072
93.7039181462115
93.7447669906853
93.5835108138983
93.5732015514327
93.6178952433008
93.7642454424974
93.8456655436312
93.7764522690123
93.6307746453794
93.6239686733592
93.6599726126965
93.5517235642649
93.3651402502155
93.4480058671996
93.5133196955012
93.4980281373388
93.5859239084349
93.8027499662649
93.6837267277081
93.5286871734283
93.4005356183673
93.506112824575
93.5301875330819
93.8071189438572
93.9317534697153
93.7263690872377
93.6355997487983
93.8145293531202
93.8530917992419
93.7966926302981
93.8132667558705
93.9408906146135
93.8454151054487
93.8473546048011
93.8549773053516
93.8919913588294
93.9960330412147
94.0202920170747
93.82372689732
93.901258879427
93.948746835618
93.9095305769264
94.018374329199
94.0674856957413
93.890721233988
93.8736286775027
93.8719753280382
93.9945616535683
93.9264993086856
93.8162069873332
93.808486243746
93.9006994057816
93.6142345845127
93.4178759385373
93.6881136191605
93.7310247891024
93.5151357666145
93.6729536307866
93.8343372924043
93.843288791345
93.720826548376
93.636146805304
93.5104588535496
93.4759987507807
93.5153831098963
93.4539129874597
93.1492095843538
92.9537880149278
92.8520335088813
93.0022718770932
93.1148447120667
93.1102727642957
93.1224605519735
93.1410283706794
92.8762606137893
92.801838241552
92.7562243119839
92.3547487150461
92.2488307371469
92.4899866846706
92.4299912863139
92.3437530779689
92.1654846332406
91.9829816101842
91.8554131173186
91.7827627202436
91.5555549956001
91.5536112131729
91.5911422042736
91.5051647046983
91.3707989329633
91.3780724866286
91.2924262231232
91.2187827613385
91.0597800131976
90.9806829494076
90.8872641137554
90.7778247380082
90.616481721794
90.490320326818
90.4699983643754
90.4607882948787
90.3488930428272
90.392661824425
90.2538669392147
90.0547348336547
89.9848606539583
90.0425314477648
89.9304615035355
89.7069271945193
89.3742060674883
89.2482429874985
89.2512338646628
89.2931185907845
89.2378608648434
89.201346770325
89.0766691709074
88.948360491797
88.7926896736685
88.7407986197063
88.676452325469
88.5370794498054
88.2718083683746
88.1925650890489
88.2160526336484
88.2258975478215
88.053801527625
87.8222143461809
87.7072293484712
87.7826648688612
87.7054309668057
87.6458898465685
87.5617779401366
87.4453181154319
87.3162300644736
87.2208561134457
87.0161671958079
86.9484171040198
86.8936873828553
86.7927324887626
86.6346988590191
86.5961305972744
86.4912924788766
86.3160334834631
86.2146079233946
86.2428979148033
86.1295356294499
85.9957417583861
85.8908990250748
85.8368572202822
85.7799694022102
85.7272770981738
85.4485772284235
85.3788634016358
85.3615937424817
85.1709782802896
84.9452422745983
84.8736687539041
84.8559220795994
84.883126387751
84.8327722138453
84.721840378463
84.4965231307298
84.4733839823249
84.419373244663
84.2376869284245
84.0996721626175
84.075647799558
83.9323292293166
83.8902440663181
83.7458783075102
83.5320308574164
83.4764683693537
83.5090337634986
83.4548482799324
83.3673108932177
83.2506023572047
83.1359657814566
82.9894809624175
82.9303489430546
82.8185354378691
82.8560634315486
82.8391207914162
82.6916851065251
82.5239122084161
82.4499683004639
82.3375847456869
82.3141912241457
82.1855426074665
81.9904607351877
81.8815155206785
81.9152514718997
81.8281606512733
81.7250627915568
81.679222595572
81.6413617839881
81.4817079757375
81.3960778886698
81.3813961257462
81.3363094732739
81.1738643154044
81.0816384255923
80.9562445687667
80.8983688478834
80.8778216074024
80.8718991390387
80.7785687223007
80.6971584653517
80.5720105209951
80.5187713051606
80.4605868721464
80.4499694086884
80.3823488383909
80.3421998611132
80.2863290087771
80.2622270978921
80.2197075732844
80.1345832662978
79.9924840975004
79.9420875186306
79.8372010055606
79.8097653463717
79.7946037435454
79.7567088948629
79.6906780433507
79.6502303912054
79.5649223158799
79.5455908132917
79.5174048871235
79.4770168326124
79.3799226392189
79.3977770971575
79.3455426734792
79.2361457163991
79.219748610128
79.3113059083556
79.2162651377012
79.137073807395
79.0910709930173
79.1128111026691
79.0806787730875
79.0374387861851
78.9406380710667
78.8504112248974
78.7996482161048
78.8740276266984
78.8919616059118
78.8319681031161
78.8117149277259
78.9386460640153
78.9115773399474
78.7949164017339
78.6604901336171
78.6149261651201
78.6677235047581
78.7407017439943
78.6944468817093
78.6839849666914
78.6009079552581
78.544930787925
78.4824983872009
78.483906567315
78.4766485973826
78.5288996376744
78.5382345315841
78.5728537639832
78.5221487890494
78.4950462022495
78.5258447252225
78.5139729812196
78.3693948833781
78.3575362489846
78.4446081972808
78.4933345584676
78.4436255703566
78.5055406037385
78.5500767633727
78.4872560776361
78.3911303056461
78.4543967669408
78.5497912582146
78.6762790847562
78.6486973199977
78.5567243478604
78.5498855588309
78.6408218731121
78.5955791981883
78.6181323699184
78.7624539106189
78.8838298939208
78.7796383663632
78.7228828730307
78.7343400899127
78.7764062859041
78.7905473799036
78.8709109580782
78.9069569642716
78.9242683920814
78.9014324153174
78.9680101312797
79.026620578037
79.0714081670658
79.0082012157998
79.0065939077198
79.0895832711697
79.1710885055776
79.1756420386445
79.2595352263647
79.2739788505052
79.2715016372755
79.3409742539934
79.4671823195011
79.4453727821507
79.4845716707713
79.5971811811404
79.6917484423186
79.6680688122712
79.7021953913285
79.7840253450691
79.8712214997158
79.837896740036
79.8900017033531
80.0497129166899
80.1790583870484
80.1647187206484
80.2593138311608
80.3811646151526
80.4656615133005
80.4697414918566
80.4888500682421
80.5269435220092
80.664878848437
80.7894465652662
80.8905698787301
80.8595456698499
80.9139736994541
81.048612914545
81.1346027903415
81.1161717966142
81.1813365982845
81.2431170642302
81.2835242611282
81.3347577174685
81.5029467468139
81.6039250331278
81.6387175572585
81.5778352845091
81.6050938099714
81.7008337542998
81.842896365798
81.9379280904009
81.993181783029
82.0278457981487
82.1002032079695
82.1169736299555
82.1979508413845
82.2415325162664
82.246408956862
82.23778053795
82.2808661917596
82.3019572855174
82.4062602870563
82.4445105099896
82.4278505637729
82.4479376105547
82.6110353678792
82.7337233272741
82.7451767624551
82.6863567266348
82.7247329084739
82.7849996183531
82.8845644790591
82.9354104265759
82.9038236503601
82.8721497813669
83.0359497350082
83.1131087123402
83.0781155701681
83.0223589226993
83.1167206770413
83.1965627223438
83.1571974190336
83.1144607030355
83.260655683363
83.3645069713285
83.3644681219134
83.335543021362
83.4842693539291
83.6340428488236
83.6857273195892
83.7392644985508
83.8557507883233
83.9190735301288
83.9624652382817
83.9576801422568
84.0382734709091
84.1267039565164
84.1499275729799
84.0843496948638
84.0891569115683
84.1564301926395
84.2797069355719
84.3528360049831
84.4219995061132
84.4879235662972
84.5975313041615
84.6567888002355
84.7439318090293
84.7966305316613
84.7735809069618
84.7302775497703
84.8021476951104
84.8615237701354
84.8810050346984
84.8842509648333
84.9267977213822
84.8671737723148
84.9020633961304
84.9941955756885
85.0195316046659
84.9552466568352
84.9008541401181
84.8550462136755
84.878035153409
84.8339349937486
84.810845823228
84.7940349582461
84.7947657949775
84.7391011671619
84.7014714067817
84.6763984393438
84.6700120792009
84.5626678369688
84.475485322735
84.4398672108909
84.4481936203415
84.3643481657345
84.2859410178617
84.2361351601426
84.231595448732
84.206665946339
84.2178407242507
84.2035666210628
84.2059934093108
84.114786744839
83.9753877888745
83.9049770641455
83.8931720403823
83.8045034461086
83.7372691914354
83.7236208837656
83.7466202051061
83.6457439451123
83.6037010377473
83.6326449827031
83.6395084936278
83.6677021625084
83.7672913651642
83.77442614145
83.8034889606374
83.886247719833
84.0639086918918
84.2352129360974
84.3596187210094
84.4081683655448
84.4745265695853
84.5133420431986
84.5563513245944
84.6200750369512
84.7271327665299
84.7572793948267
84.7973493418004
84.8699380924262
84.966352551174
85.0214165734151
85.1000336150767
85.1392900986598
85.1441552720328
85.1188967720377
85.1496363134788
85.1826648584432
85.2468560233524
85.2923991605953
85.3402959122578
85.3621262446543
85.3944964398925
85.4221729986482
85.4752076213669
85.5220444390478
85.5420402722037
85.4843868069191
85.5160565880058
85.5341405194057
85.5247936244587
85.5910286897787
85.720218539629
85.7696113001478
85.8089769535462
85.8582709243603
85.9921932892457
86.0875980546324
86.1971804784232
86.3205637254968
86.3901740376236
86.4371861874241
86.5595544763146
86.6194779761626
86.6353971257535
86.6668966043794
86.7415841705979
86.7415975969364
86.7987416713515
86.9035850806415
86.9265980918443
86.9245361259469
87.016967445533
87.0575941255193
87.0986883121385
87.1745700402651
87.2471196787844
87.253583956271
87.2375181331092
87.2670139396652
87.3235204369945
87.3704584241976
87.4177047259748
87.4142725158179
87.5083516809808
87.5706934552083
87.5820197393114
87.5796336292448
87.5772668469494
87.5685152495773
87.660252763197
87.7554686751335
87.782681630351
87.7800763190344
87.7821980876971
87.7699472329575
87.8422329624565
87.9257948472635
87.9772123276532
87.9696592479577
87.9794957449524
87.9821984827226
88.0152063242866
88.0527600525128
88.0657440272203
88.0349443921814
88.0498398315856
88.1116080201009
88.1865522698425
88.2024132387279
88.2199047996024
88.253439041833
88.2760166542376
88.2736764903652
88.2919784644749
88.2569227134055
88.2846172085013
88.3712918869185
88.4179989274277
88.3758558146813
88.4074317303365
88.479905637986
88.4852070529809
88.4811054840792
88.5272818930827
88.5500495172634
88.5709799361615
88.5738557638051
88.5967184450836
88.5872326094244
88.5951854624138
88.6178881776204
88.6536363789948
88.6884412971121
88.7315205366882
88.7467693418783
88.765180247914
88.7830576397644
88.824917366681
88.8355835123583
88.820134055558
88.8477385221984
88.9263202814751
88.9523781149966
88.9386925573309
88.9165637065239
88.9452324866797
88.9492422026053
88.938951466706
88.9730419761552
89.0549814550863
89.0839121342807
89.0608805307554
88.9951826601163
88.9927538105774
89.0428216220726
89.0523390685466
89.0667427453159
89.1356606117374
89.1391570835723
89.118944294566
89.1020622391066
89.1038230569099
89.176436495746
89.3115108577306
89.3659936643492
89.3141862050306
89.2847693141202
89.3692211034099
89.4503350452318
89.4527293267323
89.4027288073516
89.4619570925369
89.5549257584561
89.6103931457355
89.5993402781464
89.665516990234
89.7518980044137
89.7240824690085
89.6852966665661
89.7363365213828
89.7730874498361
89.8646222092046
89.9395379371983
89.8985215652524
89.8050476324834
89.8099780090995
89.8964977289058
89.9776488194485
89.9664989733573
90.02430436325
90.1371958032976
90.198062102437
90.1339122575272
90.1424658514688
90.2278075757398
90.277875361218
90.2764894237476
90.2720103110739
90.2660480421528
90.3146439973289
90.3863510477517
90.4502250231523
90.3626755060042
90.3104817366431
90.4113951959062
90.4970732569086
90.4886218006512
90.4807022024221
90.5273983782798
90.6307650200881
90.6279997158379
90.6027844227171
90.6011297195553
90.6567770311427
90.6806488324769
90.6797517477233
90.6708773865661
90.6978773985928
90.7320967391549
90.756821270364
90.7078888475622
90.6689116851706
90.6692534991972
90.7255056791886
90.7593871841228
90.8240330123639
90.8396790991409
90.8104790775807
90.8205499053675
90.8661264233189
90.8738563851891
90.8950770851643
90.875710262544
90.838046792427
90.8352936252009
90.9452314649776
90.9652831009946
90.9260689773897
90.891870835962
90.9435361438663
91.0705869713912
91.0538425099809
90.937519702452
90.9493427947705
90.9822356134369
90.9985565538764
91.0353695663287
91.0512928279924
91.0529942800677
91.1257007320331
91.1057877419885
91.0982129591799
91.1609799492156
91.2257233688743
91.2052471030172
91.0925177113251
91.0384316753369
91.0646282475428
91.0985793169554
91.1325314042692
91.156419930208
91.1231873332533
91.0737309696507
91.1561671866341
91.2147039998226
91.1950748347896
91.1329441683305
91.1780535302569
91.2944049973955
91.3093701993889
91.259940278072
91.2414139211289
91.2340943040652
91.2584171114262
91.2833865913049
91.280869858738
91.2824628985716
91.2820561210421
91.249607390324
91.2702444086827
91.3135444894871
91.3227682487153
91.3052991481667
91.295910377062
91.2182969277375
91.2608928620724
91.3669184279994
91.3661940207424
91.3534586830201
91.3809352865944
91.3205116062641
91.3244614372095
91.42456575127
91.4294611259731
91.3799020360144
91.3566498867907
91.3536143871059
91.3797226854362
91.3699520513133
91.2823369688912
91.2106198700104
91.2247494345782
91.2918834253984
91.343731587497
91.3376817060839
91.3220905405515
91.2791019619531
91.3100645064697
91.4277974252498
91.5571086976666
91.6451452355661
91.6949392195959
91.6993516786042
91.6717016366791
91.6170303286874
91.5640702112253
91.5249515003751
91.5904485403477
91.6229244404795
91.6168548265421
91.6100123875735
91.5331394631219
91.4626859507796
91.4743458750451
91.4626322632153
91.4825687774506
91.5336854766766
91.4707437468902
91.4389916159198
91.5466475032184
91.6268042138185
91.5493496480011
91.3909151229284
91.2827049479294
91.2942073736361
91.3836389986284
91.4637251871718
91.4960708282008
91.5197019970133
91.5376149271815
91.5417232937615
91.5063361343324
91.4709965659508
91.5457714804547
91.6779895429526
91.6784280845651
91.5560815205482
91.6188979327545
91.7459449235331
91.7524691641484
91.7967021928983
91.9082133945863
91.9187848421519
91.9178670208284
91.9134485296974
91.9258146364079
91.9732551391559
92.0740168612053
92.163392659426
92.2943754168267
92.4574349527512
92.5518665292834
92.6317854370551
92.6946428198431
92.6347393107234
92.6055015027755
92.6753407363416
92.7519056948477
92.7721377446078
92.8317198780969
93.0628459253451
93.2195196501603
93.0850095013063
92.9336563079512
92.9951131874051
93.1382342676973
93.3189217132865
93.5154036446701
93.4957755364093
93.3758605327866
93.3556141768366
93.474240447437
93.6914579195557
93.8102563293938
93.7947872675689
93.6886498291463
93.6929909510239
93.7935466236773
93.7980276956796
93.859955880136
93.9623755864549
93.7936379917743
93.8360596317703
94.0488415450352
93.979035710076
93.9028339992551
94.2209969329211
94.557128268095
94.5288719424648
94.6143467588292
94.8118544088123
94.7537837789837
94.6438914829891
94.9103121638421
94.9771376164209
94.7716023345396
95.0230100273603
95.3463883635123
95.3751547168696
95.2891569771802
95.3320538907864
95.3263363357405
95.6017548340072
96.0617570041616
96.0987368338328
95.7311088741477
95.4092498068424
95.5410100504873
96.0323181567187
96.6219479444986
96.8194784481788
96.9049112560292
97.213838443907
97.0113178551019
96.1396280757844
95.5758356377733
95.737502497547
95.9471579019794
95.6613841394739
95.2889536990557
95.2176486713488
94.9333702554087
94.6593561439944
94.7533631441299
94.7240938889425
94.5133073724262
94.1350587637174
93.8583227665805
93.8125146314385
93.7535333291003
93.670815019871
93.574413485605
93.5395099262034
93.5389453630547
93.4776239215285
93.3805641147831
93.3212997038779
93.4131719634108
93.5236601747451
93.494967909981
93.4567570452048
93.4641368029863
93.5279709370892
93.6231643215666
93.7120589563328
93.8094076069024
93.7321489201888
93.5716657465619
93.5536419476642
93.5833748859822
93.6930487317921
93.7842504902311
93.6151502616437
93.5577725609726
93.6735554451532
93.890279375105
93.9818338869322
93.9593140395154
94.1702994853009
94.2171087955537
94.1093619556477
94.1314522825594
94.3689866046363
94.4720837506495
94.4463080947263
94.5743124216054
94.7157263719112
94.8560815587981
94.9386488051786
94.9790917170744
95.1909679005243
95.2910071339347
95.4169986847917
95.8414680182032
96.1728459914357
96.3351023703581
96.6024920175498
96.7579655620561
96.7322877141883
96.9267864115724
96.9479524224981
96.682875451246
96.7491915733912
96.7360994590686
96.6130426053681
96.8681174317382
96.9689938166958
96.7328183483578
96.6485508607859
96.8485771534019
96.7849582474245
96.6501032046188
96.7791314904524
96.5848439034617
96.3246312008146
96.0385229316836
95.8615457242337
95.7320653261098
95.6545127517347
95.8338182644844
95.9300137047016
95.7049857122979
95.7218196296519
95.9816433874257
96.1930691924167
96.2135456333292
96.2497447992673
96.3056898634529
96.4982701331627
96.7342411759939
96.6766266265906
96.2925651237237
96.2819521357014
96.4498772358205
96.5592789544412
96.5883301643012
96.2200115192316
95.8393882302492
95.7657077677231
95.6874839074267
95.6085577305441
95.4322447854133
95.2295380621244
95.1232048916032
95.0904904708594
95.0402325635326
94.9146415803907
94.7002395615171
94.6964166530888
94.8869452320306
94.8545425378764
94.5757707547262
94.3863545736172
94.4860141164851
94.5735819938937
94.5336022423674
94.4157428307478
94.2906958713541
94.0834841553052
94.1222542339747
94.2685584802275
94.2806494757328
94.1970248159294
94.0525916325926
94.0784484983264
94.1368148853691
94.162074232393
94.2074242397605
94.160069679774
94.0807873984681
94.1290591796862
94.1095456182893
93.973305973981
93.9130312896942
93.9607981744879
93.9386222151452
93.924040367465
94.036620311567
93.980078304657
93.9044753296001
93.9649270335251
93.9730380750305
93.9192714561882
93.9187738362519
93.8775853077796
93.8331907188915
93.7991243610861
93.684468018064
93.7012933750132
93.8557891684041
93.9483099117543
93.8883583242803
93.8902390006424
93.9758882499422
93.96190610034
93.9404583157787
93.9246132228252
93.9190316379929
93.8408135823509
93.9227694909973
93.8191627340365
93.7501248855289
93.8731970961405
93.9056698547079
93.9057703368578
93.8945888402869
93.918699697897
93.9513460005543
93.8083869733738
93.8209153168067
93.8509018187252
93.8818206409163
93.9761637465917
93.9687524845781
93.8927164054896
93.8902637262018
94.0101042373817
93.9977334596525
93.8877888398894
93.8679458331507
93.8915744532151
93.8876810444968
93.9076508743616
93.8652787286882
93.7942645427219
93.7748731242551
93.8007081378732
93.8267849900128
93.6673502224696
93.5941140402096
93.727781585311
93.7724341027429
93.6619913276713
93.6387319475642
93.636753720903
93.5706463103979
93.539582649469
93.4461058539064
93.3802319667312
93.1639184146375
93.2264236726777
93.1446587336258
93.1304631973588
93.1731185859797
93.0533835610759
92.899011317712
92.8948979445502
92.7045030965362
92.5986466754415
92.5323493934653
92.214846018863
91.9349340968842
91.7890643109728
91.7243957562292
91.568344284268
91.3347272842896
91.0942822387228
90.8671673555606
90.8173669031424
90.2745253356543
90.0083650548561
90.0784078934101
89.9911653266279
89.921157858727
89.7502303888862
89.5008775702944
89.3382079630401
89.1614933660126
88.7292758956205
88.5821265316548
88.6014403719189
88.6816447017426
88.6004876296973
88.4259795998309
88.1434604127594
87.797103107776
87.7916392956814
87.3975660093014
86.8669310713978
86.8635440965334
86.3234185048263
86.2012670535222
85.9416537012303
85.4635719071851
84.9952297485455
84.6333496755266
83.783766852889
83.366002927708
83.1350343111208
82.8097370623239
82.4063038573269
81.633096990556
81.1912107829931
80.7736965037358
80.1286807958165
79.6610858079436
79.3531941643103
78.8271179088955
78.1916847883297
77.7819035904463
77.3373546120213
76.8867548913648
76.206441665954
75.2169361006657
75.3492530129613
75.3480278443473
74.812613416258
74.4723070872358
74.4350542401495
74.261208564118
74.0174889474372
73.6882606139557
73.1580258881901
73.1675411332045
73.4086111779414
73.3907521740908
73.225616594482
73.127975081435
73.0625952872015
72.9359085819858
73.0662898298052
73.1206110584705
72.8893739870736
72.8547529836054
73.1177560915199
73.081884618538
72.9843409790001
72.8962963195276
72.8908097123721
72.8563361929078
72.8154445954836
72.7825410315181
72.7715495615004
72.7116559610577
72.6782014915388
72.7231640825986
72.8281952608096
72.9048280340926
73.016307384421
73.1308288181111
73.2646102918168
73.392700716625
73.5144945414129
73.5140242131658
73.3406792086003
73.7455378919656
74.1455480065813
74.0211635899351
73.9228379010714
74.1894898530103
74.2459671567877
74.2575023110451
74.0236477978661
73.2222221170387
73.4931276837558
74.275700651719
74.3285429450593
74.3929352599769
74.2202411419339
74.2168286071713
74.1947097550985
73.9305859158121
73.8460889304116
73.6907293473066
74.0630944373186
74.9331136236804
75.1181858586506
74.9046277433828
75.2691952876958
75.5297918505483
75.5708561761773
75.5903585324369
75.8106132994283
75.7909648735781
75.994568779185
76.4557332486704
76.4803894888706
76.8144853177749
77.0080143923492
77.0654049956381
77.0296528506676
76.7091089607546
77.3552382365308
78.4283000355589
78.7045391807168
78.7143253767407
78.7651910042691
79.0592057648377
79.7175716342568
80.078462402333
80.0198320970226
80.3205342572584
80.8684982165266
81.3769855394639
81.6711928146779
81.7956891293359
81.9680512723014
81.9470609452942
81.7802662947745
81.576434617099
81.3207358551711
81.4310174590253
81.2471355811641
80.7816453492906
80.2662022972145
80.1864288828709
79.997073204754
79.4942785117532
78.8257576511392
79.0253151838052
79.2428610258746
79.1255107656671
78.9554355786535
78.7572078467665
78.8125026446109
78.8744023447193
78.8258482200532
78.7719935509836
78.5954503588429
78.2022142744409
78.3391925725695
78.3685031630262
78.0925133526258
77.7795312893934
77.5616526276172
77.2522272921574
76.8908729593373
76.6535406858328
76.1737458749894
75.9502492363613
76.0772441963406
76.0400676275779
75.9031665632893
75.7700985932761
75.7369740531052
75.6639873792021
75.5997106133728
75.6719762084429
75.7094278531793
75.5732636508378
75.6769757462856
75.7458647851827
75.8515054138364
76.047333267798
76.0726577675744
75.9542708834235
75.9476851734984
76.113816173209
76.1424125275936
76.1412617400499
76.0810599346326
76.0771894127796
76.0494920796883
76.1114618378877
76.3053653659358
76.3980438091306
76.4920027549402
76.6303208002277
76.6577118381138
76.7729835434062
77.0745170680141
77.3044432381525
77.422842317378
77.4932692093066
77.5982921546438
77.7073883895614
77.8092120318249
77.9227623530299
78.0029374118212
78.0738681687068
78.1084605310481
78.1074776590594
78.2211604167217
78.3580085931431
78.4742650050812
78.5476394747754
78.5981615132594
78.6531948983438
78.7336774749249
78.8105506476059
78.8389447256653
78.8582998227228
78.8980470390497
78.9504920785715
79.0139099876089
79.0707443125912
79.1410673187558
79.2203609193754
79.2736442061783
79.3374299600427
79.4120505998678
79.4645343494708
79.5116975976952
79.561873955969
79.6211044423025
79.674979136596
79.7072217915946
79.7224091795351
79.7305728331457
79.7319498979393
79.7321242670706
79.711304009111
79.6731223622371
79.604140789662
79.5076922480625
79.4084115131526
79.3012280881249
79.1596234036286
79.0090520835129
78.8671936316874
78.7126643949445
78.5380614211891
78.3648367705326
78.1925484514662
78.0299177476201
77.9126132764902
77.8188211985606
77.7079647506918
77.5726669078883
77.4408806257039
77.3246575765446
77.2077561340608
77.1044919377233
77.0313104217652
76.9844337250006
76.952892184712
76.9225789657409
76.9342227163823
76.9836079021785
77.0199338649649
77.089090302607
77.1807319429971
77.2650354853041
77.3652839675845
77.4931699583083
77.6056324567747
77.7303679661801
77.8681435340028
78.0022890028316
78.1393877462052
78.2966456994074
78.4571113659838
78.5959357045082
78.7011666268856
78.8057947649941
78.9434384606805
79.1098585737123
79.2851373311059
79.4385787256756
79.5646862521117
79.6669004033771
79.7429388604791
79.7951507281659
79.8137364552809
79.7949866096525
79.7180075704026
79.6010984243287
79.4800206487675
79.3360986603258
79.196942585929
79.0864208253465
78.981928055927
78.8665898353244
78.7475575506016
78.6222506502544
78.4625030993422
78.322677627926
78.1900492730051
78.0064367817087
77.8038079963071
77.6269883601279
77.4468172140484
77.2736025005913
77.1195255181573
76.9558401013282
76.7646167732426
76.5739732753271
76.3768794985306
76.1387501699028
75.8377245541088
75.4815129917536
75.0883237516068
74.6571764026944
74.2146224306298
73.8037124734133
73.4361923540666
73.1183313453733
72.8402679337097
72.6059548891359
72.4271252204297
72.2956553290671
72.1393691457864
71.9994786313241
71.8840168411218
71.7669154686971
71.6271986409607
71.485088084297
71.3223886122185
71.1006552724678
70.869214159326
70.6246164872665
70.3453925915366
70.0448493664667
69.7227663329088
69.3867757034948
69.0316713316257
68.6697737299935
68.3162768999039
68.0051185833428
67.6822191686345
67.3563951805876
67.0620798876595
66.8024943482944
66.5695915157196
66.3519250844451
66.119227133299
65.9215217681605
65.7817067003966
65.6530594936219
65.4930679929473
65.3459872033785
65.1740809252652
65.0466440107926
64.9229931695202
64.7748775186812
64.6184694839793
64.4424540595272
64.2749390983663
64.1385544141594
63.9809580106001
63.8177190871188
63.7140134357291
63.6316586675742
63.5564807247676
63.489802043921
63.4055865152428
63.3824378261368
63.4144592119926
63.4644637799495
63.5290975506549
63.5950798692259
63.6680644197308
63.7924642145339
63.9157331964537
64.0616575267363
64.2813665951127
64.5209954160932
64.7901423846861
65.1080715359427
65.4105858718225
65.7049310442734
66.0107539147582
66.3264102214984
66.6353030378067
66.9502261062013
67.2362730855119
67.5264021105302
67.8342323100988
68.1614180125926
68.4595024043235
68.7362613238432
68.9833652316951
69.2247777153102
69.4654692575487
69.7091891130966
69.9302913606206
70.1358087604044
70.3389341532848
70.5513858628055
70.7701279660137
71.0492739831178
71.3348190717797
71.5964035200729
71.8890196784398
72.1933414804481
72.4487997400486
72.7181126158043
72.9961908700105
73.2694100927379
73.4993515543762
73.7448359494895
74.0011245650369
74.2545300953575
74.5259658423306
74.7568835490075
74.9901912988336
75.2525597081099
75.4995406047887
75.7339075554769
75.9524003819255
76.1535034334683
76.3191271857503
76.4780356621193
76.6528074083356
76.78183706637
76.8658556043702
76.9523978489995
77.0707795539294
77.2086979296166
77.3012315135425
77.4129203164261
77.5220767103859
77.5951522461082
77.7157232505174
77.8351893482252
77.9027620471015
78.0030541634907
78.079854159937
78.1305666466033
78.175507826359
78.2025614063976
78.236493845786
78.3185820329137
78.3844873742956
78.3856001913191
78.4049058755502
78.4514132545104
78.4647924444765
78.4514584996087
78.4405575965669
78.4659162112016
78.4760742968163
78.4975233960701
78.5268495325691
78.5179892907931
78.5282341804674
78.517295349771
78.4928088792434
78.5154563856046
78.4961853652343
78.4605170628668
78.4686919978951
78.4928118797252
78.4512205547659
78.3964443535537
78.3325616104616
78.2853663444288
78.2199454587196
78.1247449909714
78.0462035791651
78.0332179828016
78.0410593448679
77.9973921651494
77.887002457532
77.8525473816262
77.8443994484367
77.8003085784021
77.7463617176749
77.7045161868832
77.5880527903488
77.4879048124558
77.4526160189731
77.384623548589
77.3303379160217
77.2923604080196
77.238325145674
77.2021913270628
77.1275564062843
77.0829915783554
77.0837091564187
77.0426413058202
76.9644304217639
76.9394048097199
76.9171889495801
76.8978705115702
76.8600315414781
76.801511390155
76.7138490649554
76.6344519401058
76.5510177047832
76.4986337999248
76.4674251668516
76.4197127368099
76.3548780892787
76.3525778460609
76.3266931308084
76.2732272899741
76.2110641347458
76.1397982201747
76.0562792057668
75.9650350892298
75.9185314254739
75.8731426836209
75.7519251258315
75.6764746639387
75.639756344583
75.5716507140836
75.4693950090049
75.3944887416039
75.2680578624014
75.1388460091827
75.1012225355026
75.0801598456845
74.9577490666709
74.8687941439874
74.7742555794278
74.6251470476129
74.4944893690889
74.4524552771683
74.384699844907
74.2561994153898
74.0757678434805
73.9147671177182
73.8048693458569
73.7201259611908
73.6264010464673
73.4847610362689
73.3120680245098
73.225380309908
73.0793991351164
72.9028977352514
72.7308012792272
72.5624801447817
72.3364312390355
72.1847356575149
72.0346814805945
71.8893519311131
71.7670634085241
71.6539085260241
71.5624884215147
71.5178331310434
71.4283043913772
71.3503450939557
71.2005849911201
71.099500378424
70.9703171072771
70.8301321293517
70.7076570849285
70.6587943201334
70.5276747531327
70.3320287106856
70.0073622290826
70.0833205028935
70.0985563831249
69.8789537710133
69.7018078580747
69.5646565395473
69.4863514096838
69.3819313604451
69.256304689737
69.1046681562631
68.9034529250307
