1798
3999.43349933624
650.420452594757
1
128
4
97.7237459045693
97.8285274933231
97.8457246035357
97.9363831449486
97.9222841058179
97.9498863880155
97.8947323984084
97.8580562386806
97.7964290223967
97.9539093219705
97.9258970492055
97.954730765352
97.9326418602285
97.9791239757061
97.7813950864148
97.8120148849841
97.8565472389746
97.9053182735787
97.8625394797136
97.8504632943504
97.72902326679
97.9109699428255
97.8662121918046
97.824034029871
97.768389928201
97.7730814117092
97.6567453765208
97.67355494908
97.7034173308238
97.7997802176498
97.6906946161077
97.887771430813
98.0754780957444
98.0499484859231
97.7382613623014
97.5474014944622
97.4570971291979
97.6823437980458
97.8307856886536
97.9662583906662
97.8356383448929
97.8468996712354
97.6970979112047
97.6757055265984
97.7286562566838
97.9222058591883
97.9044560285718
97.916207841956
97.8167713146012
97.7232106641689
97.5581036775394
97.5092611170293
97.6426931731011
97.6896568133949
97.5741419123811
97.846323538176
97.9398130827168
97.741757806643
97.4044798127072
97.6785257777428
97.7332194633151
97.6008779793805
97.7498006293222
97.6414532045268
97.4281956325263
97.7459620411015
97.8356073685069
97.6911479851508
97.5712769736922
97.3068503395862
97.4779822466764
97.9079560789764
97.7002283518825
97.8710779603302
97.7220370705426
97.7635222326606
97.7570552993786
97.3081226635005
96.5917222792884
97.2962018662673
97.9821730354928
98.1001453701848
97.8935900533613
97.7017654956212
97.4665266092095
97.518195137539
97.3519325807547
97.6123785407602
97.9138711858926
97.7288335577623
97.4596124772936
97.7156352652483
97.7475482920689
97.8170548826591
97.7401287357931
97.2571241380404
97.2493551712897
97.8076583080303
97.4986282008321
97.7952390279828
98.0656430947647
97.9656540048028
97.7310003259303
97.489705333353
97.6416377514941
97.6078099895277
97.2391422765342
97.6237128794318
97.7008092113675
97.7728265954169
97.8580959869009
97.8047763492435
97.8078745561455
97.8399931948642
97.7158251787483
97.5742722409803
97.6775381676461
97.6886611215456
97.5346894869887
97.8522658744151
97.904598829666
97.7814817279649
97.6822431339442
97.6709577702939
97.7377716590612
97.6855941921694
97.6984876684587
97.8297838229086
97.635102274217
97.7677281198143
97.8587334694089
97.8429736491813
97.4100150249636
97.2462652896572
97.4284729677943
97.6993716197231
97.1079780832896
97.1842868210098
97.9726472434778
97.8908822114216
97.5810774837801
97.2288991911386
97.2693328822121
97.3171113025448
97.6903803848747
97.9453118410414
97.7310243955353
97.7223181018425
97.57218232032
97.6056057110761
97.6930208600395
97.875022451066
98.0605021824836
97.7370941203675
97.5283277928908
97.7559888233738
97.8292415466669
97.8971018753069
97.80813718712
97.6153985123267
97.6342541879885
97.8632971559233
97.9023128580417
97.9399003197821
97.8158948582723
97.5674591699159
97.4804297229324
97.612609162902
98.0066114797246
98.0168424808805
97.8097592505735
97.5863424910276
97.4049097516243
97.1725453147207
97.3843989720474
97.9557753698447
97.3656711313596
97.2790035902019
97.5662009389167
97.6252887251962
97.6540649339762
97.6138232516083
97.5303148186474
97.4651756602795
97.3479659328879
97.4739411553733
97.1439066528769
96.8788886240735
96.9120746442083
97.0574480084049
97.2039586339649
97.2424422223527
97.1822373760326
97.1436338618285
97.0856702567556
96.8468043191825
96.5678659616003
96.6588318786437
96.3457270029337
96.3496130036755
96.8102817914726
96.928020155294
96.7583162618397
96.4480435457154
96.3607530680245
96.3544896441108
96.2004790392659
96.2818561908774
96.2269648681778
95.8698408238089
95.6466101084168
95.7718770100256
95.9775661032187
95.9211301332024
95.6778021075371
95.538479089513
95.4120189943212
95.4122202186659
95.5715342302397
95.4854275076773
95.1005427237544
94.9446416932407
94.9822987906332
95.1229247723176
95.1145265685824
94.9689462479661
94.7516807437897
94.7244779378605
94.6975345980357
94.5213326443114
94.3115189288523
94.2608756264357
94.2047669830962
94.2477090132155
94.1764642397952
94.1281576033597
94.1145670463567
94.0026751483004
93.953171040548
93.9388354359632
93.8726097697995
93.7855161878737
93.5035037017051
93.3103013514676
93.3558512856002
93.4637124607763
93.3865871288626
93.2460180656512
93.1135134135021
92.99501351644
92.9786954469541
93.0305531580365
92.8190429598945
92.7515717220184
92.7351515513579
92.3806536332068
92.3344473277326
92.3715834844374
92.4096878519672
92.3282834061424
92.121998986891
92.1633054471459
92.2676633122409
92.1387768843634
91.8062716135949
91.6596435236684
91.5251009624546
91.4536184134921
91.4128768234025
91.4025620177528
91.4822277533724
91.4520665028376
91.3583102547871
91.1993484093278
90.9791039991498
90.8623561753908
90.6577120597884
90.6100125134525
90.7302218518306
90.6589576756764
90.5255785052375
90.5660015762772
90.4934547912354
90.3364208406072
90.1796804424605
90.0670116633476
90.0302213319304
90.1061539262738
90.036731963822
89.8879740460635
89.7231105964416
89.6205788847909
89.7024156444493
89.736487990393
89.7441558599827
89.5619327062719
89.2581659758883
89.2312291189812
89.2693175766887
89.3910663190699
89.1814290324739
88.8217862713635
88.8200346121768
88.8696336400421
88.7960809869026
88.6714956199127
88.4834045084348
88.4975562081621
88.5936620584545
88.5263094423107
88.3720310723827
88.1650022685906
88.1587117309194
88.2059448364035
88.2266416174575
88.1583236332971
87.9191020810371
87.8450003947917
87.9142111783201
87.9213556955231
87.8023704901092
87.6792417848378
87.4764716077354
87.4938822683002
87.5339170004963
87.40401636103
87.2706715420343
87.2178618802685
87.2002549508345
87.1909081490547
87.1955914203475
87.1282975699581
87.1001265056405
87.0540750658789
87.0276251923905
86.9255521328233
86.7685695380901
86.6574981205876
86.5880038893857
86.7101203121191
86.7063246315682
86.4463425057914
86.4186838559206
86.5357581802338
86.4360289700233
86.4077271840603
86.4240130873072
86.3255313856058
86.3489615047168
86.328308287139
86.2081209680308
86.0964413706677
86.0416526932284
86.0681146828698
86.0334284290086
86.0117289255048
85.9412020607773
85.831626238801
85.8067199441464
85.8654983980942
85.7980062641879
85.7368890560019
85.7716074380735
85.8408926492833
85.7601646232123
85.6884607161652
85.6075482047022
85.59942771195
85.5666854975404
85.4580676370882
85.3865282513851
85.4125806262708
85.5689271971731
85.6295383712097
85.5160822650335
85.3836571862255
85.3549955498078
85.444459213091
85.4524789349543
85.3574399975314
85.1850762442046
85.0899956370158
85.1641265952283
85.2430005069635
85.2954443083998
85.2702097364497
85.2020077507795
85.1577259263017
85.2414793064151
85.291575553598
85.222958726494
85.1855278289489
85.156174107179
85.1330710464747
85.0469799596244
85.1174533580347
85.1761482385033
85.1266234786897
85.0363405779639
84.9729773423908
85.1193610479151
85.4138348683921
85.5135558222398
85.2432507888623
85.0262522223232
84.9614777333256
85.2324219217832
85.4895160543619
85.4749779706757
85.2678535186281
85.2390534293967
85.3082043458136
85.4563473556648
85.5649743765879
85.6265170950622
85.4873326329213
85.4335636068748
85.7575680767202
85.8749121132939
85.7703453580325
85.4452685207381
85.5942169736288
85.6637168311318
85.5556338696972
85.5227199492666
85.3889003981493
85.3088094084662
85.6048035734779
85.9867974658817
86.3166172654956
86.3530512365784
85.9434569507621
85.6225123841634
85.7167171635611
85.9123953586966
85.8154676074361
85.844956997782
86.0674606152458
86.1181253075417
86.1851770401555
86.4104010110042
86.3363588417534
86.0200367156488
85.9531347591462
86.2828151401282
86.3430154805035
86.3914230722717
86.4986203409848
86.3553664540265
86.3511484990289
86.6842233842911
86.8379131167844
86.7705476998722
86.750569993949
86.7711460740622
86.7703561563103
86.9112288055447
86.9880526383775
87.0156089791412
87.1353767212658
87.3886148755362
87.4128248828341
87.2433240535866
87.174612657607
87.3148292110558
87.4412476791144
87.5184234807495
87.5142800540482
87.581940368386
87.6665396177545
87.6548186033116
87.6014821894283
87.6863896076859
87.7311806447128
87.8011776184814
87.7803414639747
87.8847569658975
87.9252899431859
87.8600388207309
87.9080097316063
87.9528237760293
87.8787505562754
87.9912608349144
88.0339289201136
88.1708144321326
88.2048202964969
88.1344467987614
88.1117593405526
88.2178312422706
88.0480968636565
88.1342666610276
88.3286563597417
88.2946198754593
88.3266604542264
88.4095051478346
88.2318628805196
88.1787517204592
88.2677977871113
88.4630188432753
88.453703772359
88.2257154022224
88.2238313373538
88.5758327391875
88.7145468270188
88.7300963529984
88.7241904647205
88.7290738194377
88.7563905778558
89.119782134445
89.3075557206664
89.038956795416
88.9070502179155
89.1588257892743
89.1922482180145
89.0964102161911
88.8651499011886
88.8735198513722
89.0324875661176
88.9863808422332
89.0227526949654
89.2694764216015
89.3707822007301
89.317987152601
89.1945527740623
89.3204586356346
89.5211172609047
89.88107088316
89.7347429700152
89.482314215524
89.6746474632933
89.7324979587771
89.6463872956604
89.7454550675222
89.6329854850872
89.4128686466675
89.4085781202068
89.609326378584
89.7060243855534
89.8456131001302
89.8655561545003
89.8070653789267
89.8529025503093
89.8212047323514
89.6391283808072
89.5497346083486
89.6120675451808
89.7522057269911
89.5630757383
89.3808653191847
89.2416931178682
89.2438097515564
89.3262746611103
89.3929971121392
89.2032791872211
89.0664788542759
89.0366212727447
89.0592996197084
89.1454518885644
89.220601733585
89.1807418171326
89.1551100248035
89.0829804419916
89.0813576500462
89.0395429537463
88.9992051051992
88.9444393702314
88.9479170379928
88.8739776984924
88.8522824184529
88.7163205158393
88.5871315630353
88.5400891603566
88.572487546767
88.521906389148
88.5348027690376
88.5969599234054
88.6043336816265
88.5118048942765
88.4693480120535
88.4621555097983
88.5422555770662
88.5865283595706
88.7180235546219
88.8165599283055
88.9042711547325
88.9327533063403
89.0228100124372
89.1463065051895
89.2043373261142
89.1645637344884
89.2322657588076
89.3226713596641
89.4730200821228
89.479755862371
89.4623124564473
89.5280919470025
89.5958000170942
89.6002438795077
89.6954675208063
89.7074057847615
89.6870163706964
89.6799732813903
89.7279117440115
89.7326969337407
89.7273393509433
89.6935329002411
89.8307005326409
89.9137852202587
89.9076050773929
89.9124405482501
90.0154894732239
90.0494158701921
90.0740339223145
89.9996281752502
90.0069081557696
90.068859710389
90.1328413456209
90.1982436399222
90.2995566752854
90.2773334479225
90.3864193777178
90.5024541746656
90.5030340023754
90.5728798758889
90.6994937836089
90.6757320253042
90.7399556109774
90.8303177064373
90.943447424005
90.9904529321215
90.9961389734245
90.9919792304693
91.0425262674436
91.1056972771552
91.1972547468286
91.2422636073032
91.319562341465
91.3542036599229
91.3324334945698
91.2955199381004
91.3389341073865
91.3087992232835
91.3867819774016
91.4523733919138
91.4760366469521
91.5001791715868
91.5667664281601
91.6194154635624
91.6604521771606
91.6143998646666
91.674895063941
91.6775019210274
91.6626724829967
91.7133163176601
91.7518274603909
91.7032824599743
91.7593997316502
91.8068756452811
91.8273938075648
91.8245505545394
91.8614200386086
91.8766201493598
91.9023713876451
91.9120842651689
91.9809076012802
91.9587889201259
91.9656909048974
92.005328040606
91.9821756072327
91.8988625161146
91.9541466319505
92.0621064679881
92.1509951339847
92.1115768496476
92.0899738875355
92.0768889529549
92.1093600357999
92.1862905344988
92.2668744626606
92.2187414090505
92.205084938064
92.2221707194952
92.2376310482192
92.2105416820678
92.2572757420428
92.3116854729627
92.3462461936772
92.3367983659707
92.3484906032586
92.3111110438252
92.3222895007369
92.3560459881198
92.3869819127629
92.3999696562616
92.4130435126671
92.4029114900366
92.4561331999586
92.4824195250266
92.5066262261911
92.4843462835076
92.4885640316053
92.4804715109627
92.4788061793563
92.4839763636917
92.5801159633272
92.6591731771136
92.6753791204229
92.6282573786732
92.6136739004098
92.6088352208889
92.6532461631251
92.6829354377144
92.7324225370309
92.7440556994327
92.7587568855752
92.7224728465375
92.7048104496197
92.717822152966
92.6934778187599
92.6132416324259
92.6617530006721
92.6728898184321
92.6650200261435
92.6862886201346
92.756925100068
92.8600179777927
92.9142713540636
92.8887786384473
92.8674065717736
92.742871424557
92.7779421766654
92.9235346840477
92.9592320572007
92.9305048952508
92.9413537981334
92.8995310137534
92.9783036464407
93.0940580486147
93.1574104971754
93.0663025428044
93.0414296759246
93.1031637717449
93.1262262117971
93.1241184505116
93.2050552648925
93.2437918787063
93.3334117076791
93.349353981293
93.3290686849141
93.3646316965391
93.3651256034855
93.2991838856397
93.3453759550652
93.4012281778796
93.5222460010646
93.5019100383703
93.5108978539674
93.5651140942935
93.5494443061387
93.4650233367609
93.4842121729032
93.5910722797771
93.6617845184798
93.6938190633296
93.7991335391107
93.6989681437711
93.6008826931327
93.5930620934876
93.6863072121321
93.7549508429773
93.752220691713
93.6395685648511
93.6918251480063
93.8071753583875
93.9034875247273
93.9026794671468
93.8570490036022
93.8081884734567
93.8317796116394
93.8030500632586
93.8706002797752
93.9965075629128
94.0803416318469
93.9831666592359
93.8944124635125
93.9240789470936
94.0162112052724
93.9925373972522
94.073073251431
94.0961777811864
93.8573988984787
93.7233762167354
93.9455605989247
94.1239034479332
94.2812137231938
94.2617909429282
94.0376318850294
93.8673059012317
93.9390329488883
94.0293844257877
94.0512757152258
94.007159446269
94.0462582978647
93.9564936965603
93.9015478245222
94.1360789728252
94.311990898396
94.1646981595383
94.1037308867605
94.0520694189501
94.001991020123
94.047685884939
94.1835093129801
94.3542916547335
94.3779120579808
94.2322213392143
94.1741146492221
94.1957867197003
94.3002474890212
94.2461448811131
94.096031855012
94.044332485114
94.1068561411842
94.2049981507534
94.3532570185105
94.2835729570986
94.1127771498893
94.1213963902117
94.1912150223792
94.2827528052793
94.33306092849
94.2538419510919
94.297707064279
94.3590329895077
94.330195568882
94.2460829600861
94.2192083636427
94.3132741838927
94.4761269530401
94.5302294579136
94.4582881545383
94.2996019734934
94.2532722681595
94.351880464503
94.40621336462
94.3578979346864
94.3798892044174
94.4007255463045
94.4092221242464
94.3963821493237
94.4297375645554
94.3947099472391
94.3829524546588
94.4444041923027
94.4068473101021
94.4142088935599
94.5385759433743
94.4775080358774
94.4030252247656
94.4300497681056
94.4832646717133
94.5078616657571
94.5042449960069
94.4817810414718
94.435946781506
94.4013271295943
94.4031882868193
94.4340587414765
94.5368913177333
94.5645144850137
94.5434169671941
94.5098839124519
94.5418260105729
94.5896388819435
94.7230194004022
94.7388992697546
94.7222937967947
94.7734498399283
94.7002861467138
94.6169347433577
94.6973421539484
94.7268699832338
94.8307837078223
94.8131077591124
94.6245359974794
94.6432715385922
94.6548083803973
94.5127986577452
94.5224840468256
94.6515337420529
94.7830963686713
94.6765692162186
94.5482931879585
94.6123123060013
94.6775554706891
94.6395438043172
94.5986622254345
94.4868010775898
94.360273710267
94.2825269461279
94.2789919296504
94.2927045236519
94.3443565949655
94.4479877251736
94.5689128921616
94.4432733479687
94.3789574341647
94.5419965379851
94.6144926743295
94.6554982674865
94.7301675440205
94.6102509557485
94.5399290108492
94.5123309349601
94.6075188290708
94.6304617380401
94.6155903307363
94.6126418311482
94.5016659249271
94.5984746943012
94.8936691322194
94.865427927648
94.7435627518711
94.8994825949632
95.1717453101066
95.2585011727299
95.1896269845016
95.1062757499759
95.1332164618417
95.1769174418489
95.3407558501295
95.5809185834492
95.5833939727016
95.5021168433448
95.5097720471015
95.5664476512681
95.6721157411119
95.5793635027111
95.6007441264298
95.7434853480929
95.77725621994
95.8137425860944
95.5360618086321
95.7184537078853
96.1298214805556
95.8435675226616
95.7455864473663
96.0452970781035
96.190332491465
96.0757005100522
95.890623117981
96.2506060385373
96.7213356145853
96.3117541568753
95.9289889294232
96.0677057319104
96.2826798548412
96.634008498802
96.3129844928905
96.0404277755428
96.2801774040923
96.5349934028652
96.5354774220573
96.1722759091326
96.1862063093138
96.4541408081364
96.6200648932111
96.9912040130987
96.9898836639606
96.5314068727381
96.4763602761929
97.081289322547
97.5225845344331
97.2966388717966
97.1020770945233
97.4531602713863
97.7519388604688
97.7104950317179
97.6611757776139
97.5437062723464
97.6004522591306
97.7688367655429
97.8222214318943
97.841379059078
98.2688687126276
98.6400034109406
98.5775161861192
98.3331471451746
98.7449676514704
98.9917619916086
98.3275691958831
97.7395467196736
97.7655984609319
97.5614283310066
97.6088579943366
97.5624002872355
97.248157311023
97.113582766313
97.2998521232628
97.0505896076366
96.6277442140181
96.7057246039099
96.7668686188525
96.6504622961586
96.5618672103057
96.4494545201269
96.3022836658984
96.4319274986469
96.4525291203268
96.2944172291304
96.4136239981158
96.4592499264264
96.2115653606571
95.9570981804117
95.7624066086705
95.9615515588075
96.4259664034864
96.5701386740285
96.4391774606084
96.138905172704
95.9239714452715
96.156246234396
96.3742465945375
96.5038840320979
96.6607931779512
96.4835486679251
96.2899495572458
96.3579959971487
96.2951255280833
96.0737737577917
95.9807723355833
96.483919221859
96.901338787581
96.722275302317
96.6011187379066
96.684993832348
96.8661205033421
97.0464123343282
97.1365951487915
97.1730196608286
96.8701965245236
96.6308936565755
96.9875046832033
97.2656820613047
97.1799515415503
97.2605258087971
97.2463082719355
97.5947551732645
98.0662063222427
98.0798927011877
98.2218252352701
98.162669114765
98.0452666514586
98.7603757932042
99.018599878728
98.8992530015228
99.5191454031779
99.4583792241628
98.8026559254716
98.5174219939705
98.7067283221502
99.0378254840316
98.7358840966795
98.4211587446221
98.72853457295
98.3078038044702
97.9393069839912
98.2004701538713
98.5632818362152
98.9473177546036
98.3822507505242
97.8360675896428
97.9408464912945
97.9846767750442
98.0934956991823
97.9725999998147
97.8417383899661
97.7128322568971
97.5774494135679
97.7536532458628
98.0043875234211
98.4265288255597
98.2716784945847
97.5589455470877
97.4788159461567
98.2678893502193
98.9542307625156
98.9434860029711
98.7964577024029
98.2541254574314
97.8861695596396
97.8767934654468
98.0907485616086
98.2013206699158
97.985639412707
97.3748741466585
97.2652473244815
96.9662514332558
97.1787108967941
97.3711619728495
97.1116751958138
96.9954052406718
97.1766989978234
97.1348440483715
96.9371827972443
97.0002734284978
97.0811475380292
96.9661094560183
96.8004155667894
96.815320454773
96.6521821501444
96.6513464615064
97.0373594779775
96.9872062471754
96.5568723781311
96.2340334361698
96.3596577042284
96.8161254708844
96.9579123069553
96.8286114291416
96.7436999804396
96.5748970437037
96.5747397251111
96.5008258067153
96.4112538041521
96.6654074655218
96.8904824973644
96.6698079426083
96.428658077853
96.4325351345878
96.5633217413523
96.469817162869
96.4421584175983
96.6487370211889
96.6163565830714
96.5663832732075
96.6795110751874
96.5731106436322
96.4407262499181
96.5113432302596
96.6005847273245
96.5519409944356
96.3988524146112
96.3517427384571
96.4689203864947
96.4795000087736
96.5246771686362
96.4105677270719
96.39185198576
96.4830613064299
96.5585627611268
96.542407826717
96.5328266571061
96.5278729687379
96.5620707150132
96.5162550509331
96.3673849706056
96.4553342435177
96.4919292698175
96.5357907628767
96.5284959907091
96.4279356146435
96.4547774001627
96.4415496506367
96.3815926100182
96.4054970751379
96.389525517513
96.4831497525441
96.4661768540594
96.4859773229339
96.5620758129509
96.5938741899379
96.5563885549803
96.5333516765297
96.5004261929713
96.4809912684047
96.5092926698316
96.5113316050143
96.4665215691533
96.3517863311176
96.309207946254
96.2988456095592
96.3633519445567
96.373756576202
96.133952354536
96.0700471888556
96.2264404398374
96.2200853738739
96.0515612083438
96.0658028539133
96.0094624681447
95.9482087456991
95.834655675249
95.831896291119
95.6554118387447
95.5184954603763
95.5361986526792
95.418882818043
95.3627321708007
95.2877751891657
95.1852061129134
95.0212697091846
94.9555533246564
94.7949299250594
94.7499396257036
94.5277629263552
94.2498865338655
93.9522237979937
93.8973151341839
93.8831694990252
93.7056203808144
93.4904684546137
93.1382586998942
93.0558354155221
93.034515316356
92.6440217297067
92.4246280047553
92.2973974415448
92.343876179933
92.2205621244344
92.1001165631252
91.9090230911617
91.7881463460235
91.52999949711
91.2292540992558
90.9983759870892
91.1317464849742
91.3110519778936
91.2203635796345
91.0454008491071
90.7596393256571
90.600568640664
90.5529177872022
89.8934519869352
89.6455996702581
89.348720270081
89.0645980058868
88.8173395563046
88.6172519089495
88.2063683888265
87.8005638214158
87.3222093370962
86.5482606408034
86.1682582599542
85.9374903565511
85.771010519583
85.2017008849894
84.5781423157256
84.0929468419349
83.6679135934268
83.0902554319757
82.6916483000253
82.4352783632947
81.9265549359611
81.3535365882805
80.9968532589658
80.6260861003572
80.2335655424656
79.4078423200986
78.4999265821183
78.6917577438923
78.951528124409
78.4875867090036
78.0224329747241
78.0784025516027
77.9923273317223
77.7328307880342
77.3240221804693
76.8216169622921
76.8565807295639
77.1626852627518
77.2651819760239
77.0086588971156
76.9174788700349
76.8848213134595
76.7773902826719
76.8178157093085
76.9055347398793
76.6564716825227
76.5130072674123
76.690971699883
76.7935499510248
76.5989153111822
76.4429578612532
76.3781997793294
76.3117437862075
76.2208044789589
76.1183663488909
76.0482082066049
75.9268375456407
75.868947621376
75.9287995538472
75.971357527836
75.9351492369128
76.007062662995
76.1479261200175
76.3076716097839
76.4070199363612
76.6241514024327
76.6199870757844
76.4188532911301
76.6888151046504
77.1888404097454
77.227162656357
77.2019587115687
77.4432720917921
77.5884231315508
77.6191285925453
77.346513718099
76.6999232339695
76.9556043755296
77.6708843573564
77.9621181215781
77.9031680426456
77.8616785107906
77.9638479925292
77.9658424531559
77.8779803555066
77.7280491458515
77.5264343812393
77.7387454944889
78.5750549870327
78.8544942024994
78.7750956122872
78.9089845617069
79.3063904474938
79.3808279465594
79.4379207167014
79.6433322017893
79.5980228698998
79.7567935751588
79.996186212704
80.2528023120492
80.4101993953979
80.5776175003118
80.7209688920224
80.7121428174782
80.5163263035691
80.8792185343707
81.7444785669842
82.2591724446205
82.3373114003433
82.3071920913203
82.5668118982394
83.1161719149102
83.4809335416449
83.6341686646176
83.8336131021654
84.3732096976223
84.8441652745497
85.0321355465769
85.1961382307011
85.3207445184417
85.2541165702931
85.1464977779961
84.8955290293417
84.7221678776864
84.5867538917333
84.4627026018026
84.0402885835713
83.6299870988957
83.4182931630345
83.2991861793258
82.7865207728473
82.1808837340056
82.2297651759619
82.4542577397972
82.4156915710063
82.1490274435905
82.034603444112
82.0158375488316
82.0556590608547
81.9972605482456
81.9697963755272
81.7218494021261
81.4419085729809
81.3576615822857
81.4573267521341
81.2402885350241
80.8937932528097
80.6520162497156
80.349719941231
80.0430379954919
79.7082634759353
79.3158177086989
79.0217175975584
79.0811526016849
79.1327532780468
78.9396420381287
78.8480204367774
78.8283494089647
78.795263716594
78.7724916802204
78.8112577921022
78.7734418144519
78.7246200596288
78.7231498616934
78.8066665906941
78.8477357581995
78.9596032595506
79.0265066376243
78.9086888573228
78.8317177244382
78.8774112750402
78.9562582645527
78.9621901938764
78.9824520136613
78.9231268558774
78.8425696096571
78.8859609110911
79.0907678978994
79.2559575414777
79.3482522422904
79.4709089091179
79.5512902113771
79.6689506439951
79.9276112845199
80.1905411573363
80.3201737788279
80.4154806727342
80.554092969848
80.6952046307548
80.8061794929379
80.8941128781344
80.9890421375349
81.1020346261479
81.1471835786215
81.1812465776857
81.2853401827087
81.4749541467469
81.6261015104307
81.7018312305773
81.7364945601075
81.8059992536575
81.8914233102795
81.9515459430264
82.0250188116553
82.1040152110627
82.1576719703512
82.22727617946
82.2908132700057
82.3343800548347
82.4184590292994
82.5243476440295
82.5923865971342
82.6292824543453
82.6812001360875
82.7596450694535
82.8548313017544
82.9026415428753
82.8906299407128
82.9068436448565
82.9447745949761
82.9777193088883
82.9723296754802
82.9422576793059
82.9146051300625
82.9024638666259
82.8559790261861
82.7977375738795
82.7359147583757
82.6618080519612
82.5376142932625
82.3813264217835
82.2196214353178
82.0618127470558
81.9305525285198
81.7937016711788
81.6190905107214
81.4990314512161
81.4321155702658
81.3336341964238
81.2074468207372
81.0852079629149
80.9744476566423
80.8913482613077
80.8202027926074
80.7454008620497
80.6409864423885
80.5277979601547
80.4962522899519
80.5086606646685
80.4716665742541
80.4581317743828
80.5000059494444
80.5640063857345
80.6529164002325
80.7419777267109
80.8488384836889
80.9709612455283
81.0922934136298
81.1957285634573
81.3286864224932
81.5355592674417
81.7032892246341
81.8086904787669
81.9374875465093
82.091010744364
82.2047887409945
82.2750521414435
82.3678891615379
82.505097892612
82.6397424642511
82.7749542766293
82.907105284426
83.0425713325306
83.1615010625071
83.2212640391258
83.2234102856447
83.1896218600562
83.1120035304379
83.022092168549
82.8955949825903
82.747618282332
82.6195757646732
82.4593783872215
82.2936248638843
82.1629033307996
82.0506665544795
81.9670879362987
81.8504040767077
81.6708492448193
81.5039574894451
81.3280600212502
81.1693232410526
81.0268324776474
80.8445041840706
80.7038535545017
80.5931131482866
80.4503849962618
80.3035010303769
80.1683123502832
79.9822902596996
79.770173166591
79.5626334057941
79.3089546936207
78.958547879601
78.5705933303974
78.2240171976608
77.8872202382517
77.5794093315268
77.3285922999959
77.0520897447988
76.8220746352707
76.6820955602427
76.5655216991746
76.4909974533659
76.4295419009259
76.2981465987098
76.1536291192833
76.044102700154
75.9502928652686
75.8120295613408
75.6047596587251
75.3847221938531
75.1761838879716
74.9034786685555
74.6154408246455
74.3147119370377
73.9734210114
73.6508260165737
73.3358500840551
72.9437383083594
72.5010676543266
72.1206694428256
71.8266240102137
71.5406813507506
71.2685849001984
71.0241254817785
70.7883045417552
70.5920912277209
70.4586688972633
70.3188930244461
70.158888736808
70.0362795651438
69.9294358423862
69.8052648147139
69.6994831027125
69.6053947603707
69.4924167562971
69.3342039894382
69.1452702632422
68.9714981700358
68.7986387463646
68.6927896240997
68.6369549737472
68.490039851461
68.3374925152397
68.2810383699912
68.2568741319737
68.2561913667163
68.2792175387127
68.2995460898873
68.3418645119479
68.4378973750743
68.5583049997756
68.7000948345113
68.8811668002557
69.0719216123527
69.2410732712867
69.4270101869684
69.666933077478
69.9736042560622
70.3047975484087
70.6261662082652
70.9462236681941
71.2462197924596
71.555207693348
71.8901912773214
72.2364990665017
72.5671342838798
72.8799151719431
73.1279062010675
73.4127812164979
73.7990943789911
74.1658779188803
74.4480943228239
74.6672230034909
74.9111933590948
75.1960934238002
75.4967900013483
75.807228190909
76.0650869745633
76.2721136806984
76.473756452202
76.7139354966538
77.0373589938147
77.3599593204132
77.6016044876742
77.8473109050816
78.1479213160502
78.4005398786565
78.5986054805728
78.7964316086372
79.0053367653357
79.255758879954
79.4374398977462
79.5501799210075
79.7656722148552
80.0434642789319
80.2936472526824
80.5323801830969
80.7185946518796
80.9148627185657
81.1111705414292
81.2415276896157
81.3997518701505
81.5935761680017
81.7507205133143
81.8642522106556
81.9748160176577
82.0757309527031
82.2001148329985
82.3461957460419
82.4662535092464
82.5287377632321
82.5758972901517
82.6646488086127
82.7659110723464
82.8666800240431
82.9223169033632
82.9459550566364
83.0428810551343
83.1703188752796
83.1953131179609
83.1450084310166
83.1615478763007
83.2809713155446
83.4002394792935
83.4301380835396
83.483491301298
83.5471596746898
83.5497458416206
83.5168547947175
83.4462581498408
83.417871308183
83.4440882200713
83.3869956564932
83.3181129970867
83.3639751155812
83.4076349798289
83.4035222040127
83.4146799238177
83.3572451922972
83.2970350975894
83.3179316763112
83.3190616786926
83.2230177452744
83.0766744481703
83.0132717911446
83.0315939158027
82.9968299404801
82.9191026982672
82.7818835769202
82.6131023666344
82.5170597419479
82.4576964415929
82.416259020633
82.4068354072279
82.3986443816646
82.3446118148984
82.2267591682157
82.0850230343978
81.9772575046455
81.9333452250312
81.8965251835447
81.8736201469977
81.7666010490776
81.6345974522939
81.5799423648601
81.5693746975543
81.5441805802425
81.5130958367133
81.4163670942978
81.2578827670251
81.1690424582236
81.2465596800803
81.3237430889308
81.2716925828963
81.192646583846
81.131862911266
81.0683414912982
81.010249082924
81.0226107376824
81.0148671464396
80.8176645249275
80.6564439594397
80.6730518988803
80.6972757018253
80.7074015705577
80.7225509723137
80.637472877267
80.5127142204283
80.3846066471683
80.3636149906473
80.3838663935958
80.3384735728152
80.3091769539109
80.1568887915428
79.959312259085
79.885136826142
79.8205507003388
79.8472169435184
79.7813221904194
79.5124760127781
79.3291890756769
79.3288481669971
79.4077874348898
79.4822173772009
79.4011073552559
79.1681728300595
78.9084728996986
78.773168891017
78.8335372604429
78.8099169103357
78.6119015607774
78.5265941332784
78.414063610868
78.226628567935
78.1652308055273
78.1167048320203
77.9693235586241
77.8501044539532
77.7484445164617
77.6082310304474
77.3687243759946
77.1860936507017
77.0365759407487
76.8755161659109
76.6785639480467
76.514181834029
76.4775300461328
76.4008815040491
76.2421799931664
76.1129997619317
75.9772905834002
75.968780743474
76.0163653468399
75.8608457207771
75.6209710859868
75.588738438034
75.4513439293389
75.218345913068
75.1918157224718
75.2550602646205
75.0756875592342
74.8563359075688
74.6918020752029
74.4957160444545
74.7063749136526
74.601644826652
74.4681187717004
74.2897859609248
74.1502044170762
74.0128636174263
73.8280367289861
73.6037474284184
73.4685462566641
