1798
3999.43349933624
650.420452594757
1
128
4
94.1681940293058
94.1273194504407
94.0141087101641
94.0838350564125
94.1889494716421
94.1346232216186
94.0371421158758
94.0504705571919
94.0308207581773
93.9802329103021
93.9736937054424
94.014380181571
94.1192826326645
94.1732544470245
94.1662081097379
94.1222385925341
94.0880584860885
94.1281845696264
94.1146476583226
94.130126986829
94.1195690854274
94.100886857564
94.1687641557229
94.2875965853289
94.2197590995164
94.1150924684949
94.2277566210348
94.3010533046137
94.2039880941804
94.1863245473381
94.1550438671197
94.1255617312528
94.2021928434871
94.2056659961114
94.220973229508
94.2539690056863
94.2301254900304
94.2061135875125
94.1713286068131
94.2033272232022
94.1629555062804
94.1507155002544
94.2825181112577
94.3316170676107
94.2039839048195
94.2137374794214
94.3662468312599
94.3738052591546
94.2178651560269
94.059652447048
94.0702124273298
94.2131886254506
94.2078729081932
94.2326198255771
94.3664239362329
94.3315463827
94.2308711934048
94.2658980812498
94.2902204528005
94.2640798311119
94.2602258980084
94.3246123345017
94.4223098888522
94.4433811312202
94.4116197577985
94.3526373348302
94.2569796021537
94.2715082465813
94.3654424320567
94.3830136177318
94.3387887154658
94.4037613324972
94.4900415383875
94.5559411077324
94.4332622615606
94.236053379514
94.129671943319
94.1095098547487
94.336572134898
94.5981573394276
94.5604062946826
94.4760660512907
94.4551776594096
94.3775239471454
94.2793742955657
94.2583428176252
94.2818014534029
94.3868728313047
94.5915228958206
94.732124507656
94.6596517294681
94.5812201907882
94.5129562989372
94.3333403489072
94.284428502768
94.4665014259317
94.5484807862388
94.6151621566742
94.642831620568
94.5666374361542
94.5945601971376
94.6264397984321
94.6214778883632
94.5331294312894
94.3921774895107
94.4645268556467
94.5616286989138
94.580832557337
94.6740608833334
94.6914176935425
94.6093038033436
94.6919902237021
94.7391238871901
94.6346214793993
94.5817966547264
94.6038867086674
94.6472553734611
94.7485627255556
94.6978364540078
94.6068276855348
94.6935215643827
94.6832968425306
94.5297925591505
94.5068867120704
94.5978918880645
94.7221597068757
94.7868090985813
94.771032074933
94.7206812166436
94.6358177417639
94.565499164364
94.6098823774618
94.6366516004605
94.638558408787
94.6865289330311
94.7686336801455
94.92249171496
94.9695083903121
94.8371857347367
94.7693712903019
94.7272172314321
94.6377352459434
94.6211740041038
94.7888623376739
94.9329212746672
95.0053087488042
94.9390264355839
94.8355594471299
94.7921995615234
94.8848328256429
94.9731141186574
94.9165908366305
94.8152691658453
94.804098053752
94.866641273751
94.9261470898211
94.8987188695838
94.9369271894015
94.9206471282989
94.8744633417639
94.905011271392
94.8970588148172
94.8196277196905
94.7956939382876
94.8162439478056
94.9032530221076
94.9408264758809
94.8961538855965
94.9645075358424
95.1002778723608
95.087194659824
94.9162846942535
94.687483925997
94.5610904114908
94.6061452064318
94.7585297518566
94.8601423069857
94.8637044162894
94.7726219138046
94.780172416367
94.8459856610104
94.6659399015613
94.4517465093192
94.4567614045193
94.3967801821159
94.2798444383016
94.2579345044736
94.2664886845559
94.3216789462584
94.3365087887188
94.3187663779131
94.2285302759253
94.0465644921078
93.9804918755918
93.9082118535063
93.7882738081682
93.5662336118962
93.4431936680684
93.390573728642
93.3194262393184
93.432138585936
93.5457642602794
93.4570427032242
93.4291436674747
93.331290519764
93.1539557822104
93.0292405474013
92.9368524741394
92.943445317275
92.8881716477521
92.6850773439545
92.6519453514318
92.6317382882597
92.5266625554036
92.3729759114117
92.2624623738277
92.2070797738218
92.2026599554524
92.1362208678749
92.128106576349
92.1365231038684
92.0744306948244
91.9761658243023
91.9417322500601
91.8707357953784
91.7063715292215
91.5120921882156
91.5085227621324
91.5253754776312
91.3380716423612
91.2171820260772
91.2611211225832
91.1749230260021
91.0919163117419
91.0820048595401
91.0125704321611
90.9691229513582
90.8672922746362
90.727762989873
90.6422990663472
90.5816988561415
90.6478178319778
90.5623036209581
90.4464425611325
90.4047825556947
90.2207973914858
90.1855909527441
90.3586194111604
90.251595766346
90.1145935654804
90.0657312031376
89.8736544277746
89.6651053496107
89.6303363130745
89.6573994256148
89.6026412116384
89.4748094641707
89.4625784648673
89.4573617314079
89.4015603976206
89.3040849223999
89.2463273906119
89.1692776292855
89.0734129799563
88.9520669019442
88.8609279063725
88.834322352059
88.8793663152192
88.8467873961567
88.6954850908756
88.6698400919943
88.6578054260105
88.4664508798736
88.3784660817297
88.3785038404015
88.3499124487688
88.2287034801441
88.127062446674
88.0728842193917
88.001753835631
87.9486149811316
87.9664104564166
87.8815504313514
87.7722139836854
87.7119022165049
87.6673801824419
87.6269542528692
87.5813224188828
87.5262478896381
87.4133091814196
87.3202986329294
87.3689964225112
87.2588056640768
87.0539206717306
86.9651101523022
87.015424663495
86.9244961586551
86.8133585751301
86.8326180141161
86.833949934642
86.8053013023297
86.8023287824547
86.6314883634009
86.4535275115381
86.4616648384822
86.538979333703
86.5016940106826
86.3894269932988
86.2130581623013
86.1977338815613
86.2345164910242
86.1819201589836
86.0686491920222
86.0282598650724
85.9761918268342
85.8908118732266
85.7955209660902
85.7585312862844
85.793063295183
85.7468014509501
85.6527048717952
85.6207343929581
85.5867432569609
85.6169920647988
85.5959652562351
85.5085330425295
85.5124576258971
85.5840514501214
85.4812944905754
85.3568118952825
85.3187554456641
85.2998613742381
85.2204892327082
85.1718335996487
85.1701279277386
85.1797420391227
85.0925507536684
85.1004452401075
85.127991457567
85.0640268121499
84.9538404650442
84.8865746767463
84.8522570675567
84.8284119741531
84.8228361557237
84.895264176337
84.8952714882279
84.8696209471229
84.8484028485797
84.8161506634327
84.7460156553885
84.732445135525
84.7448974892762
84.6826574521273
84.6659468458987
84.7995209439117
84.8106257898662
84.6722632217418
84.6487525673915
84.7319357442736
84.6309286747039
84.5071596919358
84.6096370585882
84.7756291072677
84.7322400866785
84.6114795174898
84.5676061153044
84.7088066917513
84.7621986776908
84.6428727680248
84.6071635877404
84.6820012704251
84.7074891427901
84.6800403051344
84.5897661800385
84.5218187320485
84.5285499306826
84.5411746905455
84.53330523734
84.6301439684472
84.7007995353237
84.5973054821651
84.4667266400877
84.569262497344
84.7273345765116
84.7072509889475
84.4727462415337
84.4356352425441
84.6151590321851
84.6713218956138
84.6119144417316
84.6259194689477
84.6284047862104
84.6388730780579
84.5748639641126
84.5442176700895
84.5981650849546
84.6549470072586
84.6251902505518
84.5583362798456
84.5512690764899
84.5645570655196
84.5646636431654
84.6170798810345
84.6284711657944
84.6158134052549
84.6309391520458
84.6341226670932
84.5856639526144
84.6140294718308
84.6624593753025
84.6911943798073
84.6967944275101
84.7072987672971
84.6301045195304
84.5424843455774
84.5260565503546
84.5428818516702
84.5666092185847
84.637745160084
84.6757816912699
84.7126340499384
84.7069325999821
84.699945543415
84.7108025296362
84.7816511495292
84.8080922427129
84.7394921665043
84.65974130442
84.6630362628612
84.7241089089543
84.8488336682112
84.8870037753311
84.8620699500696
84.8821336471068
84.9047021972928
84.8915438265147
84.9132876417193
85.0212092205651
85.1521951124553
85.1315623612104
85.0931319361781
85.0999556077997
85.2339811483604
85.2730432606528
85.2001859408823
85.1844497356436
85.2688857698011
85.3249772374042
85.3568189386524
85.3773166844392
85.3585790693401
85.3761543044096
85.5223789258755
85.6201567882823
85.5869724333113
85.4973195529773
85.5558447556844
85.6709477696044
85.704831778639
85.689449803847
85.7854347621637
85.8150555830453
85.7672091253847
85.7820407706748
85.8821073856503
85.9329140786605
85.931753983824
85.9173621860828
86.0209295255706
86.1010846605099
86.159296551071
86.2369055407172
86.3391138261352
86.3505649172366
86.2936122147557
86.2546954969024
86.287260689845
86.288212658692
86.2793607192914
86.3593642396274
86.4816831910315
86.5301636216459
86.547989619875
86.5448870719899
86.6073619123787
86.6565060714514
86.6413440764278
86.6648267873872
86.8111784659144
86.966510149566
86.9859683242429
86.9581770525598
86.9921455641721
87.0164485958095
87.0210047393722
87.02306542407
87.0370680677438
87.0456941122578
87.0993073778153
87.1261135284802
87.1572902390342
87.1732166891165
87.2123290367577
87.2126740720844
87.2594880372362
87.3527238525817
87.4658603127677
87.5095828849235
87.5161662821731
87.5243005233537
87.596478183474
87.6517360776275
87.6908096039721
87.7523035891606
87.8153530665757
87.7959286989104
87.8167446527447
87.8368246237767
87.8835666717184
87.8974505860669
87.9197041547712
88.0113426753384
88.05414844293
88.0575610908929
88.0775518460665
88.0849018222678
88.143871006558
88.1964679131347
88.2382441478622
88.2330212084098
88.1977303340426
88.195585765751
88.2509469627348
88.2873302456469
88.2854027161224
88.2521560933139
88.2959234760019
88.3545907289487
88.3400384280885
88.3828804785291
88.4072344389779
88.3413977360524
88.3371310486698
88.371795589206
88.4235300117701
88.3826395210502
88.3421051524988
88.3431058113924
88.3614709996339
88.3791760273477
88.3958567862195
88.4122061331856
88.4164414674858
88.4168829720631
88.4845899756095
88.5345468289448
88.5278366983055
88.478027573349
88.4677941657072
88.4952096844191
88.5252622672985
88.5229611755962
88.4989555086545
88.5147144043765
88.5956817703474
88.6369690675653
88.6379260423546
88.6428628819238
88.6692446787285
88.6490217948153
88.6703171011358
88.7367837749379
88.7621429207985
88.7612084514312
88.7922984118855
88.8932400182402
88.9781359093408
88.9552185669499
88.9827040055443
89.0548300849328
89.0980814916708
89.1411754707159
89.143280000129
89.1878246019398
89.2840335973745
89.3321523443173
89.3805726822104
89.382103812781
89.4273670091556
89.4258430790752
89.4280675131772
89.4986196437805
89.5312973843792
89.5804237560326
89.6347104301208
89.6380763057642
89.6937440815962
89.7202581472637
89.6806353973055
89.6480985947317
89.6446040158678
89.6898525039617
89.7991134490713
89.894495861035
89.9087707205476
89.9010894178923
89.9465678357376
89.9396431656565
89.9262016748381
89.9931160453354
90.1024542378826
90.1501957055502
90.1907593978708
90.2351275924382
90.2294434009566
90.2352512226512
90.2842888478036
90.3408538991432
90.3694566404089
90.3905840916697
90.4685743939321
90.5012511431035
90.5603864706318
90.5673517568871
90.5036073193664
90.5114913189783
90.5770688561213
90.6061356038236
90.6197192679286
90.6567281048441
90.6898230097041
90.6700343069159
90.7025485470675
90.7678197566966
90.7771407088918
90.7562789879653
90.820217948884
90.9137524298314
90.8979802971032
90.8585742272964
90.9027465119702
90.9124716687172
90.8844705604305
90.9195308525229
91.0062010424062
91.0724613885758
91.0667016300876
91.0407922231651
91.1254948068106
91.1724097391228
91.1454772003365
91.1564151280579
91.1839602458832
91.1653377599473
91.1865546348349
91.2376205568782
91.2996975838479
91.3231111278675
91.3205808884296
91.3329129773829
91.3509347037565
91.3491555572629
91.4023373848019
91.4335114330168
91.4061341041841
91.3871755853441
91.437206696621
91.4626310387458
91.4841526480285
91.5291281056088
91.5358827386667
91.5575147971976
91.6250381608113
91.63327552967
91.5854489672339
91.614725532841
91.6981905913619
91.7186884162322
91.7090188596274
91.670348863529
91.6817679995555
91.7420289962777
91.7741062228966
91.7702611976934
91.8043576492351
91.8678541551403
91.8816197151698
91.8618275838855
91.8608657969167
91.8949893713411
91.9577671584193
92.0009357410198
92.0145873947782
92.0115914919868
92.0179830983761
92.0301590129013
92.0680338889049
92.0546070447625
92.0166580749395
92.0479106807742
92.1173061664938
92.1328051822577
92.1400322173187
92.1325460723486
92.1421573880485
92.2096932150282
92.2609364121685
92.2787420998634
92.2690775463438
92.2583555977878
92.296152196092
92.3090891148148
92.3021172092774
92.3087873281917
92.3247187628173
92.3423539112587
92.3841587534553
92.3999520531524
92.3697563930071
92.3452206094789
92.3527425817616
92.3677122323701
92.4135444873026
92.4755509355639
92.4708295430267
92.4615993235415
92.513682023711
92.4950265265486
92.4575822457683
92.4899365940198
92.5359717521959
92.5631456466058
92.6267546972482
92.6417409164469
92.6281163450534
92.7046175835276
92.7776240438065
92.7501804962642
92.7400492717457
92.8671879908189
92.9512815220188
92.8770078137953
92.8227293651527
92.915145060483
93.008171418011
92.9815292587234
92.9133326452423
92.9820737865517
93.0554095066791
93.0105159535047
93.035675676023
93.1307442386172
93.1433030112347
93.1818912041985
93.2033333910479
93.2201565369797
93.2173349778617
93.2451322904208
93.3384062932558
93.4287803731456
93.4400434075265
93.3397035255996
93.3025380269148
93.3455308498404
93.41514764051
93.4675016245323
93.4858387811634
93.5703203071407
93.557172164662
93.4864352635297
93.4402580977107
93.456941198948
93.5088059289305
93.5545356817428
93.5581697280222
93.5326942508026
93.5600702300826
93.6501208294923
93.7080664398049
93.7014901892489
93.6873487684218
93.6397997161942
93.6860731682094
93.8361259989037
93.7579074978832
93.7287771732713
93.8322837123437
93.7926104698234
93.7342472624431
93.7779395534248
93.7283402462623
93.6712571695742
93.7718940565853
93.8746083357786
93.8090343637729
93.7947282906928
93.8967203066247
93.831194079928
93.8283632889888
93.9268532678656
93.9381085003785
93.9655950741192
93.961751057045
93.9472823572194
94.0169994453164
94.0826733841733
94.0111989552918
93.8812354550889
93.8977992652459
93.9415753131179
93.9048353622302
93.9263455557102
94.0011184139622
94.0385286144297
94.0510938454102
94.0819817881953
94.1408621456161
94.1712911573292
94.053523055297
94.0163767925747
94.0455114100467
94.0960180004009
94.1416103499913
94.1320723325579
94.1301925495445
94.0684451281422
94.0640856640887
94.1274514161144
94.1364466639864
94.1146898850373
94.1266376142399
94.1520032222338
94.1559770654847
94.1940821149251
94.2314953810825
94.1940980314496
94.2221671519248
94.251596764887
94.2415684000816
94.332282131113
94.3714772801942
94.3175337427357
94.3052405854044
94.3315128558408
94.3568018227171
94.3696844030425
94.4035416340114
94.3932461063198
94.3468912057415
94.3075083286724
94.3104058139771
94.3693548399858
94.3321112869873
94.2452894638984
94.3088054292582
94.3783872218239
94.3918889618241
94.3754468743452
94.3438098237679
94.3525412214323
94.3120425864858
94.2744918424093
94.2961540672388
94.3080109994075
94.3468790462162
94.3766815148878
94.339799716567
94.3426323043525
94.3360180338635
94.2786905776637
94.2805741290569
94.3103508421277
94.2731124138134
94.2869158667598
94.3901753388519
94.4424160184117
94.5161828513205
94.5322805334642
94.5002609617515
94.4735156300064
94.4874228749526
94.574690084439
94.6236873440494
94.6136746282403
94.5279714330876
94.3893833813271
94.2580033128198
94.2565288322034
94.3660257868458
94.4121890538183
94.424952846931
94.4873510365337
94.4524822509445
94.3600894371994
94.350252378056
94.397382034435
94.397833783765
94.2539880827799
94.1905912021619
94.298998154386
94.3870900662203
94.4166060539656
94.3930964299993
94.4133806890571
94.4884447684769
94.4981299472451
94.5260833284165
94.5819179445106
94.5854067598473
94.537353634672
94.4772729331888
94.4771071988333
94.5830267604148
94.6264422230567
94.6016546963833
94.6750004581054
94.7469591453295
94.6939521678129
94.6755398123492
94.752460820429
94.8257431284348
94.8455182734698
94.8969349442994
95.0273861186173
95.1595584225889
95.2684971463393
95.2298902213646
95.2841701095329
95.3595123978563
95.4335983203064
95.4640855889996
95.5135517233882
95.4896287814687
95.4652098181704
95.6092186476398
95.7219805300438
95.6608133167425
95.5451198392525
95.5095482235865
95.5981086944928
95.708376790108
95.7679477955187
95.6864197825992
95.7440630790264
95.8829201421875
96.0164479899615
96.1612748515872
96.4210786131809
96.473580354281
96.1677427607292
96.0688919852397
96.3387368843494
96.4386181897972
96.2638293355088
96.2177409845957
96.4720505549888
96.6530003584513
96.6111921312084
96.4919517251676
96.5211777475181
96.7982551513352
96.9972608060379
96.9465857642274
96.8601022798786
96.9714370173552
97.0587612519353
96.908000530426
96.9910525996818
96.9033193370012
96.7943458632577
97.1420680282815
97.3772404232384
97.3072054547296
97.1579859493404
97.2373146458418
97.7794985134447
97.7839384953184
97.5455807292893
97.5061735809038
97.6356775979298
97.892171814973
98.0819206683379
98.2170192228148
98.5081898181068
98.5886368265261
98.5991750815583
98.6137828629768
98.9183337936268
98.996529002263
98.6517285562213
98.4718415609838
98.3040143730605
97.6773233035726
97.2372086465517
97.2318757715217
97.5354149013489
97.5204003414421
97.3138202855166
97.3284427003587
97.2852531670267
97.0261590389263
97.0591851776849
96.9799516628707
96.7254798005017
96.5074082340895
96.6377602705374
96.5514247340234
96.3183658682854
96.2730513263329
96.2705473228926
96.2863210520502
96.3437059194616
96.2663734566061
96.3671380494172
96.4596811449881
96.349028345763
96.3877498804041
96.4891238618945
96.3516001618114
96.430729339196
96.6255810285023
96.6789113323198
96.5728169418443
96.4419852903525
96.3955943425885
96.5736908696447
96.6504016063177
96.6147203616235
96.7160110304387
96.7932926851749
96.6954283518211
96.7046367177536
96.8319955809976
96.979482981553
96.9568237086199
96.8728401102446
96.8352955065266
96.8757345683551
96.9058150263799
96.9764112584915
97.1848466566959
97.4289614793976
97.4680610146302
97.5444028533752
97.6676191428544
97.6344575329309
97.7071727830825
98.1907807714901
98.4160054663614
98.3337715002561
98.4155363996777
98.5998176988669
98.6789405072206
98.9070817112857
99.0007991869253
99.2932281361065
99.2424471828278
98.9014273622021
98.8372736270082
98.8292809023894
98.7718525502964
98.7339461028708
98.6784664457223
98.7000808770911
98.5740557330092
98.6111634581631
98.8783162296883
98.9209940697585
98.7994215844986
98.6892264667662
98.2521958866336
97.9719558305414
98.200245851128
98.3352108783004
98.1469461814173
98.1553678395323
98.014333072064
98.1341493495443
98.1919266717952
98.2519671592961
98.3687197012325
98.0834119308939
97.9545816068346
98.3572259105447
98.6782538639202
98.7608470014672
98.5439626819671
98.7225275686085
98.8429728937107
98.5906705627726
98.359460544802
98.2896471115333
98.3606410188462
98.4836620768061
98.1957123388786
97.950300302088
97.7513327709069
97.8861449457379
97.8876899803693
97.7151799870812
97.4965434438364
97.443187121245
97.5957688642201
97.5764370731184
97.4140416049186
97.3746054531151
97.3568944958096
97.2585674829019
97.280031877482
97.4377788428581
97.28183792286
97.1304827588573
97.0227076346295
97.0220624901148
97.0924859364033
97.1261263220404
97.1234945488634
97.1300561359277
97.0439457696357
96.9956678895459
97.0067542909306
96.9919992258855
96.9700999024281
97.0539015718627
97.0962953411351
96.9804668547795
96.8520258689659
96.9346855704361
96.9830490951376
96.9894822420382
96.9146966630333
96.8752189487503
96.7794829711688
96.7916803349073
96.7976049807927
96.7898537522075
96.8212674481157
96.842722983202
96.8053577770921
96.8583617251902
96.8458461623489
96.8025526506259
96.8164215923224
96.8713820280417
96.8658665005993
96.8905891587495
96.9029600873192
96.8540495557573
96.8178527813857
96.7762950377121
96.6565981455219
96.6506667050113
96.719088660595
96.790435252152
96.7605842155876
96.793171125362
96.8422572909891
96.831575958368
96.8274780789887
96.8556478774595
96.8120349501232
96.7142726292487
96.6388837574381
96.6908773714154
96.7534881078792
96.7542343688283
96.7491697498507
96.8091664954364
96.8109894899787
96.7621553928745
96.729317699546
96.7261158467878
96.6643332659355
96.5788589591553
96.5512035515813
96.5401455287648
96.433218648629
96.3595996161905
96.3349670916742
96.3293573573627
96.2265630835709
96.0917628745087
95.9739950587469
95.8863327336875
95.8608064787437
95.7876886145475
95.597061199953
95.3845918954409
95.2536085861697
95.1627993446115
95.0324242177948
94.8568390182364
94.6229567385396
94.4505656928333
94.3367434918809
94.2728366717029
94.1211930689928
94.0092019458058
93.868621678915
93.6915702112877
93.547408402587
93.4281015118726
93.2923041005024
93.2288433706307
93.0815199031862
92.9440272697295
92.8555898537422
92.7812459360317
92.7136711084695
92.5934525115496
92.4240663989087
92.2771024210427
92.1434176572717
91.9780265843451
91.7178896985163
91.5591400520253
91.4833311242134
91.3519174044206
91.1217520183831
90.8623775732555
90.5450123121743
90.2513704338737
89.9129703087627
89.6049318980643
89.4735717643585
89.372362116363
89.1720008253146
88.9162115750326
88.5997658031939
88.2616598744909
87.9846317745631
87.8171561988285
87.4621900441471
87.2208705547651
87.2079353884244
87.066400059892
86.8884162200115
86.6796883412468
86.3271332041462
85.9769917686162
85.5967149024709
85.1914166477455
85.0614988412128
85.0109257762056
84.7490849342607
84.3685734001457
83.8679208326888
83.6259523270014
83.3779172900427
82.9672342587777
82.6982382102731
82.5455843677656
82.1986080042651
81.7733306229501
81.4741863749597
81.174041359169
80.7799480249859
80.2239215835452
79.4339345435892
79.5651054866777
79.6619588978596
79.1831440386733
78.6740490010045
78.5228030094501
78.2352136431055
77.7934618741881
77.29700164778
76.6762865149835
76.33015185649
76.3505255872139
76.1120047851517
75.6368350398218
75.1566783100175
74.8025069830416
74.3353233267849
74.0438544490477
73.7812844422817
73.2299966012453
72.6810329056755
72.5738873673664
72.321820857852
71.8566451712343
71.416628526476
71.0481328482024
70.6751310009957
70.2926501023522
69.9517560765539
69.6478326130882
69.3219814397826
69.0099308062138
68.7358415114782
68.4830204127794
68.2301403014215
68.0239408486524
67.8147082923521
67.6253934187312
67.4673698489934
67.3592249611592
67.2031670337714
66.795534270949
66.8306639601766
67.2502638508846
67.1978759077194
67.0101544058651
67.236752981942
67.4422739605344
67.5338398168719
67.5130746649411
66.9279686413132
67.2785493851854
68.5914319683121
69.2482861154868
69.609337062376
69.94212705344
70.3073665700174
70.7418794095132
71.0171956351571
71.36092568565
71.732453671906
72.7089472255039
74.0486664657518
74.7083322354523
74.9753155438244
75.5936325571473
76.2402654696724
76.6138019896215
77.0122747885943
77.5217100934044
77.8539197489651
78.4346934626318
79.2367768873475
79.7305403476012
80.1837593403276
80.4883810705834
80.7012015896468
80.8143764518401
80.8593630300615
81.6476779756192
82.5718755571087
82.8745979183176
82.9005645994901
82.9235846955941
83.1663096132369
83.6089587377035
83.7937755291864
83.7374356208
83.8789779243955
84.162542950234
84.3660371688876
84.3831681070252
84.2956015370612
84.2275080178865
84.0997136033688
83.8991413836692
83.6982788573195
83.5922773005728
83.6772408831406
83.5485650187079
83.1589353476426
82.7243584664201
82.5289929561712
82.3068155285804
81.8043555828626
81.2234149891923
81.2405915433211
81.3210290452445
81.0037779636339
80.5686659069902
80.1368797767506
79.8534168256964
79.6069316402953
79.2691436802025
78.9427914640298
78.5381404675484
77.9903786549316
77.7961419510662
77.6968955433076
77.3027436921884
76.8260113311295
76.4684038738247
76.0812536421481
75.6181861977499
75.2408961469079
74.7108849033968
74.2686792813282
74.1938297071132
73.9601102213812
73.5776942034904
73.1905512536249
72.9147245905699
72.6484468595609
72.3502144932733
72.1716983880433
72.0206111789368
71.742057980618
71.599352077174
71.5442095454531
71.4908076788717
71.5697052355856
71.5415529801734
71.3731991703125
71.3432448451317
71.5330905334564
71.645866726353
71.6995098401232
71.7769897030362
71.8829548352556
72.0014549242249
72.2126719989298
72.542470237041
72.765062655707
72.9641769292595
73.1821843613901
73.3219391368116
73.5238497354171
73.9090378615073
74.2432943770566
74.4681759631284
74.6980895425221
74.9737689140345
75.2300089077933
75.4889747185443
75.7532193031764
76.0020028983181
76.2351484298493
76.4406646004346
76.6226857787069
76.892957441318
77.1872204810064
77.4319018820884
77.6169371392527
77.8047659983422
77.9890931408441
78.1238786137402
78.2619949295
78.4450515465997
78.5845990434703
78.6948668602515
78.8562390142455
79.033828449305
79.1527377181503
79.2717959213805
79.4128564437866
79.5368991903726
79.6453573111063
79.7713864688352
79.8897171475945
80.0049798710884
80.1236063640668
80.2311736430842
80.3272021776742
80.393546694025
80.4732607586866
80.5581863099436
80.6127720904248
80.6876678565036
80.7716470530269
80.8340195529047
80.8756221107007
80.89261236884
80.9045599172378
80.9338394601367
80.9543492700052
80.9811938951945
81.0222851363077
81.0418545639631
81.0406018007109
81.0568316442813
81.1065437141718
81.1667547878395
81.2183470596517
81.258037612442
81.3073446594847
81.3489598769447
81.3679867848476
81.3974251571338
81.4211659727491
81.448930696757
81.500443747831
81.5246521667733
81.5336904978442
81.5550824250176
81.603602120079
81.6378143257328
81.6432548535144
81.662498671872
81.6934629877378
81.7442806835694
81.7957729107234
81.834897459578
81.8643478853574
81.9011711567124
81.9481649611561
82.0167131427535
82.0857806351366
82.1117681953844
82.1521197424676
82.205616946059
82.2565320121012
82.3154542387263
82.3641866483949
82.4147476329621
82.4591210944294
82.4926182389715
82.5451860116279
82.5818480625805
82.5978463752621
82.6086085666734
82.6052566483597
82.5978277864289
82.5565800444411
82.5111369811969
82.4992518925518
82.4886993886878
82.4596868177419
82.4045280137076
82.3519874852497
82.3096596112769
82.2529019644374
82.1961472373943
82.1329385967351
82.060935894684
82.0000332266864
81.9183507680691
81.8269262242655
81.7550704885434
81.6621085213082
81.54344254128
81.4076543644367
81.3000015415924
81.2165473879082
81.078930169236
80.9301299450998
80.7840946152505
80.6483758085309
80.5018470463584
80.3392421782529
80.1590353714378
79.9794710498495
79.8247492849878
79.6450022599071
79.4519396852326
79.2911376783124
79.1378580981112
79.0081472926647
78.8623508425726
78.7076737742384
78.5729297957568
78.3960371847017
78.2331273683756
78.0845232004222
77.9011652242675
77.7284182557247
77.5832773762812
77.407803666205
77.224458196055
77.0426355473686
76.8635319382924
76.6934106273582
76.5406558997512
76.391775593135
76.2170639598929
76.0579782223662
75.9495129689306
75.8240185300156
75.6981380455842
75.6064135013738
75.5149477157946
75.4132696683334
75.3559610284948
75.3349676999622
75.2601249853571
75.175587058235
75.1462255663514
75.0998287307223
75.0344295087287
74.9635260995729
74.9122338562661
74.8572851158141
74.7817040514381
74.7061330878429
74.6420583176108
74.6052450847508
74.561948561188
74.5162665603008
74.5055414145412
74.5243074175366
74.563161256876
74.6249386003603
74.7131281032809
74.8116225351147
74.9216025761904
75.0178585789098
75.127803173351
75.2355399036022
75.3283662489868
75.4398525896642
75.5742875710525
75.6964321956049
75.8248957574927
75.9548147536974
76.0926149876002
76.2553734699798
76.4358364500134
76.6093011675735
76.7911619145106
76.9888055418085
77.2085573329634
77.431065039782
77.6425847087887
77.9232538546049
78.2242140066728
78.5149021852345
78.7897809464235
79.0558003176073
79.35169266643
79.6305812061442
79.8883696104144
80.1619902358279
80.4494684928251
80.7151553504096
80.9401364927596
81.1640117289822
81.4150412015975
81.6379739953393
81.8087770965217
81.9827716461999
82.1474865208756
82.296382135671
82.4371063466238
82.5739011906241
82.7014975548601
82.7891859052124
82.8660506294953
82.9647791045317
83.0818402216941
83.1789622162325
83.2600755357066
83.3655339548838
83.4748418451674
83.5577111926213
83.667126157308
83.796992097624
83.9099665758541
83.9917473469555
84.0764981998801
84.1667876292567
84.2492181532504
84.3128071127655
84.4018603208179
84.4841453689956
84.557568941174
84.6095968686283
84.6724421435195
84.7131628754736
84.7492101313485
84.7716953324125
84.7862875452259
84.8067572735318
84.8247021702331
84.8300108859893
84.8196128305268
84.8276888559539
84.8394437309101
84.8149121558696
84.7648267858797
84.7214051522256
84.6926914396666
84.6715207261546
84.644525812805
84.6007398525799
84.5841608367152
84.5600695069246
84.5554717715495
84.5199664103751
84.4786113839179
84.4352966264153
84.3581786748961
84.3291340570891
84.302134554564
84.2481505491685
84.2283682627463
84.2155338913153
84.1513608892477
84.0542322620304
83.9934482750564
83.9495816265657
83.8568575661692
83.7633399475165
83.6948176947121
83.6143574467382
83.5398606279295
83.4119812364537
83.246668648683
83.1115644078769
82.9685932224519
82.8343759615205
82.7119533317957
82.5298774757627
82.3379741900632
82.2035518235543
82.0596388292467
81.8909247945535
81.7490308512695
81.601351903941
81.4412720943597
81.2740818574896
81.1335822361063
80.9850771039083
80.8655170668217
80.7838225320228
80.6471708277201
80.4946204579276
80.4072196864601
80.2750806295824
80.116057318543
79.9867692277988
79.8864382787164
79.765873885125
79.618921713217
79.4923767067354
79.3906653090946
79.3338630397429
79.310723194221
79.2817872066892
79.1998106819365
79.1271013675686
79.0755134804805
78.9963505625018
78.905977411427
78.8526568683918
78.8648322881519
78.8264509662395
78.7710968629684
78.698134574742
78.6054632905401
78.5741149457839
78.5846438009479
78.5430755600178
78.4782540455796
78.3848054194241
78.3221621005101
78.2548351831049
78.1853416368939
78.1243284165802
78.0784815816826
78.0389507738508
77.9807199377133
77.8404969957549
77.7576998817831
77.6868968660248
77.5979283913011
77.4726750583332
77.3521697001417
77.2256953319712
77.130181838815
77.0597405614368
76.9258542820109
76.7933872787961
76.7399587236581
76.6180782844254
76.455206894211
76.3500112047156
76.2656821549356
76.1480695430733
75.985041159675
75.8564581462932
75.746426965735
75.6181074163967
75.5511818808073
75.4187699649233
75.295325955962
75.184695449572
75.0969670882306
74.9478486768404
74.820080220006
74.7202026027191
74.5980850296708
74.4690015517271
74.402526646995
74.2766823357319
74.134483014069
74.0374291371062
73.9140367974355
73.7454788382063
73.6197341280116
73.3738466366512
73.404078254215
73.4676896655163
73.2524753891499
73.0126985125837
72.9020908124221
72.8315677315306
72.6770990537018
72.5219214408577
72.4084930907004
72.305122591502
