1798
3999.43349933624
650.420452594757
1
128
4
97.9151179996774
98.4179552114567
98.5816258247396
98.3644907930846
98.4108239238248
98.3112017840858
98.2574311334093
98.4178504543061
98.6758922672298
98.4244335925043
98.0263519096803
98.0069804681979
97.9304082544418
97.9035539688153
98.1169218675469
98.3816024178937
98.6317823413454
98.1721880730748
98.0614652555814
98.3345697405003
98.5054763203092
98.4352757161088
98.29354358865
98.0951991224243
98.0584110472163
98.2690180399253
98.5087661977
98.3564362268696
98.1032278474262
98.07947483611
98.2339404192092
98.2131953293298
98.1976571060884
98.0635595196427
98.142513377361
98.289588913278
98.2143899123621
98.1324298546622
98.344797314639
98.3382116413186
98.3966488282544
98.447766115471
98.237495524206
98.2165599975834
98.3108295147317
98.1789362259174
98.327642758524
98.2549078455958
97.9316874388601
98.1141796698787
98.2715808272009
98.0943432230345
98.170402720233
98.0715792014415
98.0072184079662
98.1990576133766
98.0939932653499
98.05011772276
98.2700349133758
98.2849902996007
98.1799274548199
98.2886736126608
98.2400956711481
97.9213915791706
97.9327792315135
98.0136186141943
97.9830267554523
98.2043141676233
98.4305336564248
98.3454412487307
98.2031469651376
98.3520658410054
98.3692922173271
98.2079309354801
98.2274013645988
98.1147489373604
97.9782871984051
97.9960003630922
98.1495041321326
98.2809397776288
98.3436449699451
98.3167881906086
98.3115203938164
98.223232467023
98.1542772611017
98.2423497789775
98.2484291218245
98.1213891647513
98.2158832706366
98.4063853792074
98.3635837158447
98.2985180737929
98.2788591313028
98.2718233937917
98.1466588300684
98.1045057005283
98.1933115997663
98.1823886856027
98.2778435704727
98.3532340192822
98.2390337014204
98.211087227686
98.1866267094722
98.1233274144302
98.1588056573636
98.145669314341
98.2212591637347
98.2689523740793
98.179384675091
98.1932637531443
98.2510792077229
98.2600155875846
98.2704160108191
98.2427375992423
98.200145912364
98.2537132738632
98.2408433771946
98.2068526971899
98.2669701382666
98.2192454657802
98.053962177866
98.0319526833748
98.0867495718903
98.0944187335514
98.2425130389223
98.2769146477988
98.195023584037
98.1588417243968
98.2198118348667
98.2637259060308
98.2402233803711
98.1724164498208
98.0327960160257
98.0134968523174
98.0902962511182
98.2038476226403
98.2510232268764
98.1264827461263
98.1319864587207
98.1972512908052
98.0611378644506
97.8855199566094
98.0154069153336
98.1980622704443
98.1925801940715
98.1541788465323
98.2080043895673
98.215546803941
98.0692318927066
98.1049913008791
98.21735940057
98.1409892545054
98.1031305433033
98.0738996604961
98.0949424091231
98.0995933824425
98.0894052566595
98.0830678819662
98.11664842985
98.08406951418
98.1096866940541
98.0699338842625
97.8561831332165
97.7223034956563
97.6912341116498
97.6954041578379
97.7016403221065
97.6039619434735
97.632957579009
97.6841420657491
97.6601532116089
97.6954467588544
97.5858176650274
97.3401465060068
97.2685698335471
97.2694666320135
97.3426023487068
97.2978512288513
97.313324913195
97.3489722535219
97.360691708378
97.2700215278942
97.2335557409503
97.2774059615566
97.2497728935752
97.0975225845431
97.0060494898658
97.1458234632105
97.2287368338601
97.0254427535355
97.0285821558881
97.1751026336034
97.080835205633
96.8829547123453
96.8636868193866
96.8620414761398
96.7421851019053
96.6072394053929
96.5578966135487
96.4257668321303
96.3966479145881
96.4917812779864
96.441776961167
96.4387263132793
96.4867615313196
96.3279739197613
96.1544764832294
96.0283477186263
95.9170941367321
95.8502177233216
95.882429600461
95.8950787947743
95.7901683923988
95.6614838771921
95.5496820935169
95.4674956035586
95.4316977411489
95.3999916490757
95.1713994022851
95.1348839682544
95.1800406442361
94.9928424850679
94.9523370526183
94.9846954566401
94.8822383267698
94.671050300539
94.5116660456183
94.3850545636794
94.2838034627584
94.2635458069345
94.2294842298409
94.1037478712101
93.8954144225389
93.7818739090348
93.7644100555968
93.7307457142633
93.6709023795796
93.46726004733
93.3327673717175
93.2744679090416
93.1342888217196
93.0283946349729
93.0873085288185
93.0858463754358
92.8884654368129
92.6914743683863
92.6491998795685
92.5670864793157
92.3926988711972
92.2103497809535
92.1596245375595
92.0981266023826
91.9986858467349
91.853203454087
91.7946530153496
91.6617707235643
91.585299345773
91.4347383392964
91.3203355390737
91.2702621092278
91.2258597616894
91.1054506926302
90.9421080267552
90.7865005514011
90.5962497964471
90.5578117478735
90.5446522756683
90.3859328625977
90.2835655845534
90.1940412350399
89.9064819949686
89.707466255358
89.7149155242337
89.6413049741981
89.6024583722943
89.5416729788197
89.3233727131823
89.1090550124518
89.1482747293366
89.1622363042301
89.0571824749665
88.9273232534651
88.7073299793906
88.556521723343
88.5113702670138
88.3942251266134
88.2946198906639
88.1514081462054
88.0728523664594
87.9946406316273
87.8644126065772
87.7222909110943
87.6822814044979
87.6852100772857
87.6286308236323
87.4557668994905
87.3194091816047
87.2511566297087
87.1561062208475
87.0204731236851
87.0211266770605
86.9470707917006
86.7719891364004
86.6643316753709
86.5740407394477
86.3826343818005
86.2869967179966
86.2493321772902
86.1696926444409
86.1098779940663
86.147071749868
86.0954559520476
85.8157213203616
85.6973749838401
85.7604965562317
85.6325523577372
85.5842499889138
85.5879288176018
85.4900677430694
85.3478400249844
85.2700544227359
85.2718015686097
85.1726391199355
84.9948108639812
84.9567442639025
84.9399670908209
84.8509803758459
84.7811934742106
84.6523445678993
84.5037565438626
84.4949293009727
84.4766591563928
84.4035321858174
84.2721211366899
84.2062126784647
84.2014888303593
84.2817504515426
84.2145754991607
84.0720107892341
83.9679870886244
83.92700980006
83.8873795939542
83.768328261278
83.6672980112525
83.694967943404
83.6449666113323
83.6288755239214
83.5917806977083
83.6095970095538
83.6278276757377
83.5431959546668
83.4348521733692
83.355251035398
83.2798406505415
83.2733596100093
83.2818326777809
83.2293994870723
83.0642687947586
82.9764940705474
83.0399577938093
83.0962555527354
82.9928252058013
82.8951299211723
82.8963573051161
82.9067924460105
82.8586653382486
82.8269768965423
82.8120606352154
82.7453145299343
82.710257178534
82.7571483292322
82.6808517499454
82.6032426380334
82.6493972575619
82.6510868868456
82.5777697312855
82.6009218780658
82.5124542077924
82.4497701967418
82.4080940900577
82.3370440743269
82.3082052565105
82.2461758794828
82.2286968557467
82.3199574817246
82.3443630758695
82.2476142090299
82.1819346992824
82.2501724189985
82.2436241413214
82.1851760336062
82.1872825962163
82.2557167205771
82.2997616208431
82.1954376930812
82.040375282799
82.0335066454641
82.0805208881521
82.1682085742249
82.1870015911845
82.0981124788884
82.0901984721547
82.2407219905966
82.2959515772343
82.1964347251815
82.0972628035649
82.1115278541269
82.1343149162791
82.1796494659322
82.2301122419981
82.3238070344496
82.3155033171936
82.2381405529994
82.2524631832111
82.3375142566579
82.345042417375
82.3152793269463
82.2736837239583
82.2591104430962
82.2223249215244
82.1862502339625
82.2234874201032
82.3499199005334
82.4571809489651
82.40042853399
82.2981857669468
82.3450732276798
82.3775361996988
82.4145921811052
82.5059957096677
82.5401177710624
82.5020226096228
82.4662645210387
82.5015353720124
82.6530045196148
82.6736609272153
82.6634190342338
82.7553687071594
82.8181290501527
82.8227439700615
82.8306821259414
82.8816770403145
82.9944691681446
83.000533300493
82.948798305729
82.9901594100588
83.0620491394885
82.9932976295322
83.0646403766801
83.2537387158651
83.2683218459325
83.3039573539896
83.4372077383887
83.5558108894849
83.6749205964998
83.6440619899309
83.6119224972239
83.6705227181681
83.7191336708483
83.6830953433894
83.7463136158335
83.8524882364167
83.8908991663428
83.9008107717761
83.9267310102859
84.0148410686157
84.0867650642968
84.0768095644249
84.1100295436357
84.1262345819256
84.1750891769722
84.3737787754738
84.5491482067138
84.5857622690281
84.5980731941854
84.6215263836971
84.6370103711903
84.6432892234019
84.6425296404638
84.720069463027
84.7520776522325
84.7427212675015
84.8485702799435
84.9300603124528
84.9133143305262
84.8908485053607
84.9208976533254
85.0246356358871
85.172105351423
85.1956795094893
85.2559568958685
85.4338550047144
85.4948062867674
85.463938032452
85.5104387612745
85.5683023021707
85.5705482485514
85.6161233904769
85.6860475270916
85.7662899725366
85.8780591266457
85.9297298706074
85.8464274080181
85.7629831170081
85.8193288524113
85.9513792282387
86.0518469437344
86.0667164152422
86.0684752122232
86.1394522384024
86.1771162547727
86.202572408856
86.3244894021367
86.4893845873147
86.5255060973533
86.4711156955354
86.4539210797056
86.4970069518783
86.503248451454
86.4462362522194
86.3837627723589
86.4026948916328
86.4442177801275
86.3885594747935
86.3613915854167
86.3813535083533
86.3087522982065
86.289552806664
86.3375690363024
86.3329268777263
86.242192492536
86.1176277370429
86.0502581469527
86.015535913717
85.962441094928
85.8752161502392
85.8351734212982
85.8588460527389
85.7727274425704
85.6750094356427
85.6265652821534
85.4730243513097
85.2887278161893
85.2178269381133
85.1763437721888
85.0549665744624
84.9348480408632
84.7868463421617
84.6172443517582
84.4897882371571
84.3518861599136
84.1372923792969
83.913735270175
83.7822908519764
83.6312656793081
83.4192673447291
83.2033903608779
83.0423211629994
82.9043597615654
82.783102420881
82.7805468345531
82.868838999431
82.9637856807049
83.0217069239347
83.1282471376548
83.2662719052188
83.3389755454307
83.259288088599
83.0990807923304
83.0156088537413
82.9386632941347
82.8139275962853
82.7321219414949
82.6904494875391
82.7088666525038
82.7727191395002
82.7948802966263
82.8629046565022
82.9631022996573
83.1120058968235
83.3413080232767
83.5673303522441
83.7989937880437
83.9311895189029
83.9900445285495
84.0775391904079
84.1717913955193
84.2901899838522
84.3615307415357
84.4605247566662
84.6317605481262
84.8337138770421
85.0284508303813
85.1640778834942
85.2185081600674
85.2582846058551
85.3589646573031
85.4345001488008
85.4374123568657
85.4770146228235
85.4955029208694
85.4663942342865
85.4882349176711
85.5743635704898
85.6072392400876
85.5269996263354
85.5085450075581
85.6560653533037
85.8098810715189
85.8901665700089
85.9767744991357
86.1316375078807
86.2802570170923
86.3291391769478
86.4381309723201
86.6341369521824
86.7950553146279
86.9750984460597
87.1382884188793
87.2545480493905
87.3741021517797
87.5121328318775
87.7085774987604
87.9655256228069
88.1555799124893
88.2275462081378
88.2184862792837
88.2668459819749
88.307606365845
88.3394317230603
88.3944390272684
88.4079822871952
88.4116517512039
88.4982300267798
88.5948164075239
88.6049586379703
88.6352658539924
88.7605345542239
88.8535586992983
88.8754041924917
88.8812768807422
88.8769707013645
88.8794436739806
88.9344214498614
89.0115798322689
89.1098093233656
89.1919162449221
89.2248246061166
89.2471179662917
89.3850141594147
89.4656027830292
89.4808036497754
89.5799108994191
89.6957976917924
89.728903089249
89.7736767393898
89.9070289688443
90.0670935357872
90.1518953189211
90.2266463125205
90.3219248142387
90.4037105137502
90.4968963645103
90.6065616987435
90.6614724478782
90.6586142490998
90.6475559729366
90.7339689316624
90.8279414802242
90.8776783467294
90.8876221149032
90.9140442578266
90.9828769071836
91.0046340311823
90.9548898512931
90.8968055041684
90.9323091845424
91.0133918398919
91.0309403428703
91.05632060725
91.0497704112047
90.9954727050488
91.01495442836
91.1021617814549
91.1433989295814
91.1624074399037
91.1354318906356
91.0847546189501
91.0927133524552
91.1110058816737
91.0666128479908
91.0622205047076
91.1090958788643
91.1325077979166
91.1171387349551
91.1268177163142
91.1582311366492
91.1853617186084
91.1694696153606
91.2020421164441
91.2661139882949
91.3322935309158
91.4004554352754
91.4691494348322
91.5175307687812
91.5577291319787
91.5902481903558
91.6570427304208
91.7201907403234
91.7387641494024
91.7667401489937
91.8140637886804
91.8294478451857
91.8214681069388
91.8500583913459
91.9112643422149
91.9311831979107
91.9123964195653
91.8743048218687
91.9070336820906
91.9920345099439
92.017425396598
92.0232024708733
92.0543481823804
92.0446896595567
92.0231573458176
92.0827395939995
92.1834777175979
92.2435282957583
92.2947010312795
92.2432214568699
92.1994178602311
92.2506598583826
92.3038203338739
92.329603878394
92.342804698422
92.3372175005334
92.3906260913457
92.4379280941926
92.4562677434624
92.4813082069668
92.5089920321753
92.5581439394348
92.6077051599155
92.6210004054262
92.6796739815041
92.7156507438961
92.6995614142091
92.6698501367029
92.7025308473469
92.78701766697
92.816480151945
92.8182995237741
92.8630877388695
92.9054119494015
92.9280469586551
92.8950803966057
92.9018890831347
92.9206966886376
92.949676159557
93.0333888770745
93.0892073801701
93.0510534457314
93.0876389598454
93.1709755139806
93.22236251038
93.261226222386
93.2530920006657
93.2120439117965
93.2568331294241
93.3106240216157
93.3027567391551
93.2457750461878
93.2684215766463
93.2924469321854
93.2879518863485
93.2817991137998
93.3077832052664
93.3245671212668
93.4161262545877
93.4575911558229
93.3500454931909
93.4047009840402
93.5557885681041
93.5046603103655
93.4470714281803
93.4454467431505
93.5103011065661
93.5907787241706
93.5956278093892
93.6222038824503
93.6046456494437
93.52392455656
93.5320428314921
93.5662379931195
93.589440126624
93.6307639522669
93.6845252598412
93.6401586233488
93.5899825044016
93.5199781120313
93.5298817546109
93.6096078588087
93.6670832347707
93.6320064649807
93.6080407124615
93.6575582535055
93.5976208424121
93.5996892907364
93.738244046334
93.77477310929
93.8152992946616
93.8463262661382
93.8741514626995
93.9105901900576
93.9494577264239
93.9499203812049
93.9225666277974
93.9422364844516
93.9553371828326
93.9307993145181
93.9664974009993
94.0528835143681
94.0880807668856
94.1032841249755
94.1531726981001
94.1162539071617
94.1316747189162
94.2525707223489
94.2639926735063
94.2301738941355
94.3265283784171
94.3681019689474
94.3997528176841
94.3741023969186
94.290583006542
94.3531431130615
94.4597472667075
94.4315625351042
94.4127777200694
94.4695576613973
94.4740878029899
94.4817512400557
94.5361988425218
94.5288310437556
94.5014321980893
94.5160125234388
94.5426733618357
94.4963482130341
94.4761677839597
94.5516398869606
94.643358583005
94.6676602684407
94.6802871313285
94.7025474667421
94.6975590837221
94.7148875674142
94.7448121820566
94.6939069546022
94.694350503412
94.7357837587598
94.7635034578933
94.7181427221491
94.646579824363
94.665414268764
94.6835856244216
94.7100388907061
94.7526629773849
94.7168190633233
94.6915287687638
94.7154699508183
94.7983440830806
94.9060921010223
94.9396564350712
94.9338267694534
94.9853221195517
95.0535340828831
95.1207100392785
95.1506501559231
95.1594317892755
95.183531118294
95.2443479632332
95.2607390650434
95.240856538353
95.2012187414087
95.128153271702
95.0519944264504
94.9505706415499
94.9289462696369
95.0462698008057
95.0461029529643
95.0313609019734
95.1334096490661
95.1620424237897
95.073838871772
95.0342715760175
95.0986377919401
95.1025978021482
95.034246054072
95.0972391091633
95.169114355907
95.0752356392263
94.9778753670096
95.0388453863991
95.1767351994518
95.240612864881
95.2364811582848
95.2401363625863
95.2228030354031
95.2557486369837
95.3493164855455
95.4113696265168
95.4045207613536
95.4582483311289
95.5585527750457
95.5533195871425
95.5564311601515
95.65226573956
95.6744100308353
95.6774353524469
95.7710953540016
95.9005220015904
95.9284050781599
95.9782218302984
96.169592366994
96.2863189165672
96.2941030199515
96.3733038175557
96.4095608414136
96.401139889754
96.4844470237301
96.5897733726234
96.656260674962
96.6366774486221
96.5908398976853
96.616957273833
96.7250808451709
96.9757226160499
97.0875858079944
96.9461136883277
96.9052203274145
97.0829594697199
97.1254679383917
97.1114453831662
97.238546548691
97.3496906331098
97.4954957638541
97.6851692751855
97.6633066244939
97.425442380419
97.3597638409206
97.4890536604485
97.5149164234149
97.7449141986804
98.0527751021013
98.1302134120036
98.0261603343085
97.9852790184971
98.0801052223095
98.1123421154872
98.2677607319964
98.4940244175088
98.5359256947724
98.5434005870323
98.6170379403073
98.7055619213075
98.6867550380216
98.5787693475216
98.7634072789465
99.1722356371329
98.978713759798
98.7138368932693
99.0866137293835
99.4662851085557
99.3363044534731
99.2565392344867
99.328269952614
99.2407428202268
99.5616767484077
99.8163872425868
99.6752130960691
100.120868335784
100.453002409179
99.939420970449
99.8346837833059
100.882593205332
101.580279783562
101.311238906772
100.795154288828
100.222111627412
100.08206505414
100.302275601245
100.115860626941
99.4782498556858
98.9440542746875
98.7039771881046
98.8371380154744
98.9139394399964
98.6481860978201
98.5137633868618
98.3639438529395
98.0203640233486
97.9243295759679
98.1306779813217
98.0051494959598
97.6801477471317
97.6199914978594
97.5427353026059
97.4637043690994
97.3842033672034
97.2913841417987
97.2715118986122
97.3518025823481
97.429657820721
97.3533242820589
97.2636623104543
97.3279035024248
97.3594939177797
97.3615369791275
97.5170116464881
97.6166279149821
97.5111231290682
97.4934980908265
97.5577269731677
97.5828714980927
97.4943066528973
97.3727741410599
97.4371574307888
97.5550823473805
97.6396719502629
97.5828380230794
97.4282620704612
97.4996939960858
97.681758551814
97.7805235698445
97.969523538258
98.0098297474825
97.8841246112566
97.9806234231771
98.0473503044939
97.98526782353
97.9818771826113
98.051412704132
98.1711822923326
98.3278365563674
98.4906369817119
98.7585365980933
99.3559957737284
99.8173669903645
99.4389663325562
99.118618133109
99.1976994181488
99.4206552023491
99.877847272648
100.075316942975
100.147135862712
100.408651886478
100.373799420929
100.04909452581
99.7383917133891
99.6701738755597
99.6420930800501
99.7874759177728
100.030869023821
100.016713950486
99.9938807972805
100.081840387678
99.7671218514497
99.2565161126979
98.9076490995638
98.8098285496963
98.7505849118038
98.6382073997342
98.5213918041939
98.6258448971859
98.7625398244173
98.8323122781171
98.6203603899922
98.4152222237882
98.5632390206171
98.8555757831841
98.9774106165215
98.956240326114
99.0474727041561
99.381381683852
99.4950272233866
99.5306217526012
99.4944707633553
99.1351447960731
98.8158623209068
98.7182149941323
98.5849319646404
98.6444518042409
98.756337654032
98.7158225312906
98.483734786536
98.2075723217957
97.8898207969332
97.7644740332724
97.752038778417
97.575765063891
97.421355128102
97.2771342862143
97.2034310873698
97.2990413703397
97.2784177027329
97.199051611878
96.8712886968405
96.6288576807357
96.8633181878525
96.9120498528226
96.6551918404084
96.483337939289
96.4418728518187
96.4110626984773
96.3487085963147
96.3742663010296
96.3569181964333
96.2802211837229
96.2801080176783
96.3116010149348
96.1465307975792
96.1400505285111
96.1957338227515
96.0637561804163
96.0107711525049
95.9951015481006
95.8596604593123
95.8072251865886
95.8872219106787
95.8914555255855
95.8428856792526
95.9045011435478
95.9407955393944
95.8655424716927
95.8147205096821
95.845790636479
95.8511601128806
95.8030987690952
95.7383257670454
95.6805816403472
95.6506807456885
95.7285868661025
95.7128474541752
95.6194817085942
95.6297390720261
95.6574680999883
95.5683310265023
95.5388573768243
95.6295491444879
95.6089378442182
95.5510689131752
95.4959914109188
95.404014206089
95.3873626526308
95.4236999891566
95.4696704391738
95.463463440725
95.4319998202788
95.432720631252
95.3962260371259
95.3300828671571
95.3196209774721
95.3013145443905
95.2745440711825
95.2649010265777
95.2560705555941
95.2338008670904
95.2246228113699
95.2217150673549
95.2307147193058
95.1859968448316
95.210623982575
95.1995499695441
95.1337599957623
95.087887208789
95.0541523740274
95.0061966588766
94.947423789686
94.9189772176209
94.9423067407731
94.9091487110896
94.8481338771766
94.8137786504865
94.8242439762258
94.8283410317956
94.7931892381597
94.71458262511
94.6230412439809
94.5086426251419
94.4193746021674
94.3261398124054
94.2613220646802
94.1357824144608
94.0717483631971
94.0617054425419
94.1178950225747
94.0822915444608
94.071017750261
94.0061832573884
93.8514798247401
93.7564170862743
93.7084288211264
93.5858799312695
93.4251571047638
93.2468303347715
93.0646254882376
92.895894422414
92.7092949621336
92.485556777648
92.267453298794
92.0353579473327
91.7783838940231
91.5289834989159
91.3914400077534
91.2184414623645
91.096278395012
91.0159414636417
90.9056073829912
90.7265014230594
90.472164886898
90.215726061296
89.9474864879175
89.6739953529267
89.4159345789934
89.2196888661236
89.0127580952707
88.7995340218349
88.4857743229631
88.0744507223212
87.6763014425882
87.2440782781848
86.8819937941358
86.4912019173094
85.9816724598403
85.6261326065045
85.2056269343574
84.751179702539
84.2412684417566
83.6615447483646
83.0490751986487
82.5317412683597
82.0878497485701
81.7169383601307
81.3892470664953
81.0024650886877
80.6040019372296
80.1462206608289
79.8322757090351
79.580107198105
79.3788929304526
79.1595678653741
78.9293455894506
78.6909853964366
78.4391351464565
78.1617326657326
77.891871742991
77.5685577857693
77.2144390355701
77.0127314056338
77.0394673414585
76.8125442862014
76.5217656898366
76.2184427296432
75.8901714473093
75.52616363783
75.1150047471315
74.6362299368846
74.2072748075828
73.8704272991936
73.4712993502525
72.9194698614022
72.345124191565
71.7172250088871
71.1050348355309
70.4831531314722
69.8405827474079
69.1763447932467
68.5561252033805
67.8599315592293
67.1861378426641
66.4820569121413
65.7395673203202
64.9840135916846
64.2994461042564
63.6224879894953
62.9523623238613
62.2630653345893
61.6137225102929
60.9905735531033
60.4255066938656
59.8659645301907
59.3260602228889
58.7796737186248
58.2722123366075
57.7909348769782
57.3359135284468
56.9002444251903
56.4583919507386
56.023785197434
55.7184910169638
55.4368233102103
55.0707054299112
54.7687117698233
54.6350293843314
54.5930698237385
54.7310337490399
54.9949741372859
55.1118153849723
55.6548022172401
57.4153869681183
58.7972755381538
59.9236525563908
61.0123092665101
61.9976988537439
63.174294678443
64.1239237965347
64.9947013029171
65.9150172226947
66.8868761140583
68.4693532006288
69.7970455190228
70.2524904148725
70.6698031511291
71.3953726419386
71.8910095944165
72.1880720342933
72.536937277458
72.8702330560781
73.0997394047498
73.5502166822642
74.0033497619657
74.1617161941854
74.3390770443574
74.3443316490518
74.2716125329091
74.0785851295191
73.8819800152593
74.2286167145565
74.4900767365541
74.2399596555573
73.7816137882999
73.294203678296
72.9366685697774
72.6917643077299
72.3396940402921
71.8674669086488
71.4766849339395
71.1583936176047
70.7955695457377
70.3614275458701
69.8711276308766
69.3588528756696
68.8023537954489
68.2162271039686
67.6708393313632
67.1895970163402
66.7846997941004
66.2519734172963
65.6327349196314
65.0553528717687
64.5560582613813
64.033197532123
63.4700993091217
62.9448200109142
62.5627844185691
62.2130613454495
61.7856206270191
61.2822959508459
60.8098815368886
60.4303717144144
59.9775281571213
59.459261185077
58.8650410477754
58.2952700474766
57.8121713549715
57.4712001752022
57.1534327129011
56.8102856116677
56.4213361693523
56.1020947530118
55.8451928660141
55.6102817227231
55.3424814520025
55.1387548859186
54.9985384361361
54.6918454315645
54.2030223853946
53.6772023911733
53.2796809017327
53.1015303583547
53.0520966892348
53.1634888959911
53.3529623926678
53.5423921552295
53.7900209302451
54.0936025183273
54.329506639043
54.728384619741
55.1997550533212
55.5749973599982
55.8956763092147
56.2493175336859
56.5199011110172
56.7056963404236
56.8611863990398
57.0120026635462
57.1209057719492
57.1868933627295
57.2852436498699
57.3546411429499
57.3185852617014
57.2244684117636
57.0287049991989
56.8167140240732
56.7281464451758
56.7240795228055
56.6814423597538
56.6256655072827
56.6154238635829
56.7124758830112
56.9014424450596
57.1937725433724
57.5558050104668
57.9424765108936
58.3166151229725
58.665923247805
59.0694838728584
59.6009587036061
60.1331232767243
60.615887053929
61.044822435892
61.4849898764376
61.913809775028
62.2861258399305
62.5786765456747
62.8506731185773
63.1432896521751
63.4266908892918
63.6551248830424
63.7803485962777
63.8305001333869
63.9464245724193
64.1745836587359
64.4442351129994
64.6968394952716
64.9463526805906
65.2013583448725
65.4391074913966
65.6865869139585
65.9761866038056
66.2962084693397
66.6216529131473
66.9594009661626
67.318120494953
67.6828172219488
68.0518457448533
68.40437493669
68.7457332265989
69.0653575013257
69.3984500115996
69.7144679184331
69.9771032992409
70.2061834226672
70.4297436458674
70.6508977215322
70.8421803674829
70.9810795557821
71.1169446306321
71.2459043446632
71.3723803105652
71.4878001250133
71.6176881029625
71.7584757841473
71.8835898432319
71.9865798297065
72.1063294649126
72.2492859763637
72.3760982140968
72.4507933364283
72.5222222454086
72.6808370566223
72.8612108349068
73.003887818206
73.1244661500822
73.2436187944386
73.3798586698381
73.5154343221311
73.6551254016795
73.7823967383564
73.9146171578014
74.0773531985874
74.2531493630357
74.447364570364
74.6624739012044
74.8569817298492
75.0632997895245
75.2468227776078
75.3986886834264
75.5594069840436
75.728741882586
75.8899057406276
76.0217465738144
76.1430827587456
76.2716209056773
76.3996764385099
76.5301311356812
76.6633965433782
76.7989546057496
76.915207004757
77.0181810400349
77.0820886265922
77.1218245297033
77.1348412904691
77.0926672055295
77.010194568504
76.8857846796584
76.7478887075848
76.6316443963218
76.5329304068053
76.4417556795923
76.3428898874794
76.2154061455005
76.0548057909078
75.8561822024387
75.5954660009761
75.3347866131452
75.1093836307474
74.8748883792027
74.6036592615762
74.3011113840142
73.9721490705233
73.6301434709009
73.2841191976865
72.9784716308563
72.7368518037033
72.5176645041922
72.3168884485167
72.1767858648745
71.9925742295968
71.7912040293821
71.6067763135133
71.4254663932521
71.2559348271867
71.1064577549047
70.955665212949
70.7923557518346
70.629454451587
70.4830767865475
70.356774243308
70.2408050915733
70.1183977648119
70.0079483439029
69.9102320459924
69.8266253513733
69.7282473339667
69.6328541889411
69.5245983384731
69.3801377620046
69.177097061149
68.9320354709118
68.6210494432521
68.308943535496
67.9881401732025
67.6766742023116
67.3503042420114
67.0158189139172
66.7194127697194
66.42986412605
66.1540061383695
65.9605303288084
65.8234076646107
65.6348948899346
65.3429229248813
65.1100198726076
65.0825653334367
65.0858674653443
64.9200345146152
64.6394872040765
64.4473531881002
64.4133361291226
64.3779779738378
64.3422218003764
64.3310161506579
64.3843205894229
64.5221538138655
64.7307437311256
64.9727426933395
65.2285316200463
65.4779551811345
65.797895214925
66.1702176627583
66.5088477470662
66.7345948568442
66.8073037408232
66.9161586749386
67.1287387656548
67.2285272630105
67.2537124348146
67.2716339202938
67.3145785164536
67.3897695035539
67.5037135132549
67.7083637284385
68.014500213061
68.3451565883328
68.6815920374203
69.0042661978798
69.2944178720964
69.5493440613443
69.7697843612568
69.9387631837875
70.0477025939788
70.107255189891
70.183569246609
70.2349020046185
70.2977045719006
70.3727020506785
70.5030594214246
70.661017603783
70.8213788968034
71.0501836628922
71.358586694365
71.6782870351685
71.9993360841844
72.3294701071192
72.6527018144513
72.9728066150008
73.2945702709394
73.6011596661499
73.8890616103643
74.1963268499874
74.5050560102102
74.7546835565871
74.9503206680622
75.1209170916007
75.3087839630263
75.4746950775258
75.5794435101473
75.6406145183774
75.7032166090285
75.7726131733148
75.8200707871629
75.8612476358653
75.8796861710756
75.8405755856772
75.7785641199351
75.6844671656798
75.5823702328218
75.537007161159
75.599687714158
75.7721091904559
76.0244781861062
76.3052881221199
76.6022780368223
76.831707337726
77.0472014971902
77.2763571311918
77.4804164557722
77.6388791351086
77.7863666130152
77.9350225637509
78.0467678942464
78.1023711592326
78.1759754399103
78.2283356387051
78.224827680149
78.1895829654199
78.1061310410313
77.7785350962521
76.874479883221
75.3094339052167
73.3479262665507
71.5236280768856
70.6201607988775
71.1936941020232
72.7685046994833
74.1908022221032
74.9741608413729
75.2832805288708
75.4163775383528
75.5358351858748
75.7016144483073
75.8802837819671
75.9796011110182
75.9993219330715
75.8956631154372
75.5261938642173
74.9742873942194
74.3815221850803
73.8216448297971
73.2725566953483
72.6272276040826
71.9047164069104
71.2508283625487
70.6540880424863
70.0014616483718
69.281643231998
68.6713344721886
68.4601664516226
68.9670051779449
70.1139685969423
71.4256597235716
72.4402347436757
73.0962163297612
73.5361248179648
73.860688898085
74.1220788932633
74.3303185811552
74.5244670203188
74.6698321750383
74.7921648469709
74.9085204934108
74.9625704413107
75.0227772397856
75.0882479282417
75.1037525069647
75.05497292643
74.9775884849812
74.9244200452375
74.886997150911
74.7910772701964
74.641185247512
74.4730679191685
74.3415947263894
74.2194234464914
74.097292161542
73.9653690366415
73.8224838534651
73.6058974538003
73.301589911563
72.8512723868275
72.2141806270983
71.3664859034155
70.6102410253427
70.3991303509157
70.6920472699755
71.1726943959796
71.6481203901248
72.0669517056854
72.4422057477577
72.7582060177108
73.0056145917121
73.1626216050433
73.3074349944562
73.4679666422067
73.5863506088924
73.6295748463617
73.6957464010073
73.7553060969692
73.7832679967131
73.7617006457924
73.7033206271252
73.6490820416488
73.6453787385225
73.6221606460873
73.610305172979
73.6042154643739
73.5583643022811
73.4610986325719
73.4346164363643
73.3805396002843
73.2828846086809
73.1059597038416
72.7560477318561
72.2055314814064
71.4179159413485
70.3812517747019
69.1733765275627
68.0013440136465
67.3291092057012
67.200047325672
67.2332387756449
67.2244969714213
67.1819195075593
67.0147694861574
66.627900429293
66.0348534650472
65.5158846784731
65.0719952563463
64.7577147555928
64.5992905775407
64.5264192721187
64.4769661114397
64.516215916247
64.598524253547
64.7728080475365
64.9401024793791
65.580780106487
65.950046918241
65.9422945938505
65.8585488234715
65.6210475625164
65.1517029100644
64.6560069805709
64.2620843133874
63.9242476381206
63.5945976926118
