1798
3999.43349933624
650.420452594757
1
128
4
96.9808914166769
96.8502607352545
96.7721792321221
96.881374417151
96.9280301151456
96.9086938769247
96.9009356534717
96.8936660690945
96.9063385761404
96.9451846216893
96.966306107258
96.9827266735561
97.0027830399357
97.0109361654159
97.0259587474206
96.9178957773536
96.8731731631875
96.9498721768548
96.9153762359638
96.8729388864221
97.0032557610002
97.010946836979
96.8615625146596
96.8286453206099
96.9591771831627
97.0537265886323
96.9927471468799
96.9151915885736
96.9639609863803
96.937396652965
96.9613166848105
97.0093675699506
96.9430325923911
96.9643056629787
97.019518972552
96.9715134310281
96.8671020774234
96.9047391701294
96.9884974076665
97.0101149583374
96.9687212927152
96.9312871890871
96.9535646046206
96.9354213420771
96.9108059420308
96.9173184665056
96.7987090768263
96.8022789017867
96.9723068122848
96.98491975087
96.9211772485432
97.0131251530061
97.0505370260783
97.0411369609712
96.9766304126089
96.9194842957895
96.896857852954
96.9358540090324
96.9597449830811
96.8819757560292
96.8048985463265
96.8417583005409
96.9090460317271
96.9460354140595
96.9176167272486
96.8665970730635
96.8193601125387
96.8762877661108
96.9079491796136
96.9180966284556
96.8851270436254
96.9547184283201
97.0295537582183
97.1172801656895
97.0398107138986
96.9679621037647
96.9109713268824
96.7260781122999
96.7198244432239
96.9450641215237
97.0675332809468
97.0581629642491
96.8809132421299
96.8158618028805
96.8871942220596
96.9016288308862
96.8684511383867
96.9320181894981
96.9289448211287
96.9192939003233
96.9525329264978
96.878503964032
96.7968929476366
96.8846883636791
96.8881630647891
96.8962912242975
96.9604332516706
96.9594367130302
96.9497438528456
96.951828975736
97.0053317165971
97.0510078909822
96.9846753896517
96.9412836430295
96.9072497953832
96.9409468472508
96.9029947693387
96.8971221673663
96.9256539601574
96.9630381024751
97.0219399434081
97.0361601081995
96.9463547172204
96.9256945429118
96.924367732635
96.942015960167
97.0485244985805
97.1198173620123
96.9689651982536
96.8694417414136
96.9525363170179
97.0051534699342
96.8702173453072
96.9268406734836
97.0665754205643
97.0504713272319
96.9938007194926
96.9672701543823
96.9820541159578
96.9095712919461
96.8319827181473
96.8416774057294
96.8188268603669
96.9536051773307
96.9641500839052
96.8712999658941
96.880062779088
96.9423002397688
96.9829142641353
97.0275452819516
97.0997621349211
96.9559299872382
96.7548174581386
96.696802770094
96.7623283835235
96.9122778583132
96.8895561322938
96.8868557892177
96.9081816625674
96.9233355931834
97.0129696261552
97.0847064074141
96.9482737929211
96.8663428030981
96.8325090265669
96.9254365248816
97.0134233866238
97.0064930891366
97.008071613872
97.0154501636218
97.0158747819256
96.9550859663864
97.0201050122036
97.0741687440027
96.9382396029247
96.7739102410477
96.7930335102227
96.8634485974573
96.8250150048583
96.8392005018613
96.9160390030021
96.9634846612101
96.9328373141094
96.8267190200048
96.7908685023375
96.8838339122428
96.9158975615043
96.8613277709229
96.6665536102332
96.6702193024071
96.8792037054076
96.9691068061582
96.9397302246932
96.9152123164393
96.8510055899013
96.8408326296956
96.8228258316477
96.7615960178892
96.6010472938611
96.4914507404225
96.4898127392071
96.7136143511537
96.7488646041705
96.5199079344849
96.449984236447
96.4886510313775
96.4616355064684
96.4444152078837
96.3316111442799
96.2663813584407
96.2634200829298
96.2997749364626
96.4091384122893
96.2566938660216
95.996739888713
96.0306191579965
96.0713695426069
95.9414765387919
95.8522050810819
95.9370211182523
95.9080857736668
95.9353295427156
95.9397327176915
95.6468380026588
95.4451480924868
95.5087139606042
95.3902383830439
95.3693991350814
95.5176350454332
95.4944707916115
95.4031390151227
95.3982117904025
95.4061697569042
95.2963376891308
95.3035403394627
95.3190629273357
95.1967970300795
95.0448028000837
94.9775272529747
95.0608294817587
95.083316435821
94.9850666796071
94.8590333733076
94.806408667671
94.7668140525753
94.7438208152625
94.6321868207624
94.6582126242946
94.6130359491956
94.5512949537444
94.5420696989163
94.5130195313836
94.4107325248673
94.3143093960179
94.3621578011011
94.4130518567991
94.3138599038239
94.1738627491986
94.1101698155262
94.0852974336228
94.1112141792738
94.0613579960305
93.9025883205931
93.8666988909336
93.8680416641771
93.8617392543743
93.8267133041781
93.8285704528117
93.8008603340899
93.6862364820855
93.7208074555944
93.6865646232323
93.4198590736403
93.3609999863001
93.4245729418467
93.4286979706358
93.278636632792
93.1646797886412
93.2327119823663
93.1195586663326
92.9421888913412
92.9537234889703
92.9286380522516
92.8527714168812
92.8183602782006
92.7057894822072
92.660909031842
92.6728350071413
92.5837570580824
92.4221782914694
92.2748361552683
92.2479444455257
92.2857021480597
92.2304213070871
92.0722441725649
92.005899521122
91.9099356514977
91.8770174478525
91.8570842118654
91.707431415674
91.6181668635365
91.5577961423758
91.4762131131396
91.4865765365762
91.3343030853747
91.1564842525542
91.0478633240016
91.048468418523
90.9791240236155
90.9534050154041
90.8326480108292
90.6267411233762
90.5021880822833
90.5175386717055
90.4468841191532
90.3157042921046
90.3167996063473
90.3945210781951
90.1777122640841
89.9915787203429
89.8853726898351
89.7265020404998
89.606808805317
89.6061835801723
89.483548603098
89.3480329232833
89.3496035821257
89.3776762660445
89.3469893655031
89.2155835180913
89.0372279137164
88.9335902437214
88.8427892524906
88.8461040913657
88.788499940095
88.7519029745373
88.6962707121442
88.6502881242417
88.6526521786198
88.6178121776561
88.558239355465
88.5120860203294
88.4856341164841
88.5065014082333
88.4740503265608
88.4827448031137
88.4614348228554
88.4721272441096
88.5135273286161
88.6435370925561
88.6817319222019
88.6397100202718
88.6527163771363
88.7453648281935
88.6922024181111
88.6887897550035
88.7720027273855
88.833739101344
88.8627362639862
88.9992113372471
89.008506430191
88.9583491561659
88.9697266247796
88.9084727061828
88.911523453602
89.0348865596863
89.1184013946361
89.20083335011
89.1541082067447
89.1077809844316
89.1853049708863
89.302969423928
89.3310991699717
89.3849981076428
89.405475391967
89.4368612914569
89.442321472467
89.4872666581503
89.4711356729072
89.4841418105899
89.5599591374402
89.5039689231743
89.5139803901283
89.679839554108
89.748023520623
89.7775674957615
89.7812881258301
89.7660081679314
89.7564214068152
89.7887805640818
89.7448638622198
89.7554172638786
89.8589710713616
90.0694644953231
90.1376752331754
89.9973998803293
89.8906916016876
90.0402658249836
90.1639622571285
90.2060431273601
90.2257860808706
90.2550899344972
90.3610114751141
90.4191826077326
90.3668507791156
90.405104394448
90.4624595607563
90.4735489369344
90.4724880307191
90.4358990659566
90.3920874563356
90.4322623969179
90.5018135116268
90.5070184339724
90.4175023283966
90.3347073169319
90.3311072417949
90.443134678708
90.571438441814
90.5863229061111
90.5766837715032
90.6108425915848
90.7007043268325
90.7931613150514
90.8985319507016
90.9417182702046
90.9301777581852
90.9969318065996
91.1037232039241
91.203139764776
91.2222657153349
91.244045159517
91.2816114305119
91.3461199893953
91.4076100448833
91.4610930146483
91.5751098916374
91.6440704179648
91.6523096201857
91.6390262354243
91.6420640277389
91.7615215382702
91.8642148871367
91.8676902823736
91.9048900164881
91.9987899621176
92.1049795176505
92.1670394445261
92.1362511761128
92.119445567403
92.2439279307432
92.3005699589413
92.2906040532639
92.3665731222568
92.3893810811778
92.407222764343
92.5029749478392
92.6231958195331
92.635454470971
92.6649179794721
92.7371700932956
92.7628318986717
92.7224735124107
92.7677573183087
92.8130341724139
92.9500787644793
93.0713854409586
93.0497466726088
92.9906403065007
92.9972082108256
93.0905750306441
93.1733694346594
93.2272873974589
93.2670415011776
93.2319494745558
93.2433183012692
93.2650248848167
93.3265201192078
93.4222836152752
93.5341840811646
93.6328788199706
93.7168185618845
93.671249362617
93.6546313428363
93.7258765666191
93.7297400002534
93.6675675181483
93.6379423502686
93.6690971614062
93.6988442410957
93.7845935961889
93.9108750174887
93.9270415965999
93.920964787875
93.9300039206955
94.0060178977766
94.0504821250569
94.0338627737056
94.0648735834594
94.1799861705991
94.2280408278347
94.1868299830557
94.0741873181776
94.1087062625974
94.2267759157936
94.3218567425758
94.2959493135544
94.298736315575
94.3868625303587
94.4935773750977
94.5057326699166
94.5068433351998
94.5278502613954
94.50818357339
94.4920640611145
94.5357856406641
94.5678131915677
94.5920754809293
94.5810036576945
94.6641842663875
94.7079479386476
94.6552866384936
94.6594691443047
94.6173083681597
94.657265332088
94.7591122765575
94.8214744135535
94.7980572355508
94.8017900992231
94.8956991876212
94.9541595420522
94.891619788791
94.894333568332
95.0027623059986
95.0105286091337
94.8866788720867
94.8743092400224
94.9681576644837
95.0271771063343
95.0113963119854
95.0218347100183
95.0937773955158
95.0906475333361
95.0482672521174
95.0082173953843
95.0559820233339
95.1326521202622
95.1389202310363
95.1340233081309
95.1392268912102
95.1308535383008
95.1559158809211
95.1969375944845
95.2588238324442
95.2884434913902
95.2641459183222
95.2808545051814
95.2916184904291
95.2539805916642
95.2794166227718
95.3255654349064
95.3623602757364
95.3391026478004
95.2937121323542
95.3155556809692
95.3848195899434
95.4439546824394
95.5246159050414
95.5001732285755
95.4795229079217
95.4673590286211
95.4706508080938
95.5159638766448
95.5656142040082
95.5270086864821
95.50350944485
95.5240972874701
95.534173072439
95.517413163368
95.5710476594308
95.5894589720809
95.5597296789802
95.6287051698701
95.6319737128999
95.570874072789
95.6666698090308
95.7114892073625
95.6809882188773
95.6522805643861
95.65544775729
95.6374391038735
95.6582852483235
95.7005196840062
95.7140647462502
95.7033898276829
95.7535316557119
95.8180206521254
95.8407322518762
95.808292947918
95.7817126308778
95.7730982847559
95.7673175842631
95.7628009755239
95.7811151506834
95.8248359057969
95.8411196654302
95.8378229452637
95.8051477955252
95.8211521728138
95.8590172614539
95.8804863198352
95.8489339621716
95.7916995889411
95.8498850268825
95.9431145427926
95.9574177221385
95.9071574057789
95.8732956367595
95.8638589772406
95.8600966507728
95.8461227776949
95.8777280719914
95.9327623313885
95.9658115667922
96.0005582986753
96.0165430672511
95.9304543594857
95.9248712082912
95.9873547670848
95.956773032806
95.9260153673515
95.9723363305455
96.0194793481685
96.0946591818807
96.090564659603
96.0694618020634
96.0839083495921
96.0765088239335
96.0872774128237
96.0624120115413
96.0145808632761
96.0109610112825
96.0275480162364
96.0406038360536
96.0081572826712
95.9983566400417
95.9686461725658
95.9445504746697
96.0259748337537
96.0644418448068
96.0111914970178
95.9412099828845
95.9158855067189
95.8956494875137
95.9024180636131
95.9092136564211
95.8263502360838
95.7589514738502
95.7953731807244
95.8420356369522
95.8000389835117
95.763682537416
95.7229492223942
95.6694842441924
95.6084953588616
95.592341243371
95.638241283563
95.673361091427
95.6596222390216
95.6597215615055
95.7228930605968
95.7597488477252
95.7714230660255
95.7738940011027
95.7792406514026
95.7358788851393
95.6752546712159
95.7161617057812
95.7831160679218
95.7732806605515
95.742185362112
95.7710917854497
95.7239982498511
95.695765513861
95.6548114021151
95.5600962895928
95.4933487781863
95.4922057469182
95.4525654200548
95.4138101145507
95.3865536591802
95.386795486368
95.4808259755749
95.592629071006
95.6965952219837
95.8067742723639
95.8580935436855
95.8768418466598
95.9124063397079
95.9614551930841
96.016722822411
96.0610953498954
96.0965846600869
96.1149071842765
96.1021852863993
96.0898425565556
96.1227607113588
96.1484353832596
96.1911870291224
96.2447067167667
96.2184002241228
96.1914985421199
96.2110090362635
96.2401500869706
96.2640422601145
96.260689079445
96.2826208280849
96.3060882160839
96.3068340470239
96.3469499046216
96.3890185042246
96.4153145886973
96.4368454746272
96.4116311893672
96.3867027283818
96.4067332651214
96.4042481466987
96.3643480267972
96.3506028852381
96.3340045752385
96.336374508763
96.3446754086531
96.3690043223736
96.3955116337249
96.4056625514603
96.3776710008474
96.3625175908554
96.34989198698
96.3764930575559
96.406117391324
96.4418529260658
96.5070158229552
96.5619727183664
96.5856930717252
96.5546729109578
96.5566145678416
96.5180873904123
96.4512338285171
96.4793487144108
96.54247334712
96.5544723112791
96.5718710259468
96.6237590287642
96.5922154953671
96.6020200181484
96.6631591028151
96.7090292134955
96.7158248688893
96.7137081889032
96.7474193925686
96.7770870639025
96.7355017690987
96.7572097211715
96.7689137087968
96.7487418212156
96.8163266250689
96.8470887823021
96.8706544548615
96.888617091891
96.8288895437185
96.743929525956
96.7763175550513
96.8436228858509
96.9201271651165
96.999720118505
96.9417689980158
96.9055806799124
96.9672022610018
97.0164356956922
97.0328576468414
96.9718222953952
96.9742436340118
97.0742182693595
97.0653979640137
97.0437639195087
96.9771345536066
96.9374783781871
97.0363420300786
97.095649692882
97.0429428759882
97.0558828399414
97.0228116540956
97.0371062679855
97.107223578504
97.0733781381414
97.0178070656632
97.0636819004074
97.162631924874
97.2150847028107
97.1534215561853
97.027455583795
97.0177624048169
97.112118544507
97.1310509224336
97.1083880032211
97.0820354310972
97.0793452054846
97.0933967883884
97.151757603461
97.2176805888373
97.2393195248769
97.2507274609943
97.1728747848625
97.05249866722
97.0824532739194
97.0622540633987
96.9189980477227
96.8198402778815
96.8467637251218
96.8219203445238
96.7221278996859
96.7143673563382
96.7648912650246
96.72327006118
96.6999345909525
96.6901423799757
96.6393962243998
96.5781045957994
96.6818559503947
96.7540309551431
96.6840889102732
96.6171995331987
96.6478450648123
96.7123340672079
96.7169140866816
96.7164160022156
96.6873128934878
96.7132080374122
96.7465975960098
96.7623362291976
96.7910425370567
96.7312157823061
96.6227445951677
96.5460146907349
96.5761801119597
96.6513830229589
96.6081815301018
96.5288846826859
96.479917965514
96.5177989937497
96.4524992057219
96.3562558834897
96.3224759744767
96.2016895930868
96.1174778433727
96.112827599027
96.0170960286141
95.9079198271216
95.9203959669429
95.9358560695285
95.9256493540034
96.0064635283583
96.0435067148772
95.8857756598986
95.7638470822638
95.6332906709904
95.4323913473669
95.1411499960808
94.7597359309543
94.2801398251079
93.8857489666255
93.6920786251167
93.7498265891678
93.962218646094
94.2835852021668
94.6538116008116
94.9896597315533
95.2340844993979
95.519879095275
95.7843648701921
96.0807456188747
96.2557770854313
96.3391327681671
96.4699763039458
96.6538924182449
96.7754139736789
96.8019801660975
96.8459724753979
96.8720659605457
96.790405064357
96.7673575366315
96.7549148055299
96.7258078840425
96.7512007523997
96.7463516026946
96.744236886112
96.7736077223757
96.8794932755687
96.8227344290787
96.734319897978
96.7768971821931
96.7884321869337
96.7813890383657
96.7281230119787
96.7350248758647
96.7472879823492
96.7444294396358
96.7473783103231
96.6448379904207
96.5135847022432
96.5436315142194
96.6258221073517
96.664526373149
96.639950210387
96.6254900482377
96.7223603208661
96.8576613632354
96.7518697470094
96.6803009183982
96.8657557697951
96.9133113529033
96.7674521623908
96.764793713491
96.848384494931
96.9489775162221
96.9508435726511
96.8310102564914
96.7794822321666
96.840771687582
96.9270362568099
96.9679176175577
97.0263830536159
97.1069457732647
97.0510623159842
97.0969737470624
97.0910968565455
97.1308719187079
97.3509907742379
97.3467428829922
97.2143407344342
97.3116270212926
97.4210048322096
97.5648644020416
97.6275928315341
97.5655355401885
97.5555282936123
97.6373906682415
97.7036946244622
97.7679539922043
97.8558973174105
97.9249202920374
98.0331906242631
97.9684265082984
97.9122598126563
97.9465893399874
97.8312868570629
97.8935979454451
98.1136206396748
98.1989769220293
98.1515108944074
98.2670028535326
98.4967304349915
98.5548721125359
98.2834851797572
98.3989115438169
98.645833166411
98.5362564904232
98.3179166446477
98.2300274227005
98.409395850415
98.6520081236148
98.5883179311211
98.6263837541474
98.7910913496193
98.8950063273884
98.8659552333445
98.8520145739812
98.7849014551785
98.9534177725892
98.9295595585878
99.0436751584105
99.234520635625
99.2229372989697
99.1386173677866
99.2148716846876
99.3590879024047
99.3356953943375
99.5059159793471
99.5123804620907
99.500906890077
99.5795359535333
99.1950731303242
99.0518599412628
99.4070353172574
99.6916813580152
99.797009973223
100.237099226161
100.495042165885
100.102214178597
99.9513696020918
99.7059187383209
99.3576419801969
99.5421391408783
99.5643564213808
99.2763531075187
99.249085460492
99.1148187404701
98.8440622494163
98.6806782761856
98.5164252810034
98.571971358072
98.8433078238504
98.7829782167617
98.3861195995614
98.0642971530372
97.8712899435515
97.8799492670116
97.9894880396554
97.8662800129452
97.6507257742968
97.7893224283031
97.9804326855112
97.8912081124647
97.8735335206796
97.8310458142581
97.632433096266
97.5683773984078
97.6205374785428
97.8272866807389
97.9223936741906
97.9209591066634
97.9244510795442
97.8907768968457
97.7490374441886
97.6819085148639
97.7597914515316
97.7499378908908
97.7189707673868
97.7666864770341
97.7298476075034
97.9409209907638
98.0788433942993
98.0615439520856
97.9485950574634
97.8020992763923
97.7810888083533
97.7809357351716
97.8179645096167
97.8907688715435
97.9085033276787
97.9719652213829
98.0383677337786
98.0702304944967
98.1612363051661
98.2001092296554
98.4071107615602
98.5547349965819
98.6013863573702
98.7781713222599
98.8530262528205
99.0218396513888
99.3525254957505
99.4989373935139
99.2798714141074
99.1806290558283
99.4088657820804
99.5573907979114
99.1794664992292
99.5262874394002
99.9922391631314
99.8023745663306
99.6813231531114
99.7392412247617
99.6707115791465
99.2474261474535
99.1705399088365
99.1916481371279
99.2480013722434
99.517655054817
99.5537076299675
99.6231891871224
99.3774639707605
99.0451931334167
99.0414691496551
99.1722248808652
99.0962408206129
98.9040762900143
99.0721119499659
99.2699173694478
99.2927832637808
99.3130928060091
99.2813446005041
99.1800258734217
99.274880645839
99.2488566429509
99.3294603953197
99.862745822158
99.7928260324329
99.8611618514086
99.8218761437305
99.2502145521101
99.1217729484938
99.1044358237545
98.8622289235489
98.7219867360926
98.946634481042
98.9340105933846
98.8774375017804
98.7665534253769
98.675951614734
98.6630887623008
98.6596231122719
98.748512758235
98.8709935151788
98.6896961978151
98.4761563918472
98.4267092820417
98.3085888229577
98.2702571030327
98.4641216868224
98.6060104385849
98.3915047756877
98.3029647201669
98.3416083325616
98.3127522985491
98.2697948487552
98.2591409393387
98.1384173935121
98.1525924708925
98.2722928582533
98.3638585881611
98.370606168429
98.3123147524233
98.2061126014889
98.0501907838243
98.0063729598177
98.084359347839
98.1832475638469
98.1437099955627
98.0368867865336
98.0444455791536
98.1672775576267
98.1922114868184
98.053262342322
98.0319317863494
98.0620982663848
97.9997860472703
98.0292212426368
98.0787313895009
98.0659415364003
98.0273053930806
97.9924106855775
98.0027029403759
98.0322268330271
98.019254671605
97.9868661514039
97.9713708686888
97.9699618318696
98.0085484596829
97.9781445159234
97.9475863425132
98.0448706311795
98.0518160981926
97.9616912009052
97.9889753895657
98.0431572037192
98.0432438494648
97.9873078783159
97.9319459595447
97.9256806821854
97.9263259620789
97.9654464155112
98.054403269064
98.0369720886203
97.955474754912
98.0044653875874
97.9816368423178
97.9417937153673
97.9225470494339
97.9457835933255
97.9893318714293
97.9739307664007
97.9578163662287
97.9657173396076
97.9991022716466
98.01187911746
97.9585626342876
97.9500719058472
97.9620910680316
97.9443058139095
97.9345510024731
97.9245243692229
97.9063329134781
97.8943051315756
97.914205068081
97.9151251747041
97.8941153829325
97.8769408747943
97.9041499304346
97.9053658925697
97.8556988481979
97.851468967541
97.8484943231969
97.8433136093053
97.8762192112422
97.8379525069588
97.7972862430728
97.6422115500084
96.826448343278
94.6381260572595
92.4297037089075
92.9563252393344
94.7280048555626
95.8695074611765
96.5716822867718
96.9730107379362
97.2102832141093
97.3611393952715
97.4327351091668
97.4747070814815
97.4872531304451
97.4871857723848
97.4646834463839
97.5007097153501
97.5283897947965
97.4854766468524
97.4902200177277
97.4547688365373
97.4433865989422
97.4059593033663
97.3787427945652
97.3457879771977
97.3712348535867
97.398080081256
97.3747678457543
97.3512316064358
97.2834752784701
97.2328955636695
97.2150321299524
97.1977114615451
97.1551831589624
97.0900889504804
97.0907752301832
97.001634318808
96.9422545474264
96.870544962368
96.7698845169819
96.6921892403752
96.6137175743055
96.4857025124804
96.4026758529526
96.3738169443917
96.2811546265026
96.1364444532669
95.9934711295713
95.9059538332744
95.7751520027109
95.6751481212001
95.6291523359213
95.5293510821764
95.4497375701256
95.3641696456743
95.2604056802652
95.1406295238624
94.9986416226408
94.8674637475355
94.7453940481257
94.6213499090565
94.478600607943
94.274906590745
94.0261300646929
93.7478673921554
93.4248259262022
93.0877605247091
92.750357305488
92.3722636699743
91.9969525892995
91.7371777745774
91.6814086281434
91.9407136247202
92.1936402485083
92.4281175338293
92.6340850471462
92.8720030805816
93.0400207849502
93.2137910687781
93.4227731456917
93.5561328815528
93.6487107330687
93.8144505135865
93.9244365607936
93.9861529126033
94.0170620822438
94.0973800725021
94.2108179221956
94.3025361536789
94.4048276365852
94.4731700573521
94.5253229532868
94.5943524265777
94.6620937545659
94.7334973592554
94.7996197837757
94.9004207976
94.9980799572878
95.022072598855
95.0932726955834
95.1865720960513
95.2501993533617
95.2980597980954
95.3610128845327
95.4810096319479
95.5714753965006
95.6346658425519
95.7078079793032
95.7774863036803
95.8324531232802
95.9394580624963
96.0028965974811
95.9965983941577
96.0671666244805
96.1627668419174
96.2402577096722
96.3279470303821
96.3443100720389
96.4151025653433
96.4788915567855
96.5211939612083
96.5822141721154
96.5965508527991
96.5474817940712
96.6173551361475
96.6521060489653
96.6106087942882
96.5827075114847
96.5900286258329
96.5920388298125
96.5604857445589
96.5594712647894
96.5252634210246
96.4409726723312
96.3819961028503
96.294611057516
96.2374072564314
96.1611894656089
96.1071115676832
96.0369390949534
95.9409580994331
95.8517950486063
95.7766759793079
95.6759580145972
95.5690434833617
95.4818424909647
95.40553898015
95.3433171092208
95.2935844194488
95.2173729698496
95.1230972288246
95.0258491741292
94.9387171718575
94.8341489909094
94.7178170025536
94.6133127359306
94.4874743747998
94.3388823105935
94.1696306443603
93.9824842218352
93.7907298993441
93.604641660258
93.3966695090567
93.1483626930759
92.945002962328
92.7426637412462
92.5330063811477
92.2373844200568
91.8741975544802
91.3728436862938
90.5713468959732
89.4759953079797
88.2164794443623
86.9153444984678
85.8003638657457
84.8229198615647
83.9356788461423
83.1132937393563
82.2017216013192
80.9998306621521
79.8202951328121
79.3729254205179
79.7090939253399
79.8120566966568
79.367212602885
78.6870349516175
77.9651493792739
77.2582432060999
76.4941442016818
75.7000799596345
74.9234728919667
74.151646321252
73.3469841601504
72.5191175301499
71.7218790986217
70.9147485350314
70.0478031045422
69.1839776282425
68.2806413290551
67.3583823136569
66.4328787195269
65.4226422877668
64.2253326529884
62.9518714825291
61.6047804656231
60.0749781774279
58.4030256610764
56.6616835116683
54.8568119430359
53.0744499201485
51.3757405436641
50.0058593844201
49.1712573229594
48.7606334213911
48.6517108564154
48.7931437437957
48.9630660531825
49.1526488047741
49.5186336761287
49.917830478026
50.1742555157883
50.4030808826879
50.655081913546
50.9346057729373
51.2195379697424
51.5600636800369
51.9231528922576
52.305198943454
52.6674908941362
53.028460924639
53.4767696413361
54.0011578685294
54.443471006472
54.8195995077979
55.1766936023951
55.6036139636043
56.024223938014
56.444152161801
56.8626829768892
57.3291434703703
57.7661542517801
58.2001301873092
58.6677991253587
59.1197555525165
59.5225784387895
59.953628227
60.3601517682795
60.7702561661113
61.1662272988952
61.5577157920882
61.9409770168608
62.3367199022671
62.7003802282538
63.0596448861911
63.4469339893847
63.8285924479163
64.1949020066653
64.6049422384116
65.0036022085258
65.3596381639294
65.6909569268518
66.0531347790085
66.4179280334553
66.7823676232793
67.1097859114058
67.4272893652492
67.7369173577777
68.0581574708044
68.3598351669613
68.6802660446364
68.9997471713905
69.3090907242433
69.6087135726167
69.9059269254416
70.1979844676501
70.4761266707118
70.7377718770748
70.9966650912467
71.2729050575759
71.5491238417312
71.8094897298162
72.0746784119902
72.3273007499138
72.5976439152736
72.8739872279171
73.1224345959304
73.3578599247499
73.5847343586618
73.7877083303692
73.9853907365632
74.1817053390171
74.3785789633928
74.5452245998486
74.6847569129445
74.7983820440647
74.8983132736069
74.9424217525971
74.9395412277693
74.9067551068317
74.8469475309467
74.7233207724828
74.5831030903078
74.394859914807
74.1860227114774
73.9450300212417
73.7038549129586
73.4640830352068
73.2174424372107
73.007648353585
72.8642960329129
72.7959884169152
72.8719952951391
73.0766760024808
73.3431064893422
73.6396664026708
73.9041003335845
74.0758290824864
74.1645249632637
74.1516616209556
74.063600744677
73.8990550478718
73.6936129391272
73.4574036334734
73.1805392566979
72.8845316923253
72.5705445752275
72.2292839130577
71.9276761828238
71.6111498122721
71.2879005912004
70.9950352728002
70.730262335138
70.4564902680952
70.1638758190599
69.8279554379562
69.5180416984132
69.2285469427426
68.9611146934891
68.7470194048414
68.6436616690291
68.6240455138928
68.6482610394273
68.6321548930703
68.543485239654
68.3353956068381
68.0487327343962
67.8163537055382
67.6927265351737
67.6897629372839
67.7738104687334
67.8959200288809
68.0238384432355
68.1066968599495
68.1585746073255
68.176781855635
68.2093329751622
68.2279728912435
68.2277262557412
68.2150151143408
68.2152641195641
68.2477740725031
68.3235098453111
68.4236206365147
68.5965913724096
68.8141916106278
69.0640722326356
69.3826993481682
69.7177776033575
70.0329435784404
70.4183752074982
70.8504946678808
71.307775307756
71.7832571988867
72.2706279469853
72.7547011668283
73.2479057614412
73.7365582648131
74.2311405022533
74.7056871880536
75.1198512050796
75.5645106077148
76.0215144883918
76.4344088800167
76.8227020059286
77.065005837467
77.0328148908447
77.1897393478582
77.7545393356856
78.2873467533834
78.7142230180092
79.0912698693622
79.4367391068699
79.7715473183463
80.0887179988014
80.3860068043698
80.7058314884691
80.9760517523873
81.21151851861
81.4453605351316
81.6718313494794
81.8955700797805
82.1187718222436
82.3349960209465
82.5584919583388
82.7258294919645
82.8620340554729
83.0154168235032
83.1792366268397
83.3126546556116
83.4273521419162
83.4957810390208
83.5156707626814
83.5536086967403
83.6893816745525
83.8487382975517
83.982990173998
84.1407050082266
84.3061359901743
84.447677618746
84.5886054505912
84.6762682963907
84.7177491111206
84.7259546239863
84.8006921599625
84.9878139249306
85.1950187432073
85.3851838096647
85.5659877882009
85.7099795852642
85.834738528402
85.9770675962899
86.1027670441889
86.1973392627854
86.2883819425119
86.3873559438797
86.481675114856
86.5665563060553
86.6756508309579
86.7573335216238
86.8616652406983
86.9397112337253
86.9658919724134
87.0302798047219
87.1341562175838
87.200849445692
87.2632404130605
87.3380695143227
87.4359659397759
87.5065307278656
87.5776080881183
87.6556817143675
87.7127302723673
87.7838075740122
87.881697261463
87.9565091449493
88.0117424779297
88.0431335153093
88.137460897205
88.1883683895663
88.1991665746887
88.2566605661058
88.3102466486833
88.3147121216781
88.3699812818977
88.4417237388861
88.5000313068599
88.5509240558946
88.6173490024908
88.6929568622578
88.7253526680137
88.7575088359917
88.8034292597486
88.8563180965831
88.8711696646881
88.8976070114418
88.9694396920159
89.0332533663653
89.0538117392761
89.0741092029986
89.1030042368152
89.0927999081114
89.1041842871004
89.1472352350561
89.1398013487407
89.1106242901428
89.1525948882189
89.1508242101062
89.1665415646656
89.2177346365808
89.2270951091439
89.2248099892955
89.2193728127639
89.1871985768428
89.1653254192244
89.1594506819655
89.1183202289858
89.0601677247496
88.990945594349
88.8848048249679
88.7617336611508
88.5434190972533
88.2182570520531
87.6900558887609
86.6117489196562
83.6284399739301
76.7101653352489
67.2962792551201
62.4355494887241
66.1676027158289
73.6256894575812
79.4860620393511
83.003479763166
84.9582052668833
85.8291879098664
86.1647074700323
86.738720901674
87.2903355461999
87.5760551153997
87.7330033622114
87.8443850132737
87.950611111352
87.9996449192218
87.9946857095255
87.9872805155239
87.9816558077315
87.9768688568321
87.9341141211104
87.877734076426
87.8613571160918
87.8551137552233
87.7822435402882
87.6887109817649
87.6305110965937
87.5349108147814
87.4113251252699
87.3196223242194
87.2109554861262
87.0702097131955
86.8927006326798
86.741629529481
86.6234704937501
86.4909734347771
86.3137169103748
86.162027972277
86.0643821935115
85.9826697249717
85.915357851743
85.9214144049149
85.9368022028201
85.9351941780245
85.8950635301871
85.9364353758428
86.0169376780011
86.0485062992128
86.1082364216944
86.177935206773
86.222935267492
86.2480838715697
86.2592811112959
86.3033008045223
86.3762124758403
86.3729175083607
86.3308774628027
86.3164045371506
86.231219283929
86.0567993430835
86.0392603511422
86.1195581826838
86.1462638120803
86.2190101023165
86.2705501434515
86.2625913452779
86.2120035983063
86.1734762440883
86.120261758663
86.0474638475782
85.9830122640528
85.9898706503408
85.9774645355248
85.9261421808194
85.8886048430034
85.8646822010523
85.766036178082
85.6536277463519
85.6045415839694
85.5648808295017
85.4225254859829
85.1568711291676
84.8637143496641
84.5647802163112
84.1140389094199
83.9477993484202
83.6307675887154
83.0362991362815
82.1428073975218
80.9360206051209
79.9318357411716
79.7233118755581
80.4136146000839
81.4048936579079
82.109796065068
