1798
3999.43349933624
650.420452594757
1
128
4
94.9382322551188
94.8749786869291
94.8183787720068
94.8333509318154
94.950872768207
94.9019390021282
94.8461772096645
94.8135892720878
94.8321666030172
94.9174662588645
94.9450325498558
94.8837580651092
94.9715224406817
94.9833598650472
94.9115791597349
94.8824111964034
94.8899182604652
94.8284401318511
94.9367885175281
94.9552998190651
94.9197904903541
94.9085582539567
94.8812739912912
94.8346867074838
94.889327589915
94.890864169646
94.9350454467347
94.9926553748371
94.9888854116154
94.8693825425983
94.8941017192105
94.9739803333843
94.9648793617096
94.9121721249237
94.9685682636334
94.9548713830667
94.9234740100553
94.8950602855952
94.9505936693126
95.0010555658585
95.0278790685388
95.0558491315301
94.9848084563853
94.7948456046671
94.8188883025301
94.9124268214152
94.9826291729298
95.0578958130911
95.1362731741837
95.014288611867
94.9221081989061
94.8705945547287
94.9002753818526
94.8755429414985
94.8458850583527
94.779111141341
94.8327949625163
94.9314150611185
95.0488213423859
95.0335293163778
94.9189491159741
94.9164808595798
95.0432601960794
94.9928724520371
95.0664555990637
95.0733645398238
94.9982263431865
95.0187545178906
95.1084443472535
95.0162944579478
95.0311317903929
94.8958456481667
94.8281232348115
95.0234058460921
95.1054683481252
95.1616849938633
95.0827316179259
94.882000649881
94.8596735483325
94.9817281817597
94.9648512001919
94.9533388921195
94.9993719435263
95.0540400451351
95.1776251450994
95.0346908962334
94.9609740938837
94.9599033898871
95.0096389606866
95.0659703265448
95.0684410708953
95.1524633612554
95.2570712426493
95.1959491960744
95.1719721594285
95.0725045360235
94.9894243086286
94.940845949712
94.9834859955492
95.1227796367542
95.2711555118355
95.1714813208373
95.0942919672349
95.229578739643
95.260875482949
95.0822200634675
95.0485735538346
95.0169302900539
94.9374240069206
94.9872616647466
95.1244765861571
95.1847578356902
95.330960440087
95.3758899066119
95.2431401046562
95.1199890943116
95.1726305141277
95.1732669197555
95.2548020507318
95.3882857993915
95.4008584583406
95.3551968278997
95.3297780823655
95.2383855465062
95.3505951401907
95.379625428837
95.3298229726749
95.2186763154003
95.2997176880391
95.5997969975433
95.6987501515495
95.5199815231437
95.3417015465309
95.3392306959093
95.4695493354838
95.3171677807374
95.030639886477
95.1802842074473
95.3349092519646
95.160570418948
95.095537992167
94.9559972875461
95.0514084040766
95.1386589434313
95.278119076246
95.2153827448718
95.2891412557929
95.4206136240547
95.3841121842821
95.4228488297989
95.5848778291438
95.6985484920221
95.6890990633925
95.4117956545213
95.2307464323595
95.3662487351118
95.5393309183011
95.4075597305975
95.3696356734306
95.3704280326746
95.4493707581803
95.5662398307591
95.5718484658318
95.473753415339
95.4730222879924
95.3716968505223
95.4074471527874
95.5254004960528
95.6336062111162
95.6573997533819
95.5903800381468
95.436631137574
95.5690037940522
95.4080451258047
95.4489237765205
95.3542440407754
94.8302930847755
94.9066676526464
95.1430384923229
95.2434161961041
95.5217279422638
95.5948803475879
95.2275584393374
95.1813742473772
95.5299796078416
95.4247939041116
94.8602978919762
94.3681604403973
94.6828303469183
95.0696034802946
95.0717666563051
94.5983890836331
94.5022974123038
95.0369901511504
95.2478572041774
94.9994397555635
94.8864726464659
94.8942877875088
94.466468139467
94.3634214854424
94.5126315211859
94.3232047676927
93.8914427281773
93.359968763612
93.858120088639
94.1757792024603
94.1299658509839
93.9763195419164
93.8850250821542
93.6620027541911
93.79105887972
93.8222992278754
93.6997305561409
93.6667742207994
93.8238743268802
93.5791044877287
93.115437545597
93.4071780613086
93.8165433075701
93.4126363703417
92.9407652729088
92.7783506824784
92.8148923842169
92.9426840779433
93.0787330844739
92.6793757208056
92.3445150497961
92.5035884734552
92.6980843764132
92.4963386365154
92.2613772807824
92.1611296296567
92.2018149263157
92.1990783931793
92.2585525371934
92.1675900821265
91.8714028983597
91.6560893401937
91.7120672977713
91.712117323778
91.7484634581224
91.7894292040161
91.4939723384784
91.3149916741182
91.336878565265
91.3621413839579
91.3639444662584
91.2838253963348
91.4106251156059
91.2388734749978
91.0664322114919
90.9787061065305
90.9368353778913
90.849012886468
90.7471148461222
90.6171511202919
90.6056115126719
90.5998859693166
90.6452491809827
90.5831966273657
90.516390651356
90.4959626480972
90.3704826616766
90.1413180245543
90.1093684312719
90.1290648038765
90.0626321197749
90.0401639410946
89.9211658610339
89.7162426801598
89.6764853501332
89.7140690844305
89.6942467708656
89.5923250006464
89.5964177798626
89.5548358611262
89.4899352876727
89.4466670923296
89.3616944502712
89.2489975521727
89.1846413494816
89.0557990347366
89.0188934629279
88.9456527112113
88.9202657846354
88.8957098601546
88.8244775019605
88.7688402928842
88.7658167290049
88.7608470787792
88.7033288945782
88.5787434719695
88.5023899836697
88.4458324298
88.4190039426767
88.3553698220885
88.2434590348608
88.2221729390361
88.1804496622534
87.9816645187675
87.9437855488024
87.9010545161224
87.8022850386308
87.8171622197408
87.8949694242259
87.7657691402358
87.749531060093
87.7700485403165
87.6768901310094
87.5124431951649
87.4118344639815
87.3630013358564
87.3443888906172
87.3498565281337
87.3118703089793
87.2015025748618
87.2024473079674
87.1530509018754
87.0189963079596
86.9944937435837
87.0434938998317
87.0255607420885
86.9584960272195
86.855746672068
86.7906213352842
86.7201069866726
86.6709240888989
86.7512806545225
86.8441992053043
86.6679071666012
86.6839499735176
86.7598808409997
86.6201479123999
86.45792371536
86.4589722629809
86.4942473608561
86.3929232380112
86.2953271542119
86.343162605603
86.2892769057905
86.2769719680677
86.2630075234005
86.2186451701518
86.1594914224549
86.1617568626796
86.1214069522873
86.046872476147
86.0142594760134
86.0325253566313
86.0160995146791
86.0471353989792
85.9999994773148
86.0390754588259
86.0003727878957
86.0185406071274
86.0603642952259
85.9128414954377
85.7941387360694
85.8835631603426
85.8996852149342
85.9153711614225
85.8829139612042
85.8670705621898
85.8116761908802
85.8864415713962
85.8614813147911
85.8278836843028
85.8001760557911
85.8273045570114
85.7390814500247
85.6600574200109
85.7065571780093
85.8723706984591
85.8838576664304
85.8321217144257
85.8341168334253
85.7741757853098
85.7273886276946
85.7446348254411
85.6803093336687
85.6798069563293
85.6637487411535
85.6206675414456
85.6665697433537
85.700082910372
85.6936767864973
85.8026312794199
85.7468481036333
85.697230127226
85.7083145891313
85.6891274354361
85.6318204020394
85.5788689055351
85.5483472997729
85.6441210514192
85.6433172689968
85.6574157228023
85.679578496154
85.7269183283091
85.6898244615063
85.5516204284091
85.5110932007937
85.5701471915078
85.5840280911991
85.574125574578
85.5811233748299
85.6585345792914
85.6568011200409
85.6178683989935
85.6617158337855
85.726163989263
85.784249507431
85.7588147266157
85.6753293318433
85.6580402180718
85.6731084199254
85.6985812512499
85.6194552039346
85.5719889389982
85.5943696624276
85.6590329944325
85.6557180250554
85.6742700373595
85.6996569733601
85.8265528831096
85.812437881438
85.7048601140847
85.7191273975054
85.7478452573542
85.7274300175072
85.786838499511
85.8217175612141
85.8583814485944
85.8218056976323
85.863028638454
85.8580710914091
85.8071209042259
85.8332254495181
85.9198778231236
85.9842551566685
86.0348283664733
86.0637335710488
86.0948311418174
86.0915644570854
86.0857906503262
86.149050705334
86.2018334293894
86.2003954296119
86.2592218432689
86.2289841333463
86.2235164214937
86.3007909511399
86.3401954801427
86.3760270573549
86.5335836218169
86.5843600565249
86.4658248773022
86.4183154003127
86.5616805769034
86.5864445761689
86.6413902520618
86.7449014643837
86.7369776802757
86.7448604184954
86.7159033433738
86.7068234104243
86.8375357998834
86.8616566907131
86.8960679765804
87.0105933000472
87.0561801412377
87.036466234378
87.1508912898274
87.2367515100211
87.2290712093976
87.165068075859
87.1108326976227
87.1671071537173
87.2700131036542
87.3089257261749
87.2735596278155
87.3202612124487
87.4546239411605
87.4513968618696
87.442095414932
87.4372301587552
87.418411502211
87.4486906390993
87.5331732977454
87.5507485828613
87.607288859336
87.63188069709
87.6829969089883
87.7787465716135
87.9008720921665
87.8804248188963
87.8403635398956
87.8013978419227
87.8376578465087
87.8881695003576
87.9551912889577
88.0167977611594
88.0276489483117
88.027686565366
88.0434751621833
88.0595095184989
88.1449163823163
88.2100416072746
88.2339378359777
88.2903537845956
88.3395170271815
88.3937556195543
88.4367855497561
88.456920060488
88.5324156490456
88.554477306517
88.5726349514502
88.6204929060858
88.639810088478
88.6029301692179
88.611508714613
88.6442445127131
88.7401596152989
88.8355057806095
88.8372959151571
88.8662982233717
88.9156867502341
88.9338661686467
88.9917347138844
88.9868354117067
88.9553989447335
88.9944193016875
89.0209652922812
89.0029046772452
88.9832361680367
88.9960796574158
89.0728468675375
89.1480597352805
89.1503403013759
89.0886777637014
89.0208415640386
89.0546529276633
89.1579545893819
89.115281232954
89.0584289817545
89.1376235057077
89.1610964538574
89.1342525728416
89.1251862547881
89.0839679747306
89.1167664442183
89.18622156876
89.2460659978763
89.2638500853745
89.2783653146753
89.3237579141996
89.3531129750086
89.3260141624005
89.3235158390465
89.3263543485487
89.3381457263081
89.391208730717
89.3897691933343
89.337967045907
89.2887055633634
89.3390141875818
89.4552905983096
89.4559337587851
89.4410945233478
89.4887593230746
89.5063055802103
89.4725214917275
89.4641146508015
89.5116934661833
89.5995223148312
89.6721185823772
89.7307760699794
89.7575758468907
89.7589658711649
89.8135237042473
89.8926081724234
89.924810498383
89.9645068804408
90.0019826821133
90.0435286449473
90.0406202054803
90.0221641778272
90.0530723867476
90.0900675499603
90.1343564111647
90.1457483852491
90.1616151786236
90.2663653992407
90.3066651182125
90.3086830387906
90.3829479184988
90.4788139229264
90.4339978027663
90.3571892860906
90.405921180998
90.4687795878242
90.475940168146
90.4590867878333
90.5167844709148
90.591054910463
90.6368650518607
90.5912686811792
90.5898711819242
90.6691765549078
90.7227601958527
90.7496502032728
90.8369961211513
90.9322435923924
90.9628528817135
90.9518262695886
90.9389346594496
90.9568534759071
90.9823291466676
91.0132093818148
91.0291069286063
91.0405567403853
91.064076060314
91.073101389032
91.1273233250958
91.2399947086463
91.2780719493089
91.216665551253
91.2571739784486
91.3036472268442
91.3159040955728
91.3108281506966
91.3614790819212
91.4209665683103
91.3938320444706
91.3894220618701
91.4438271702338
91.4243195667009
91.4412106256607
91.5109239175386
91.5329160616899
91.5337925353854
91.5327884171552
91.57364271919
91.5816759181442
91.584730023848
91.616922266966
91.5900763907534
91.5843880349037
91.6600362437844
91.7748244984317
91.8140580828268
91.8165182844902
91.7781070036188
91.7657866005713
91.7800831294526
91.7857743797119
91.826555747028
91.9133480478719
91.9455948282612
91.9443614170234
91.9596460355093
91.9571982014486
91.9523915180504
91.9974136521412
92.0306799759186
92.0476819842883
92.0259035012416
92.0548998020437
92.0929748424506
92.1096435192257
92.1332324491104
92.1283175944189
92.1199091621741
92.1405117427009
92.1877772363922
92.2453587785415
92.279725546746
92.2766371921019
92.236648864822
92.2384836610449
92.2997397625765
92.3445344507615
92.3117928832127
92.3227405802392
92.3470461417601
92.3842416097613
92.4000262122986
92.4203716481045
92.4589279415105
92.4766587865345
92.498488844742
92.5106575454901
92.5076537413574
92.5261724899883
92.5428595641555
92.5735499485286
92.5902258086652
92.6069825896453
92.6339442193135
92.6599054713311
92.6940208149334
92.7317926241381
92.7414781355423
92.7536589865353
92.7256844700701
92.6774401776085
92.7206989927374
92.7951837605188
92.8462854914351
92.8303438764535
92.815127853302
92.8604744665549
92.9023447704526
92.9343745740095
92.9207591041026
92.8966833740438
92.8901215117133
92.9146514528905
92.8932779600403
92.9133989128785
92.9721418568192
92.9827817830802
92.9868032403348
93.0095412474974
92.9867574826465
93.0075754700129
93.0649365208403
93.1010215801146
93.0634534547616
93.0698736615703
93.1130826341724
93.1601843924458
93.226482833789
93.2552872415696
93.2315478960475
93.2226702230354
93.2569052603719
93.3591606896666
93.4124464116854
93.4558737234793
93.4679568846294
93.4615733696508
93.4626173207626
93.4916877495622
93.5146810837121
93.5740277841809
93.5591970106896
93.5119515096324
93.5084672761457
93.6091920135055
93.6114288774238
93.6367536104588
93.7426535215339
93.7912470528798
93.7807700315747
93.8096338779642
93.7544908419365
93.7073808411635
93.7203933372901
93.8076219567168
93.8744431494394
93.9173908860376
93.8836231112087
93.8510333108507
93.884535537673
93.9207769107277
93.9412623234401
94.0084799631269
93.9946184071633
94.0581978197873
94.1526558507136
94.1087566286627
94.0375780016059
94.0886116868169
94.1574706171473
94.1152348593741
94.0666851674431
94.0777853462194
94.0913163388447
94.1004227498102
94.1726575120056
94.1891993666591
94.1756514828989
94.2405587436524
94.2450019272846
94.2636121084007
94.2610369966086
94.3230972480833
94.3197440110041
94.2951514732335
94.2864410845667
94.2735504431344
94.29208330085
94.4138470897858
94.3997068911786
94.2380754994109
94.2927178408042
94.4240570937225
94.375494235433
94.3131890621855
94.3096292649379
94.3219371635552
94.2870286738121
94.4111425637297
94.5263264725062
94.4555829535504
94.3685504386658
94.366417495337
94.4427883767297
94.5464730354831
94.5544913743211
94.4958491845109
94.45066506141
94.4882986820944
94.5340986237626
94.5701407885359
94.5406426045504
94.4922307327458
94.4586605423738
94.5254115873335
94.5812431675866
94.5904793561661
94.592977452627
94.5751241498502
94.5736137865716
94.6506179297352
94.5783447992405
94.5385278560674
94.5030971056263
94.578760178966
94.6701481487743
94.6206833161203
94.5812365460926
94.5994006207909
94.6288261884525
94.6505628676826
94.5726508366864
94.5756138832164
94.6723884734759
94.7216084723454
94.6545435746004
94.633888509391
94.6661001258119
94.7198873666009
94.7158201126873
94.7419717145994
94.7101103645792
94.7118081717933
94.73926520847
94.7458075496243
94.7229255518236
94.6985915034602
94.6562568440354
94.7099411421936
94.7530251470514
94.7500585494572
94.7211531968861
94.7459115242656
94.7110083494359
94.6843551084716
94.7250343901412
94.74683106775
94.6913059482874
94.7567131682989
94.833378574659
94.7994033249443
94.7554140818439
94.796311301154
94.7627799067936
94.7366365206866
94.8670802308935
94.9922942936549
94.956722154353
94.9728975959092
94.9981470259411
94.9900769722028
95.0160173333943
95.0933095327864
95.0517731194362
94.9561557674169
94.8400872940475
94.7782903751335
94.7177846330805
94.7609953694879
94.8902928597298
94.8350533068488
94.7438157687201
94.7798261801787
94.8520601058606
94.9301048390927
94.9752164207336
95.02258922677
94.9888709478376
94.9619106163972
94.9457590692482
94.9292123108992
94.8731920112469
94.7728784379954
94.5453453525104
94.4413600208841
94.5609516307347
94.6945909822925
94.6897644952184
94.734513531701
94.734053600546
94.76903924066
94.8627484252098
94.8647076772307
94.7784421606557
94.829667369086
94.9474899104035
94.9580061413126
94.9535741829661
94.934308976991
94.8537829391033
94.9534641011418
95.0274438162994
95.0149786791697
95.0461721989091
95.0852809702562
95.1211350384195
95.1840208112938
95.206048617467
95.2308003609727
95.3227249668792
95.4607831362766
95.574565358133
95.6668221526511
95.5576879436632
95.5879865789649
95.7873221032746
95.9873255496728
95.9096608019928
95.7288352684007
95.7273389282192
95.9942764764765
96.2214765400426
96.1520450944579
95.8794065231754
95.8634439193127
95.9765364047528
96.0445715773177
96.0346124917345
96.0591917218237
96.1123608914401
96.1460577885567
96.195332299827
96.2335531171815
96.3349900457108
96.3622194760608
96.2144176827291
96.3650102960105
96.5765294131086
96.6110999926425
96.4874202080486
96.5839483619482
96.7644686942068
96.8340587737518
96.7796755248215
96.8603900256611
96.890820780903
96.8023918360978
96.6988386446406
96.918953098493
97.0553693895833
96.980215578387
96.9951418664862
97.1005244125521
97.0563498004893
97.2912013930128
97.3702632896722
97.2676660390169
97.0901716838271
97.1160807535394
97.5163837411233
97.9190880272845
97.5552573107472
97.2515704730559
97.3992361584503
97.5819099359471
97.7607401795211
98.1884479823245
97.9675152523963
97.8392958802587
98.1918836921028
98.4242568233141
98.3976828711408
99.0497521127509
99.3851277635289
99.0413742299313
98.5781668819542
98.144872866835
97.941561630929
98.0734612803902
97.7742899660157
97.476022125203
97.3801186006545
97.3976215538022
97.4054404577784
97.4221403690332
97.2319937486317
97.0497147300223
96.896852754445
96.7314632173967
96.7457873375201
96.8593096118317
96.7442081445529
96.5887791048187
96.5116824280767
96.5590438298542
96.5049781153376
96.4770417038561
96.5135496483748
96.5272661620234
96.4625285094211
96.5418872431929
96.6845051915728
96.7557276374883
96.6932038949
96.5239267979644
96.4816157778437
96.7314918839052
96.7338915700647
96.5587582424079
96.4891492875724
96.5978440745149
96.6948820936447
96.8112735862988
96.8403067562981
96.8594068077852
96.8362336572782
96.7684801805815
96.6316185051665
96.7762975118771
96.9773360039997
97.1956540702545
97.2736673333127
97.1619428729669
97.0124201416058
97.1756258994772
97.3648293567179
97.3850267397097
97.2292341894569
97.3804055193256
97.7303572600574
97.7847748322398
97.7498108233579
98.0155848176619
98.2983705053873
98.4943306421004
98.4382701831055
98.2985715211947
98.3670908310456
98.6572181100856
98.7259730025181
99.0310339110373
98.995401216233
98.5655687950277
98.3019963775088
98.683264672471
99.0163625293483
99.0356241072892
98.6804520211803
98.5487206435869
98.6320090347638
98.816332179675
98.6763892442051
98.3901840396971
98.1707509937051
98.2329725166406
98.3541090624235
98.369289978647
98.0194597997328
97.7685618639058
97.8752496607261
98.0088116923067
98.187371449963
98.4285779919623
98.2161943217287
98.0683146653745
98.0804630024591
98.4108014950273
98.4976726136933
98.4134352255927
98.7253218462133
99.0031973732137
98.7723073889169
98.6563223263715
98.363255828586
98.1447682376947
98.1403146442069
98.2498748364903
98.48755965268
98.5977266526167
98.4025292307796
98.3053770967959
98.0067240761714
97.8633301906084
97.7196685759669
97.4608677434459
97.198087044736
97.2793571752479
97.447031517155
97.5607849509018
97.5673839941194
97.6548946028374
97.6570626831501
97.4333792519316
97.1575983857391
97.1600234694519
97.2841131184961
97.3550169241628
97.3128098676438
97.305992354621
97.313969529582
97.2314918227218
97.1528868571502
97.1196393386103
97.0613054840136
96.9988279154007
96.987597454825
97.0881331635284
97.0368092635389
97.0252460671966
96.9476987201019
96.9550517228241
97.0708643452705
97.0533039686271
96.9091794516568
96.8287940719775
96.8210970205612
96.8988703906967
96.8936028370465
96.897292255725
96.8623508418898
96.8621096616161
96.8701550285392
96.8706774361505
96.9435912072994
97.0507304932833
97.0280385711846
97.0049321623671
96.9157231798414
96.7807312841551
96.8404456873914
96.9193936680237
96.8307738960441
96.8208713865668
96.8643983910857
96.9023097212136
96.8665381584559
96.8285334809652
96.8401811482827
96.9430954472646
96.9204539347949
96.8024447373356
96.7932142238247
96.7893131034276
96.8516716968514
96.8478767088737
96.7928116237081
96.8531925661465
96.8980761043804
96.8839638538145
96.8375748665951
96.7735207259361
96.789204663904
96.7469962857811
96.7500583668084
96.7490912029506
96.7659099577088
96.799776122949
96.8063324205534
96.7920955349806
96.7225048931435
96.6631085103685
96.6640644016149
96.63071558931
96.5122295458846
96.4444495812492
96.4608476716729
96.4543184050144
96.2637286355965
96.0342723071052
95.991671212884
95.9546951821647
95.8583231001365
95.7195071829904
95.6199255069482
95.4987891733124
95.3859610136551
95.2457042260425
95.1833452914206
94.9618151638699
94.7006266496096
94.5011474885112
94.3584451910073
94.2817438869168
94.0987199250543
93.9910048519046
93.8320055855782
93.7337999223998
93.6771344191739
93.5846451013024
93.4674031152387
93.4063176693159
93.1339599451607
92.9573316935503
92.9632384822458
92.9105999869969
92.7363739344663
92.5736188745574
92.5672537295247
92.4811748064282
92.2453838095845
91.9504513988199
91.6979267226002
91.7161545763925
91.5204189083879
91.3729165593246
91.2012463786672
91.0407196175392
90.7802653036324
90.4146827347302
89.9271077871231
89.6354493834337
89.5134713619499
89.3507344648091
89.1545979591271
88.9448038894575
88.7445509640048
88.4890935102948
88.2135541437431
87.9311288183392
87.4188012120562
87.3098188423529
87.0123842232874
86.8373844136918
86.8170894861558
86.5373477519101
86.2251553244963
85.8763591266086
85.3887332022479
85.1597494389101
85.1681908902142
84.7608913436844
84.4831880211251
84.1462996970978
83.8347455775213
83.455829529533
83.0295749637507
82.8588474397476
82.6495770688552
82.2251139529699
81.8754497653222
81.7932794397587
81.5683476887016
81.0352899964018
80.410052996878
79.8558224128443
79.9242131086999
79.6447815032628
78.9626957936721
78.7417542512656
78.75414258075
78.4472204639307
77.9980569584497
77.5061366206341
76.9310562006832
76.70922676069
76.6968927444014
76.3205953096171
75.8597167529471
75.5022085936982
75.2162770828367
74.8039860965868
74.5157604025905
74.1467050066844
73.5536088735129
73.1969175390295
73.1013936042075
72.7076362743485
72.2493196924849
71.9146012034445
71.5978309537984
71.2702773201155
70.9238962203548
70.6180772213536
70.2838246372113
69.9342942479675
69.5989731626632
69.3344051153629
69.0829196679694
68.8461606805293
68.6380909907987
68.4640866832534
68.2730320283382
68.1397095900103
67.9833064102316
67.7115319917843
67.3952587878052
67.6280239801867
67.8140666687192
67.5592578145002
67.4704534337263
67.8384270926749
68.0873045460428
68.1838587396558
67.9625082354884
67.2938165573434
68.0290409129845
69.1346147449421
69.5078410860932
69.9526176118844
70.3664035260496
70.8671169983113
71.4123800214488
71.6732824306173
71.9397033201875
72.1841448489569
73.3313056272171
74.656537942305
75.0583844358874
75.2810420788341
76.1788890437952
76.9058555508083
77.2387648825878
77.6961371926558
78.1575023149873
78.4557779419201
78.9896371518621
79.7250440983262
80.088718378129
80.6643327068099
81.1663381793496
81.3287696449746
81.282367627031
81.19598342553
82.1272564492852
83.1552819080458
83.3323305177982
83.2503015200454
83.3638695332961
83.7789611340922
84.2379615870524
84.3479750054839
84.1580949539665
84.2649587470955
84.6032500230623
84.7810929519792
84.8322068819853
84.8080592933945
84.8024085365156
84.662998508912
84.339383534726
84.0917656557736
83.9306278002228
84.0411696161296
83.8967745924501
83.4720730287003
83.1877491148886
83.1347485476971
82.8464432065553
82.1721990815462
81.5993147402031
81.620491569244
81.6496224491851
81.2465233761022
80.9050434663528
80.5592241591986
80.3419308325254
80.1354532544305
79.8544041827736
79.478793264201
79.0345195884243
78.4940037070679
78.3069752173191
78.0843194601267
77.6102405467597
77.217430583859
76.9174431741695
76.5463815459821
76.0678628065909
75.6601499798112
75.0733576978608
74.6083035383138
74.531148234723
74.2435213724338
73.888842626782
73.5699308358449
73.3040586613474
72.9902540202982
72.6956434541918
72.5568073723751
72.4160202717869
72.1139228104123
71.942738818844
71.8580569340191
71.8647404455502
72.0046684331032
71.938489398464
71.8065356042899
71.8558403560499
72.0783791788158
72.1945933522022
72.2808531354935
72.3979867434699
72.5133670807513
72.6483239837144
72.9045196106806
73.2536889218012
73.4770625713311
73.7306666894881
74.0047758222021
74.1495347947146
74.3604531882135
74.7971660875385
75.1347106735161
75.3635365932614
75.6368560001779
75.9566067342531
76.2277336197667
76.520662537785
76.8356207725128
77.1168087846814
77.3486884873522
77.5000123670422
77.627771322748
77.9375641060801
78.2565554518111
78.475790856006
78.6699675457503
78.8630785461302
79.0295044264684
79.1778929712244
79.3418179619636
79.5114633522078
79.6526852342068
79.7687410475659
79.9091555798911
80.0576090178508
80.1661066664911
80.2918260646275
80.4384022631356
80.5721775827518
80.6983010907806
80.8269416434536
80.9337980086231
81.0128890895892
81.1070778800272
81.2369416423716
81.3379816916566
81.4047795431722
81.4649784033402
81.5333081994539
81.6128129847454
81.6967232234024
81.7364778293727
81.747583877908
81.7854801012795
81.8456597115785
81.8812767194095
81.884579599705
81.8535630582691
81.8448990691614
81.8850822814253
81.9183532684959
81.9419955835704
81.974225866786
82.0040600237143
82.0370138288209
82.0848390545295
82.1340811318742
82.1597737243296
82.1975476289873
82.2489202380158
82.2797056557428
82.2858709484582
82.2855794356005
82.3029768682493
82.335578312492
82.3634640152671
82.3820822533863
82.3906991316709
82.4126655900215
82.4303849204688
82.4481671385267
82.4795091851454
82.5075504108195
82.5223916841866
82.5653819981951
82.6037088636276
82.6281683073046
82.6547845605538
82.6945809415524
82.7415288218121
82.8133384109893
82.8835743409908
82.9182799924153
82.9450646735272
83.0055453563532
83.0679602327677
83.1066619478503
83.1253327176421
83.1652329745612
83.2009409422719
83.2204533037431
83.2403412342491
83.2461458563984
83.2383761530717
83.2461401617711
83.2330568260338
83.2004867466245
83.1677850425455
83.145123306268
83.1070120025022
83.0420147302233
82.9770752283243
82.9358525768754
82.8865658880059
82.8310443460541
82.7676069107655
82.6849761239122
82.5931797807199
82.5173061918872
82.4475087092903
82.3542232338046
82.2366255070529
82.1298214896791
82.0157909764309
81.9057291053533
81.7989842721468
81.6728644890004
81.518120646939
81.3540513545645
81.2005572321456
81.0695885623984
80.9111497665371
80.7165368564916
80.5270582851913
80.3586288348213
80.181167614931
80.000567715523
79.8174430605326
79.6711109359154
79.5302482958681
79.3588718595534
79.2059644717142
79.0708372675861
78.9119849929789
78.7438232250354
78.5863386086414
78.4293649828302
78.2491118272453
78.0828682201879
77.9163769556981
77.7322966764303
77.5554498414964
77.3865683981963
77.1919700758087
77.0097236568296
76.8545272756897
76.7169433691606
76.5749487476039
76.4453296593177
76.3275339637645
76.2090862678095
76.1096290974661
76.055417321202
75.9978626319188
75.9492700725379
75.8871779246973
75.8193944832704
75.7754305939165
75.7534452615209
75.7406532085654
75.7168062659734
75.6523190923982
75.6005445532653
75.5422496803724
75.465035452578
75.3995963684894
75.3330709469138
75.266206063272
75.235262233976
75.2200916658656
75.2137113328343
75.2203933364545
75.2922135865029
75.3857541393534
75.4806376277732
75.5977936637224
75.7177875802414
75.8228802243091
75.943763984794
76.078967602779
76.2232158824872
76.3322047702791
76.4384912116223
76.5620946779097
76.686285280411
76.8169105216907
76.9648048406455
77.1240146104164
77.3220301672471
77.5033349238269
77.6783546615605
77.8934687789842
78.1367499492445
78.3719749125348
78.6252476986336
78.9010291637232
79.2077249559726
79.5040750328197
79.7790674291136
80.0802468072236
80.380759294885
80.6592023361064
80.9454887377038
81.2167568229894
81.4577563237253
81.6722748745009
81.9333662832066
82.2068661616412
82.4354273341228
82.6064824818588
82.770452355768
82.9579934381221
83.111917008263
83.2240531773733
83.3549275185437
83.4881232284123
83.5824564063407
83.6711569185856
83.7715695984752
83.8430105550187
83.9446500778357
84.0598540803991
84.144698239654
84.2267506027862
84.321603034627
84.415793766704
84.5026289823934
84.588106076316
84.6954874626029
84.7901844923091
84.8603592588949
84.9108479586098
84.9743267361781
85.030964995912
85.0948890473919
85.169961085509
85.2473555397243
85.293617453629
85.3180888782046
85.3173046052332
85.3388864819567
85.3709304072012
85.3694275184551
85.3598274296995
85.3501398949399
85.3175761440055
85.2938576484741
85.2548273116063
85.2153597678337
85.2104335946602
85.2229074970749
85.1894218876782
85.1157511457952
85.0553178139401
85.0151426367956
84.9587196275302
84.8850336887852
84.8464858680248
84.8078835696525
84.7486643784928
84.7011558387391
84.664887899749
84.6406459706112
84.5760589201054
84.5279180976369
84.4808245750778
84.4218469014766
84.3338141277274
84.2398283960753
84.1833442711645
84.1445906832321
84.0848493886439
84.025226327396
83.937518863849
83.8289193711247
83.7000956186786
83.5450510194855
83.3661582038786
83.216168272185
83.130107262611
83.0205298299187
82.8659498737848
82.7288170872597
82.5646307173505
82.357521849223
82.1761498091268
82.0072402219457
81.7874415066799
81.6099057679026
81.479349874784
81.3249105492287
81.1642573466829
81.0585191732471
80.9187419319173
80.7561437460017
80.5975662022513
80.4743948559914
80.3195643638187
80.1592043032443
80.0210826890586
79.8767901416434
79.7374281925787
79.614877961522
79.4271943044595
79.2621602728362
79.1544220548693
79.0419372587082
78.9246907714826
78.8557822009561
78.778013200554
78.7089443871973
78.6342359075837
78.5511211102501
78.4872413688167
78.4326221563329
78.3503999363689
78.2179188672038
78.1342681876829
78.0962126651018
78.0333846970258
77.9645021058275
77.880496711374
77.7902965042019
77.6820266776101
77.6348956407783
77.5797343327081
77.5053432445583
77.4162021021599
77.3048837449576
77.1783634051985
77.0986622729537
76.9965640603699
76.8750347535134
76.7457320804573
76.6732857327971
76.5648144859704
76.4074315000771
76.2675769618338
76.1658233118465
76.0388440884735
75.9253364280137
75.8475789258415
75.7482361041842
75.5903657634071
75.4216261438123
75.2207634855175
75.0492024899129
74.9298730387785
74.8501779437518
74.7607865876722
74.6211563631514
74.4234514759854
74.2665457210893
74.1393678433379
74.0267226619067
73.8665530521713
73.7827635793296
73.6961622578452
73.5012443036008
73.2918900216741
73.1816803616667
73.0637353473716
72.9427360897743
72.8070353843863
72.7164359412746
72.5944176493924
72.5064996754384
72.3982325849364
72.274382967521
72.1155034734381
71.9601132774491
71.7103952160751
71.6968980772597
71.6465003671998
71.4246165645261
71.257350405209
71.1271518783667
71.0370305836691
70.8942193843555
70.7396664632532
70.5871659685936
70.4401816512214
