1798
3999.43349933624
650.420452594757
1
128
4
98.4579346629162
98.4179480863055
98.4242457951923
98.3236417831983
98.2298785860644
98.313087499896
98.5026020368664
98.591469101648
98.3675959428074
98.2641647848604
98.3451125665227
98.4250257808199
98.3653128607825
98.38845352883
98.4320071860747
98.318350700997
98.2925895321088
98.3006589458551
98.3043531305182
98.3254083068682
98.3657502575492
98.3727957822306
98.3534983309112
98.4112115893694
98.3404494815137
98.3206915771737
98.3609292020608
98.2658187679515
98.2707955775267
98.3973159297213
98.2957947801192
98.2108850809047
98.2553039510126
98.3354362039791
98.342703514017
98.2887922387319
98.3022052873392
98.4383307790823
98.4982360211002
98.4055519822567
98.4518452959233
98.3754771710387
98.2970225589559
98.3001989014108
98.2909268423631
98.3709144831128
98.4189731624342
98.3941013587297
98.361865958633
98.3524593134335
98.2997513902076
98.2601481480113
98.225099797833
98.145688334275
98.2505461380643
98.2823487128573
98.2253787060162
98.1868600212881
98.2479450153197
98.331913195264
98.2634199685203
98.2202753687956
98.248533451694
98.3057425613855
98.3796593170702
98.4249598193631
98.3320804559371
98.1839619319851
98.1879388708536
98.2921303486799
98.3469484297768
98.1867141562693
98.1279617578608
98.2112578555082
98.3351842035339
98.447140382557
98.3274576835131
98.1229832159686
98.1665596158754
98.4175372601773
98.4317482362345
98.4099947760856
98.3532936485703
98.2672293513953
98.198006720406
98.1338293533765
98.1368467337293
98.3102478300804
98.3543307618342
98.2079507503467
98.2035678409305
98.2949104110076
98.238583437229
98.2384691172032
98.2173618553874
98.0729290542214
98.1480477699639
98.2465029398711
98.2139246790232
98.3355146872838
98.3780468678993
98.438319945444
98.374757938694
98.3479912527341
98.3574823899101
98.1987864723223
98.1842825199249
98.3790973309784
98.3926860496275
98.2715463486524
98.2400766500264
98.3705738569742
98.3643549730557
98.3467367645955
98.4074639641923
98.3406702830979
98.2941539945911
98.2041050816504
98.2253766399178
98.4366467381002
98.3745796524405
98.3212565049839
98.3395449444353
98.3158430460487
98.3804653152735
98.3405072260306
98.2940860530796
98.3929304044407
98.4281667565394
98.4021365250328
98.4966625751409
98.4978934557957
98.3052568286054
98.1351852364539
98.2415600672191
98.4114003614814
98.1510296425542
98.1363771516868
98.3271955684887
98.3756101878845
98.2807807389227
98.1811609117869
98.1893016181042
98.2399162960982
98.4181065218548
98.4182709864462
98.3134042804479
98.3414021184059
98.349207493612
98.3795007253519
98.4102926629597
98.3538845275199
98.338949251004
98.2889347159315
98.2494286857005
98.3984371582051
98.5612177426604
98.5487653902371
98.4059012514106
98.3472981659968
98.4296503134548
98.4464838518125
98.4212082201763
98.4189552484133
98.4375779776426
98.3736458854733
98.2027064649561
98.385243830099
98.4975026868793
98.3947209486302
98.3796340850041
98.3604607420437
98.3321735256825
98.1427139403014
98.1960701780522
98.2379940053998
98.1917371722002
98.2074209109365
98.2712167195944
98.2060082269114
98.1984939698012
98.2867499899022
98.1971565724082
98.0764977757622
98.1886232712964
98.2129218448304
98.0973868821302
97.8940241192594
97.7617222856926
97.8706767836467
97.9475390601479
97.878931665588
97.7709296436291
97.671431656958
97.6621259987372
97.6964449469773
97.7300652077965
97.7208640865406
97.6004748372327
97.4799026511716
97.57776598534
97.6154244588627
97.5092648488507
97.3145615560153
97.2983686323779
97.2858117762092
97.1994938233124
97.1431759588039
97.0993746034432
96.9831268978998
96.8431044381196
96.9059409999432
97.1116231636672
97.0881092277098
96.8769547309494
96.777217737702
96.6970611621546
96.5596067677056
96.6201285698296
96.6207913177109
96.5222869939863
96.3962376992098
96.4240099580557
96.3786793324353
96.2472248042663
96.1977721635192
96.1772574481444
96.1551522265264
96.1359202738123
96.0341920494908
95.9154267888049
95.8437107085069
95.7802861447091
95.6656239795783
95.7106489271115
95.7971552250201
95.7605871731788
95.494834880558
95.3496066996735
95.3717603398621
95.3781435835276
95.3620348440594
95.316476907731
95.1874201933452
95.1444649098535
95.1562968606378
95.1255952775723
94.9720896104456
94.8779966069705
94.8086682587211
94.7059889481254
94.5746018929359
94.4732111930728
94.5592974086379
94.7060156382872
94.5338680429961
94.3847129496763
94.4437924999626
94.4001557817188
94.2821487978506
94.1925328883804
94.0827321889345
93.9334690126972
93.8931511878936
93.9870051104178
93.9892691762905
93.8489124158006
93.7138775639973
93.7133952072409
93.6922224129183
93.6076069534433
93.57886569865
93.6072470380394
93.476992373017
93.3279440103911
93.2848580060233
93.2435024733518
93.2409290197442
93.158690075552
93.0789911934435
93.1098150045928
93.0241522173062
92.961490318133
92.8959647632951
92.8240183768334
92.7642059043653
92.7104132840496
92.6257892399887
92.5080341733054
92.4980271236534
92.5457910843978
92.4763577562013
92.3577607493174
92.1665202905213
92.2407779754007
92.261973874635
92.0534821044871
92.0321695676595
92.0174043388555
91.8901427879371
91.9400558472004
92.0157913401864
91.9010305714795
91.6669946877956
91.6366162765329
91.6068481494376
91.5645790499259
91.5194753093939
91.4760870819115
91.4610324807933
91.4273667566011
91.3817043108538
91.2714670210262
91.1822042823638
91.1177626229278
91.139493258859
91.2103905460974
91.090145075877
91.0101502354209
91.0333625034113
91.0155322654158
90.8586608356631
90.7779632691447
90.8073503891257
90.744601600052
90.6412420937883
90.5634889481331
90.4708226391714
90.4248973335905
90.3579853396249
90.3927971140292
90.5169730843108
90.3750024004548
90.1566676361408
90.1908019176624
90.1960628350861
90.0420737323344
90.0188864431222
90.0741526066159
90.1450073509241
90.0274049606877
89.9044903210612
89.9449230408484
89.8719754608147
89.9170249266774
89.8566689991468
89.8694128621528
89.8279526176262
89.5722684737454
89.5338095226863
89.837497919351
89.9673045647323
89.7759249180007
89.9897762087121
90.4751786081775
90.3922904917898
89.5587906339818
89.2102553556629
89.1650900647217
88.8749436342759
89.0053198844833
89.2650347708878
89.3776233052982
89.4494265180719
89.3089731237518
89.3630555614317
89.5735786896481
89.0677161337426
88.9493525985786
89.3904401697759
89.5218416635806
89.3175813073493
89.1787035565714
88.9405558967275
88.7117660822933
88.7773132045856
89.122915871027
89.797781098429
90.1298719770513
89.64941435742
89.3190335847817
89.0595071451273
88.741439308023
88.6410805480344
88.7375349688834
88.9336966277136
88.9035393658433
88.8637060318356
88.9613164945067
88.9742734317468
89.1308216228884
89.2201135021598
89.2112175432209
89.2071627415087
89.1282666728684
89.0028763329511
88.9191805876732
88.9088999976396
88.9685418895787
88.944491154624
88.916692154554
88.9399946724909
88.9725600272958
88.9524081588864
89.0212194043302
89.2002512550029
89.1663355168817
89.0137384508406
89.0631164725392
89.0908486161155
89.029499250419
89.0653861971059
89.1436499786708
89.0505588856287
88.9857426077018
89.0094521626187
89.1747872081522
89.2404497198016
89.1165574574897
89.0939792389574
89.1998494532581
89.1819077596671
89.1448031505566
89.1684969910037
89.2210250866047
89.2232018445454
89.2578981447352
89.2491676897513
89.2610879043818
89.3079074375128
89.3608718275766
89.3970898937991
89.4723579863818
89.5325705742995
89.5608560263236
89.5491828798909
89.6006751231199
89.5968599630284
89.5792657675397
89.6110674012108
89.6810640743206
89.7212548162141
89.7487175428427
89.7027122469421
89.7219946953099
89.7498003362534
89.7591518472888
89.8316866226112
89.9099716086399
89.9650973848597
90.0201823020336
89.9808005204185
90.0361837600897
90.1450637743509
90.1487907822187
90.1198122752973
90.1268255252515
90.1740335260263
90.3195380881873
90.3983150513529
90.4103912717181
90.3984539124309
90.3752421973623
90.3925701591341
90.5167478333263
90.5296285850892
90.4890336982119
90.530013618854
90.592843262331
90.5871598862925
90.6683821855955
90.7414635816722
90.7761091154957
90.7634414817008
90.7247832784571
90.6945048559658
90.7388410061715
90.7910015213867
90.8647262366694
90.923144292234
91.0036118388898
91.0173038604818
90.9325982736128
90.8997230652695
91.0014930460347
91.034714112159
91.0324062578946
91.0503923364055
91.1136376574911
91.0924648208447
91.0542750385746
91.0805614033017
91.1880965780912
91.2584082774548
91.2454222860852
91.1792532502199
91.1777134444418
91.2194789510088
91.2937139881649
91.3039365495279
91.2793215138194
91.2889435019998
91.3650564601499
91.3691843140941
91.3549559933542
91.3464873728667
91.3902325134142
91.4133918453517
91.4551265076862
91.529894043225
91.6228789828996
91.6301201769624
91.6109422577689
91.6416171045761
91.7085035389584
91.6995090987582
91.7037677749916
91.7287493932142
91.7445891934733
91.7952674123855
91.8998096085707
91.9207960701186
91.9146870545415
91.8412288778566
91.843388514646
91.9542438727658
92.0783827629548
92.1208620695842
92.0667105808392
91.9755278870183
91.9876347768356
92.0398525279543
92.1343343842278
92.1596898752613
92.1072632307296
92.0768412186541
92.0915581819648
92.0988198835163
92.1758973990534
92.1981310833517
92.170138375939
92.1310155845238
92.1222563568041
92.0685361367968
91.9854297622341
92.0014083933291
92.073595607831
92.0101688411791
91.922305253761
91.8561560058825
91.8660126922042
91.8133780526722
91.7403564684655
91.6980558448206
91.6870080437195
91.6951938940127
91.692673381679
91.6348215989803
91.6036586037776
91.6245073618558
91.6374796166068
91.6024854528225
91.6294038483971
91.5840690773067
91.5291827803906
91.5027128754644
91.4517454422503
91.398284848397
91.3847548381061
91.3017434122808
91.1900820639778
91.1250876309743
91.1347340532623
91.1388766306335
91.22587950745
91.275754288857
91.2296959255806
91.1377139324952
91.0979710278969
91.1431165795724
91.2468046640343
91.2817560192669
91.3317959359523
91.4324050532792
91.4984454175888
91.4924384123894
91.5240964497926
91.5703340893972
91.6324312381233
91.6642339810268
91.7638170580207
91.8600560388467
91.8702223278048
91.8799839080198
91.9181737684694
91.9257117745741
91.9604175623695
91.9562096756551
91.96506850584
92.0083258513352
92.043302337185
92.0357730378224
92.0141712099063
92.012545257274
92.0695990291671
92.0669023374732
92.1073607372346
92.1612515056613
92.1692596862353
92.1946653764587
92.2551499675557
92.2701774087484
92.3134498390139
92.3233568261936
92.2928550427689
92.2826660580195
92.2973141291954
92.2790912068833
92.3403408910342
92.4332751410933
92.4771882215764
92.5540255311453
92.6527168708094
92.6900757215794
92.7767058547136
92.8448386503855
92.919404968113
92.9059525854859
92.8803788827356
92.9512645316848
92.9696849165519
92.9327382377584
92.9669254262144
93.0221317834609
93.0811334938761
93.0901779481819
93.1056953265814
93.1679126671958
93.2158744006046
93.2127360073477
93.2436207095285
93.3015589326753
93.2925084060019
93.2754098360006
93.3400485558331
93.3726541673421
93.3331475145314
93.3220923660064
93.3962956855929
93.4499505412
93.4799851739492
93.4316663418572
93.4103601492724
93.4905215122506
93.5708295299651
93.5736979906516
93.5219869705187
93.505140323216
93.5637398927207
93.6170146496974
93.6696838559929
93.6860814533144
93.6546201021443
93.626233730572
93.644171994464
93.6619790264181
93.6947028717799
93.7257198974563
93.7458391522856
93.6900092339494
93.6564627282245
93.6895194548666
93.7377769684778
93.768370484517
93.7833638840217
93.768036603206
93.7605695894511
93.7580100947348
93.7780606557132
93.8106881643371
93.8386696388212
93.8252384140712
93.8253798125304
93.8684632054357
93.9156865234212
93.9140264532171
93.9129304796688
93.9329404529688
93.957234740764
93.9747011257655
93.982777021486
93.9714577515669
93.9724864245133
93.9640114020305
94.0115543995373
94.069123527014
94.0435577594328
94.0049835877915
94.0273152635311
94.087689581241
94.128876508861
94.1026941477601
94.0927252965206
94.1126287915996
94.1253981053097
94.0929140021786
94.0819607067042
94.1197802550464
94.1625187498307
94.1611269123173
94.1476768622337
94.169017663486
94.2321059311217
94.2300378774244
94.1819284692835
94.1705977283271
94.2041111879882
94.2745271224244
94.2883975978838
94.241755495394
94.221842299544
94.2234923786093
94.2658063919645
94.3128134655286
94.3092289930474
94.3136927676364
94.3512966272617
94.3866380126911
94.3975764067662
94.3796940153118
94.3963981708355
94.4278315873348
94.4659104000063
94.4726036436738
94.4460746274716
94.4611755827622
94.4899579949517
94.4534779581314
94.4706912988107
94.5407807820321
94.614171564729
94.6199025674413
94.6171632106366
94.6217087379587
94.5688266348541
94.5928394931958
94.6991956084955
94.7071761515725
94.6616299086548
94.6548091927217
94.7233698871443
94.7901649974388
94.8228285182032
94.7782310374119
94.7119215080037
94.8119083028539
94.9083764663527
94.8238119672072
94.7830829045703
94.910156650146
94.9309281728664
94.8773186672201
94.8873737155501
94.9613744218594
94.9846726559833
94.9741423861011
94.9121250125885
94.905477084597
94.9892076142536
95.0528531771203
95.1577571840315
95.1748783016502
95.1141689519808
95.1439755662294
95.1708598119641
95.045429642738
94.9835949187206
95.0806733708861
95.1062287979142
95.1203686257905
95.120329393815
95.1480801469047
95.1971582303275
95.1667354913976
95.1560981426725
95.1959135726724
95.2323027546631
95.210827074448
95.1430791908128
95.1219348667106
95.1257471100808
95.1541229521581
95.2181919850478
95.2765497999003
95.2432486933796
95.2103696183781
95.1922810316831
95.1861805557011
95.275081629502
95.3224282722033
95.2844830603672
95.2329949785562
95.1982008332836
95.2572497229497
95.317231441673
95.2771338166269
95.2879218081943
95.2942291686067
95.2880969799217
95.3138881703193
95.3443056754335
95.4073525234595
95.3513092416942
95.3256111530926
95.40122265491
95.3556053244529
95.2779746129172
95.2810111209935
95.3416807708233
95.3287153622196
95.2471809221483
95.3332925519735
95.3876390366779
95.4280477493766
95.4318500103051
95.3599486091741
95.3305511856266
95.4032611803758
95.4270206549204
95.3846244966281
95.3365988379035
95.3486682873659
95.4450773395002
95.4272284737352
95.3534449242082
95.3874349019246
95.4069389372183
95.4378041425521
95.4142773307772
95.4333526742588
95.529298939479
95.5211217699765
95.4602617870439
95.4327805710736
95.4437544819244
95.4674382538815
95.489670740818
95.4741412274222
95.4744300900936
95.549960475277
95.4743530110267
95.4106146781704
95.4433345527858
95.4886991072255
95.4340593416375
95.3861849827355
95.4286832484258
95.4882022853814
95.5125320638793
95.4765804433197
95.438151480998
95.444856441228
95.4187122636199
95.4011998776352
95.4411751201611
95.4379336517685
95.3995621050158
95.4220603959928
95.4611119639116
95.4978675549018
95.5233124588015
95.5071155524622
95.4761887635564
95.4911949058306
95.6314935582433
95.6811285975322
95.6035351045617
95.5394787467719
95.4554625002823
95.4151891163296
95.4175607685288
95.4562232437549
95.4626819342936
95.4604132109567
95.4318420170621
95.4781229992818
95.4993474556373
95.4941348559792
95.5456165671523
95.5487676433907
95.5306652951659
95.4495409625761
95.4054001460456
95.46832043693
95.4611799609765
95.4619166068393
95.5401980991168
95.5376547354852
95.4461330491249
95.4021944223063
95.390084929478
95.4400080924888
95.4510466209827
95.4257960809322
95.4764945495456
95.5400152361042
95.5461560611769
95.5192261841987
95.5497490124665
95.5546278421858
95.5750577258219
95.5435414815463
95.5219954996688
95.5746936025948
95.6291525440316
95.6795670591348
95.7165597168183
95.7484973808428
95.7513450770492
95.8335745731285
95.9540436508769
95.9934539720037
95.9559852500446
95.9802457859413
96.0088807848795
96.0940110420397
96.17597193771
96.237969036436
96.2940416944455
96.2708228839436
96.3683329847518
96.4365852531785
96.3177174805011
96.4121870883408
96.5726922791233
96.4277784799662
96.3732431129898
96.4480593774014
96.4676952535944
96.5810089012524
96.6411469975159
96.635762067106
96.5798287844495
96.8659557692399
97.0252687890763
96.9354646720281
96.8788116604438
96.6965268730432
96.765203490186
96.9669094479217
97.0810239025462
97.0222299875304
97.04660314952
97.2581540931176
97.2644916568954
97.2851330154822
97.3584250552317
97.2759656597375
97.2480371576809
97.4853284592376
97.4960545528815
97.4140290075201
97.6053547745447
97.9872019867846
97.5728394310609
97.3423902005904
97.4179482763371
97.5829589747908
97.8247289485102
97.9209033533946
97.8895182848978
97.8737765720671
98.011798170343
98.3555644091393
98.3792637410933
98.4994066717844
98.2158656981278
97.8756712538552
98.1670786784985
98.5215151966515
98.5615441322187
98.7112594161442
99.0751332757391
99.1150908387795
98.9106706541154
98.766072660438
98.5869531106449
99.0783845334877
99.3166610241822
98.9948689649788
98.4209245295962
98.4508918204227
98.1786201281565
98.0355972644178
98.1173624027556
98.0272433202219
97.7737427896898
97.6805699096683
97.4928758314443
97.3543151251111
97.3398672041904
97.2205114658927
97.1007122329483
96.9748359886554
96.9452256997072
97.0262867201104
96.8595747141168
96.6429332279083
96.6636976603586
96.8126260588185
96.7783588882551
96.684303895384
96.6654926677441
96.8694488549363
96.7298252663638
96.5009747521117
96.7042121774312
96.8447067188825
96.7228536787334
96.789336380072
96.9152641913604
96.8876822629378
97.0028470253825
97.2666612267177
97.0637378365362
96.8608674463108
96.816643828175
96.8859360575961
97.0236817923097
96.9223873879026
96.7629079202933
97.0802789873718
97.1831689842045
97.1461110189664
97.4009288330069
97.4284967852018
97.3265254037358
97.2639719341379
97.3028159316468
97.5619955172753
97.7191228741601
97.7772678645123
97.7605860786363
97.7788747994845
97.9851265517282
98.0671112750056
98.3015649068692
98.5467951326655
98.6315121160749
98.6399165746271
98.7075384393061
99.1473289332249
98.9565624522753
98.639923994015
98.7942206020133
98.8855067400085
98.4427370339362
98.8564039238666
99.6235729375118
99.5504005583649
98.7773870637744
98.8784324152973
99.0098409007066
98.791332372875
98.6931629177914
98.9041981307279
99.0094874849894
99.0335629614396
98.9432911216399
98.772926729788
98.6013183780652
98.6097986047083
98.4190785494372
97.9438089133506
97.8180858644914
98.2825049854779
98.4113905636279
98.1252948799076
98.3245678451546
98.5346781555511
98.3822564929948
98.4749466520902
98.6840756095394
98.4453504565963
98.875018045699
99.3665721084436
98.951609253472
98.6792657823558
98.7456857284791
98.7972807761564
98.6107198882388
98.513322787243
98.4797173667377
98.4136355343263
98.2562627931722
97.9404550090479
98.0231049081437
98.0710446617569
97.9892591845084
97.9137078913583
98.0184489496972
97.9140982793517
97.71756417712
97.4980493481667
97.4787513435198
97.4263504667462
97.199707550239
97.1391766210323
97.3356293314775
97.3360456672224
97.1967391204486
97.3748287678192
97.3478836384031
97.2052105747922
97.0929236482278
97.0605436270246
97.0440595510884
96.995945310678
97.0576327820226
97.051566167917
96.9271989393091
96.9913990579666
97.0133772376163
96.9969621171946
96.9331093063884
96.9174140687217
96.981460369377
96.9431357727961
96.9274675338234
96.9971662547571
96.9566272706646
96.8757290158633
96.8704932218252
96.822680130678
96.8405389685894
96.8137133454915
96.7787848313351
96.9325021670923
96.9474888802507
96.8899906705065
96.8505371774139
96.8221952777008
96.903299292274
96.8284067371342
96.6962754025426
96.7352630327846
96.8156594343221
96.8266366898143
96.8173429287178
96.8060009879431
96.8174134242978
96.8834199249914
96.8712064311255
96.8249422164176
96.7679491011218
96.7422656964153
96.7196350864947
96.6961194747907
96.7600882291933
96.825061604176
96.8481954350632
96.8762516857423
96.8304293436737
96.8033943166418
96.8290114366197
96.7837430874199
96.7069502065794
96.7184703528582
96.7756614413183
96.7877448622505
96.751470652604
96.7718012808471
96.7969617365851
96.7770595389227
96.7343666585513
96.7265523145613
96.7413380276086
96.7241659602507
96.6793810244325
96.6532744470202
96.6628752252231
96.6693233360343
96.6602973714889
96.5737678450829
96.5214163364974
96.5324282992644
96.530969714321
96.4995494783697
96.4239049064105
96.4154777803724
96.3848778473382
96.3249526481137
96.2515709572305
96.2131838015098
96.1050372908344
96.0207443209879
95.9488685253016
95.9328252568516
95.8915246083198
95.7983470034274
95.6605290163565
95.5523208562261
95.4821580493318
95.3835886837611
95.3006222387083
95.1952888726213
94.9886020186488
94.7893181008946
94.6628013415638
94.5716615810526
94.4558175473244
94.3224859813946
94.145462134077
94.0334063080279
93.9077489821509
93.6549072562018
93.4461496715978
93.4040337009497
93.348301008072
93.1991939292826
93.1321243539297
93.066699408871
92.9620934993091
92.7971508438922
92.6136130728525
92.5144315022967
92.479793245074
92.4288196299411
92.3825585724458
92.2755415685462
92.1466078593396
92.0190253836244
91.8417026144478
91.50708940907
91.1521502892653
90.9825450114677
90.7002846790325
90.3677152361263
90.2517295800006
89.9557392980776
89.5989436927377
89.2563261724769
88.6909749787135
88.2147640674425
88.0443466914561
87.7695651882026
87.36870979242
86.8840754547384
86.4426774257741
86.142801069673
85.6844218133889
85.2486744503343
85.0178785043578
84.675656121008
84.1619066867534
83.7994414740419
83.5598032419153
83.288729868965
82.8452110989207
82.0829963292507
81.9593073088572
82.13962788623
81.8190185389173
81.4031134825778
81.39430637281
81.3744658267157
81.2086051222454
80.9977039431048
80.6595693340198
80.4786627152191
80.6641101770634
80.7504335539524
80.6296100890223
80.5474417838724
80.5454318520374
80.4936123101274
80.4936579961236
80.5528889062489
80.4073074945133
80.219683939104
80.3096297642378
80.3649100254908
80.2675667075638
80.187182219362
80.1188035326223
80.0366127582397
79.93317573847
79.8797675722738
79.8460013222126
79.7835496163748
79.7182681809556
79.7108272563991
79.7487093556931
79.79801366182
79.8970030017032
80.0147414457689
80.1253897828943
80.2198964826163
80.3578432618777
80.4414369623197
80.4057644651267
80.5736360050912
80.8936556105901
80.9312320756277
80.8930711113207
81.1139601880643
81.2827786438571
81.3156818562538
81.2723441003894
80.8908372256894
80.8432768340942
81.3124486796099
81.4971748390445
81.5490035405813
81.5941074458562
81.6164512894522
81.6700863849115
81.6405265872606
81.5924692136686
81.5114045674016
81.5962620919778
82.061320995256
82.3480235734481
82.3466757046542
82.5054114621122
82.7843235887241
82.8701684149356
82.9496600861159
83.0783500383079
83.112880738799
83.1847499796795
83.4093356504064
83.5668804260885
83.7019064588063
83.8730045939843
83.979732934593
84.0199366586264
83.9389767879869
84.1481227232189
84.7430823276521
85.1101964379943
85.2045666542293
85.3129070042235
85.5314010408112
85.9047536985751
86.2227101041327
86.3788552254685
86.5628071256279
86.9250066264339
87.2360889516647
87.40445719681
87.5065622316583
87.589982985632
87.5941974460778
87.4825583428282
87.2731239151243
87.0593949072023
86.9260816039963
86.7666980281355
86.4638866297198
86.1527885244978
85.9766677898515
85.8370241303179
85.5100837643641
85.0689033711812
84.9836204051302
85.15248313214
85.1052625223683
84.9570645218274
84.8403309757323
84.7844188697202
84.8013016253004
84.7942000082293
84.7598064947442
84.6279119143975
84.3620669193008
84.2261701915097
84.2252263735849
84.0358754019012
83.736004670906
83.5237111532353
83.3241818726439
83.0217068740149
82.7662584308446
82.5099745651469
82.2610457110926
82.2556210388806
82.2538590313858
82.1744662845587
82.1115380534591
82.0719399631961
82.0486028279345
82.01949337328
82.0297376105805
82.0577458342051
82.0212475391368
82.0081567978982
82.0644278101875
82.0955918464229
82.1607655304079
82.1546565073678
82.0735931579985
82.0542201283489
82.1105976258797
82.1269095019029
82.1053678733079
82.1057225200542
82.0980862124167
82.0959055984767
82.1391085710946
82.256855111171
82.3825026941061
82.4959317194135
82.6248807538701
82.7165280134841
82.8131537357374
82.9865232533976
83.1703125797006
83.3004240614597
83.3949132946125
83.4786552969947
83.5586244048672
83.6523335879834
83.7534511337606
83.8350606462378
83.9147616116036
83.978976115946
84.0276374721979
84.0971277019491
84.1889242289964
84.2996801575446
84.4005384267257
84.4647780391537
84.4939087279741
84.521673194337
84.596962328541
84.6876566315468
84.7347986906509
84.767253452059
84.8501859441908
84.9066646669104
84.9356399490943
84.9948418732412
85.0602532479016
85.1172402545444
85.16103076893
85.2144392520331
85.2742887771036
85.3230422247439
85.3543245318515
85.3810622693869
85.4134674705136
85.4254309549576
85.4274734669689
85.4150826116949
85.3854137049813
85.3703830045761
85.348768222192
85.299729588558
85.2345005980321
85.1560032951982
85.0687673008574
84.9695357520297
84.8644274533233
84.7344873016681
84.60745295624
84.491236203524
84.3547832903836
84.2282226865764
84.1163632924918
84.0144278329349
83.9470874120899
83.8794709134973
83.7882041317079
83.7046776149955
83.6275180578854
83.5462346785629
83.4565094269531
83.3805521157852
83.3241969360004
83.2672426769256
83.2337650722252
83.2323276190984
83.2531447026203
83.2773322990033
83.3035555457039
83.3442456364618
83.4043075216472
83.4943490697204
83.6018653962406
83.7094978005933
83.8180883845611
83.9500992341145
84.0999241654931
84.2340036108889
84.3358607053988
84.4179487146725
84.4930658277219
84.5777808481317
84.6713764757924
84.7628213224637
84.8873046541038
84.9983141660644
85.0862547654853
85.190556833353
85.2978765624433
85.3646523384206
85.3699100365027
85.3694589865047
85.3650776626494
85.3111826913885
85.1970377693911
85.0451125494353
84.8961317894524
84.7721308960876
84.6518345370061
84.5280124392339
84.4205525786801
84.3282170736107
84.225925340294
84.0922354460833
83.9517414126724
83.817622401566
83.6861380259579
83.5660406662615
83.4352505277648
83.275007384336
83.1382752264223
83.0223244349164
82.8832755563449
82.7466651677556
82.6306788911379
82.4969629873819
82.3367900047017
82.1471713588016
81.8975879410291
81.60363951803
81.2797003241781
80.9315126552295
80.6161282787889
80.3368188597899
80.0720578145868
79.8888194752644
79.7709734629765
79.6490110577323
79.5429805786378
79.4604170724141
79.3860081626247
79.3028103023763
79.2123026285873
79.1194973795214
78.9924201115788
78.8351521858826
78.662273560637
78.4697813432644
78.2673947923755
78.0518309947822
77.8046631936728
77.5377081283665
77.254973835918
76.9480713114363
76.6097862506259
76.2809448358784
76.0041416063909
75.727188659359
75.4324228090034
75.1657341888092
74.9214995444035
74.7091361561511
74.5450259543592
74.4060328957926
74.2764140400633
74.1699797370204
74.089100927649
74.0081524246952
73.9318160912672
73.8616678143822
73.7750782044511
73.6524913692832
73.5227570440202
73.4226278787883
73.300336813585
73.1690934448861
73.0551568843565
72.9353870873795
72.8260675289704
72.7574156950121
72.7168978125924
72.6550886358103
72.6138900295333
72.6466818859017
72.6915323737971
72.7084865671322
72.7730038735027
72.9080922950196
73.054277072674
73.1865044837242
73.3196363434085
73.4796020241729
73.6694415740237
73.8848117191723
74.1164819199497
74.363772729714
74.6192728183182
74.895196310276
75.1818920654663
75.490616622636
75.8171682692425
76.1120377964058
76.3759670344861
76.6244517873321
76.8867115159256
77.1599145522906
77.4268901616926
77.7003219451852
77.9660023792404
78.2029828423702
78.4336787071721
78.686752504805
78.909614075455
79.1010101733753
79.2797959372661
79.4677327792761
79.7097913242921
79.9538801396607
80.1575105930674
80.3786563909917
80.6389719145316
80.9023226735381
81.1322712731984
81.3430086952104
81.5448860108765
81.7369472145221
81.9173117514812
82.0720425466679
82.2261215054418
82.4029957499236
82.5725284028815
82.7226321120718
82.8796037501307
83.0546820157604
83.2413786453952
83.4015511990297
83.5436611835803
83.7115488355792
83.8592205883197
84.003226961408
84.1243192546284
84.2056290745846
84.311363971364
84.4294219554699
84.5306228970443
84.6060395939639
84.6588839497111
84.7294270106111
84.8057407485671
84.8847257608747
84.9632611229625
85.0416581014533
85.1045687472101
85.156351500157
85.2221238953563
85.279302833816
85.3146750013963
85.3370873816689
85.3483472604791
85.3734710696488
85.38511511241
85.4206876084807
85.4777496521664
85.4989188891393
85.5185363688991
85.536929739103
85.5170964251287
85.4898145404475
85.4929006668035
85.4912361043264
85.4700972392494
85.4658686717107
85.4687333767629
85.4619178032097
85.4556097469055
85.4615376261124
85.4375036910023
85.3977044029105
85.3503894790693
85.329083424327
85.3219993049231
85.2678531377782
85.2057116314272
85.1784960784369
85.1179244600403
85.018811925889
84.9269389724532
84.862356521254
84.8038007338445
84.7234856643821
84.6264256759226
84.578596272945
84.5681970467479
84.5169707647025
84.4625785752451
84.3869703560017
84.2674967222382
84.2141515862372
84.1751814012446
84.159589391774
84.1446045943696
84.0875608589697
84.0338515306895
83.9777399522169
83.9178409330867
83.8995960476085
83.8740433833017
83.8007298695358
83.7277868892253
83.6994576877248
83.7177681181021
83.7076472814246
83.6038682939052
83.5382338106412
83.5365954558192
83.5051497044717
83.4368093692044
83.3533262757021
83.3283807179467
83.3135616142265
83.2357892592542
83.1901449921687
83.1238948445862
83.0591983482163
83.043961919468
83.0375437200918
82.9978442006814
82.8974080190411
82.8389497754462
82.810864431274
82.7442705841284
82.6836413196251
82.6386898001304
82.5628262746884
82.4442567624637
82.3691290433938
82.3147282113321
82.2582908889211
82.1858954598213
82.0836944158237
82.0153279663343
81.986325801122
81.9138446245738
81.8274373735283
81.7336914225373
81.6585019339099
81.6010901846258
81.4864728250327
81.3592980072738
81.3033164220379
81.2120165479211
81.0777279984961
80.944765245941
80.8219173873215
80.7648590982031
80.6832948615626
80.5448971490116
80.4481604798646
80.3120191177969
80.1683259995369
80.0271861098285
79.8880979183161
79.6842428006787
79.4873940077337
79.3936503645479
79.3230749799978
79.2208517567988
79.1306520199105
79.0657067658721
78.9922864236687
78.9156389764457
78.8451794083936
78.7362724557937
78.613281478509
78.4466907968274
78.3197741757724
78.2437558299418
78.1960532404417
78.0833892476565
77.8937712331355
77.6451439325802
77.54537552401
77.6422708337458
77.5109773329647
77.4016866315399
77.3355455643291
77.2194954401078
77.1118904678579
77.0179664260982
76.926497837343
76.8224026688336
