1798
3999.43349933624
650.420452594757
1
128
4
92.1751048423359
92.2375513910695
92.2221021486448
92.2230605463491
92.2387099043848
92.2404583651846
92.2274150216235
92.2432907059119
92.3182407526305
92.3291824991858
92.2511689934251
92.2995020647698
92.4211807156292
92.4662380072639
92.3713223336465
92.3224474893441
92.3002102228634
92.3211218745055
92.2855683935823
92.2550656608569
92.3018402742325
92.3596442527955
92.4479427515394
92.506533291558
92.4516715066701
92.3875505996519
92.3776667500209
92.4473846468218
92.4357123500928
92.4432669735198
92.4198303152123
92.3147898753699
92.3814939669537
92.4909372912176
92.5006472285172
92.5763162371797
92.5225447482729
92.3967579951618
92.3129641659886
92.3735114604315
92.4261178044411
92.4895633628183
92.4850688635382
92.4916728770916
92.5012977289049
92.3672714195998
92.2990077461696
92.4441086853133
92.6330684768321
92.7919008178205
92.8653630864389
92.7533621930567
92.521594812428
92.4533959274599
92.2711557097145
92.1582414498687
92.454728644293
92.8102374467913
92.7876016111053
92.6239678155201
92.6559338180106
92.6237628041484
92.4504404391946
92.4946604499942
92.3564120719267
92.3105049283003
92.5809539445675
92.7362176085083
92.7474953147523
92.7867597225927
92.5284112152594
92.4830002719642
92.5475620691546
92.5183354463707
92.5632165677038
92.710162278153
93.0236964462037
93.3675623518759
93.025974487634
92.3154310791367
92.0457850107532
92.1128048564668
92.5208921869885
92.984643076046
93.0525020949756
93.0237910824754
92.9002427940138
92.5887591036643
92.368703140606
92.4324906724693
92.5232356970607
92.6336168579925
92.7925182375241
92.7792316359805
92.9423525247383
93.2087390773699
92.8141475161139
92.6709512422215
92.7038490586865
92.4576576000611
92.5059602606489
92.8664152808068
93.1496915153406
93.0771992913426
92.85674148544
93.0240765062931
92.9924311938577
92.6132421025864
92.5572264357097
92.5430910539124
92.5841376925601
92.8243321033423
92.8871206234453
92.8844784030625
92.9612657233068
92.9968022923578
92.9301963106377
92.9508824422082
92.9676382088897
92.8971239712649
92.9116803949535
93.0820855918041
93.2296123862889
93.1643222398691
92.9180393667181
92.8693507508589
92.8783821759762
93.0172000946409
93.1255140645626
93.1147538558357
93.1695214133494
93.325621859534
93.4911975895187
93.4863874945188
93.0707415684938
92.9177099634658
93.1654728793138
92.8874770074193
92.700562460342
93.0035444795576
93.2457578449181
93.2011079739574
92.8429116422904
92.7120907071729
92.7739211922921
93.0084111488739
93.1932705481181
93.1724116641314
93.1370460781382
93.0670725845109
93.0724660395675
93.2102998889347
93.3326503045264
93.5529640017047
93.5401652319145
93.1755488312545
92.9225843588356
93.0142914346899
93.1553319095156
93.2419011839826
93.1964279728101
93.1538870475846
93.1688829762258
93.3143418130657
93.5630184632827
93.6107641359693
93.3812893147003
93.1045648270106
92.9106627418076
93.0449270098873
93.3262909925323
93.5892173175
93.696591414759
93.7475800690434
93.3906374617337
93.0674711239912
93.1290676750013
92.9663129141669
92.8099055237097
92.9721390821649
93.1745517769562
93.3424563459455
93.3267397098733
93.5143407928589
93.5818307421387
93.4880977007069
93.5258300426514
93.483806936875
92.9707874927417
92.5538796219056
92.6117391688516
92.8097512053281
92.942923556452
93.0596342163736
93.1342757496747
93.1984587067947
93.1648748444191
93.1958506669695
93.2983194171613
92.9192652731445
92.5661414474657
92.6981611901515
92.7709205388475
92.777220498539
92.7628025047118
92.6602318026916
92.6212926589398
92.7574186688315
92.8055139887405
92.6676055569925
92.3671425388723
92.2657045944431
92.3567175294938
92.4190206790984
92.3883731930237
92.3742298392118
92.3656594994636
92.3776120534549
92.3103779821538
92.3471808442029
92.4502715146136
92.308048884698
91.9523252763356
91.7950410253405
91.808076001992
91.9368010037963
92.076816467455
92.0872569096612
91.9605722098414
91.994540062087
92.1374019454057
92.0553309865798
91.8041942504064
91.6523868280311
91.5791738306392
91.5680999723955
91.5797094746348
91.572494509099
91.5892391724113
91.6800830598507
91.6150972125913
91.4461915391558
91.337770655947
91.4030801585799
91.3418323681313
91.1873156570059
91.1373170822146
91.1488328272466
91.1150502864972
91.0632410992154
90.9616268995725
90.9106166461411
90.8503804229511
90.8219129620168
90.8291978611349
90.8762621357677
90.7790043257706
90.6625970684823
90.7743387836253
90.8284995414709
90.6932462698188
90.6444580419491
90.6734344407966
90.673167384412
90.4862041264579
90.389037819127
90.3842273667489
90.4323542751225
90.4500163037741
90.3968110901158
90.2904936639411
90.2002513074915
90.1235221085211
90.1528436187029
90.0954108948218
90.0254234992636
90.0601535619292
90.0986981930145
89.9660066509384
89.8344002595599
89.8818736704702
89.8965061042765
89.8025679371779
89.7151172603302
89.6369501992973
89.6048518938632
89.5318386495359
89.5628298235177
89.5624842831971
89.6196167662829
89.6549946148967
89.4941386692317
89.3757220784805
89.3979174279588
89.3322020309812
89.3596761629684
89.3323366236473
89.2410677879418
89.1510703621621
89.1655340676854
89.1583199037775
89.0792484283466
89.0663285386961
89.1041375455669
89.0009833694136
88.9057913161124
88.907708697251
88.9163455157335
88.9520019747411
88.9221791675837
88.8106241027393
88.7479364090749
88.7119597507114
88.747508612607
88.6392584810662
88.5615261729586
88.5898784244712
88.6071683714251
88.6131083474029
88.5549718576249
88.4469149600732
88.4953091307575
88.4362962999797
88.3959860242817
88.3786905307388
88.3561087462215
88.3292383784051
88.2805378534443
88.2000162771271
88.1982700289985
88.2062061108919
88.261669549945
88.1695717992855
88.0382776015261
87.9999132385071
87.993304519835
88.0033893184158
88.0544666825824
87.9769533673706
87.8681392005023
87.8259295935887
87.9440421809729
87.9737149738144
87.9286714264512
87.8946198405297
87.8554072268477
87.7719477770772
87.6964340111943
87.6131049970273
87.6999287546241
87.8067757962019
87.7952460537144
87.7311788229625
87.743933601383
87.6878070520493
87.5677442233656
87.5698678144055
87.6029342209612
87.5404094844017
87.5740472782507
87.6843414050492
87.7669506118993
87.6818085331271
87.6252822776827
87.5818532489404
87.5029446790882
87.4268853981706
87.4485391012653
87.5358186052564
87.5865464376943
87.5151963127138
87.4877582773234
87.4672745979126
87.4395120180106
87.4118508799058
87.4098809506898
87.3610484898099
87.3480438764432
87.3704893606757
87.3925763011916
87.3387739824935
87.3371872362891
87.3816363725633
87.4257947362569
87.3906158451699
87.3555330533726
87.3715729599686
87.4158727703213
87.4258836091878
87.4166665849359
87.362739450384
87.3601805303127
87.3223382042503
87.2993464935659
87.2804051532647
87.315011224837
87.4278131107055
87.4757869284763
87.4499494685355
87.5108727022813
87.4560298854303
87.4085148216954
87.4001529411348
87.3393222040823
87.3180773580603
87.4549709992888
87.4334476103672
87.4045726308843
87.3951867301268
87.4257184363491
87.5480546117418
87.6316748689471
87.5704095164181
87.5784088717646
87.5831602433364
87.5741498650716
87.5616686277928
87.5613264231618
87.5916938842634
87.6376454685985
87.6379245959837
87.6841143367196
87.6982366651113
87.652765919307
87.6133156605048
87.692436025696
87.6881386293483
87.6749525723029
87.7730869231984
87.828904043572
87.7909045290005
87.8204188506598
87.8424103671645
87.8356129599121
87.850380720603
87.8878936905413
87.8976305576165
87.9648965366021
88.0465116016194
88.1479759598865
88.1550986940249
88.147161909259
88.1270279783727
88.1516436063531
88.1627552080846
88.1638791583053
88.2319058625812
88.3263254482716
88.3154872028558
88.2879879397392
88.3094260728991
88.3407145489254
88.3812003642791
88.4847317287258
88.5398651248447
88.5554553182982
88.569940199225
88.5573025353231
88.4755004325179
88.5377383768656
88.73075058221
88.8422614300996
88.7654987621529
88.7958833242545
88.8064261107131
88.7653603682408
88.7984335095922
88.8429735450298
88.8591072211355
88.9149372531001
88.9236382079388
88.9940806526775
89.1165879038802
89.1094356831826
89.0197570178084
89.0589372309487
89.0721511436568
89.0381444915563
89.0911700616331
89.1173533009279
89.0966909172372
89.1679820190573
89.2615846643169
89.3398743435221
89.3521793341484
89.260758684856
89.2355045200919
89.2747598107867
89.2375532575487
89.3148469571288
89.4063160669721
89.3747119905132
89.3979946221471
89.4474188818634
89.4433361424023
89.4714118904587
89.4255997611552
89.4648516728846
89.5528160488069
89.6373810246351
89.6129239535568
89.5629267300446
89.584840812067
89.6260437450066
89.6776164568504
89.7028412321292
89.6824791222096
89.6970853709552
89.672323433841
89.6647973064629
89.769177787221
89.888031649113
89.9077533059244
89.9382469912611
89.9825479174392
89.9936997642605
89.9574086173106
89.9593043195803
90.0507355909827
90.0901835342668
90.1098376363565
90.1404353733318
90.1122573683669
90.1640685203979
90.2175009899905
90.2588150142796
90.2895067484097
90.2630591358779
90.2552771473944
90.2646027688202
90.2014389576323
90.1600691189452
90.1898612241051
90.329201675155
90.4314098894599
90.4006554088824
90.364256864912
90.4040241989495
90.4180400237843
90.463203573748
90.4245551119718
90.354606246954
90.3822449365714
90.4206400035936
90.4132324108695
90.4024838124686
90.4104271705258
90.4116444345082
90.3185536602868
90.2862736084768
90.3296128725626
90.3916896913513
90.3805205762183
90.3064132444221
90.2295231103966
90.2184762691283
90.2559870587237
90.2751005643423
90.2447846550874
90.198543607009
90.1982093008223
90.2166035855597
90.1187441897052
90.1124026537037
90.2000812765772
90.2518011777906
90.2336026226948
90.173292415323
90.0936462972982
90.1080388332134
90.1026830757722
90.0790552580023
89.9856672491196
89.9124781946891
89.9206006067823
89.9832555486329
90.0430818987176
90.0174524844553
90.0045706964982
90.0218248804856
89.9894814482134
90.0332662862295
90.1457246341422
90.2816950815418
90.322450401527
90.3273372218222
90.2953214100814
90.3022045365543
90.342880135588
90.3761434214555
90.4348524811981
90.4960944636488
90.5250224932439
90.5399282918631
90.5493614654519
90.5477107214828
90.5712388850763
90.627416752289
90.6575348857212
90.6669036791223
90.7101213897672
90.7772062815671
90.7562078696751
90.7251144461594
90.7600262866539
90.762500771624
90.6814765661857
90.7084063306573
90.8163744922064
90.8737437543074
90.8753133338571
90.8737929213105
90.8683343075341
90.9055355123584
90.9517145083704
90.9474128522136
90.906807590921
90.9223261199807
91.0017803401305
91.0591298383351
91.0273291274463
91.0692595931051
91.1131484620503
91.146886857587
91.1856608702881
91.2438135215261
91.2517863125725
91.2777903266844
91.3150329051988
91.3268282379666
91.3508928273812
91.4162603014765
91.4526948246287
91.4770707397558
91.4826775567585
91.5140986094036
91.5391254466426
91.5409811261314
91.5966011046798
91.613334129421
91.5658667744029
91.5990856716001
91.6136917661545
91.624798957864
91.6781524891911
91.7032309124425
91.7135575683353
91.7481172572265
91.7536069655477
91.8271915436915
91.8612377963521
91.7989149318078
91.8047175574216
91.8406106760126
91.8251593499089
91.8329496605855
91.8693813989388
91.8713466295892
91.8992511616889
91.957248943909
91.9757101321341
91.9919139953682
91.9585557909244
91.9816177208938
91.9940962938319
91.9838923443131
92.0039624156412
92.0180626595764
92.0317785374072
92.0615924129898
92.0791529283514
92.0845046921855
92.0722433583992
92.0594882371654
92.0498049159855
92.0710121435792
92.1163786796124
92.1365566735982
92.1476757575499
92.1493155087762
92.140249419687
92.1738753078524
92.2012631079978
92.2109188110329
92.2057046380957
92.2626638423425
92.2704564288148
92.2426531315821
92.2467563071091
92.2954776535578
92.3255320619742
92.2955090623556
92.2971873558672
92.3685281049076
92.3580905315149
92.324877643152
92.308839079825
92.3324379452261
92.3561796832183
92.360323882772
92.386857949236
92.4221061990634
92.4191072093291
92.4196743534258
92.45335373898
92.470812582255
92.4622880696888
92.4649178386869
92.4342512144301
92.470281109138
92.5259627432551
92.5243091356684
92.4899275729538
92.4651349674537
92.5005720438627
92.5435694075307
92.5300225331279
92.5489152614484
92.5708267433771
92.5805542643081
92.5734679667342
92.5549322885478
92.5665130571396
92.6275617610581
92.6450121056774
92.6434912198165
92.7000008382636
92.7232376575592
92.6875409377046
92.696165743042
92.7052282990053
92.6916979086342
92.7007992193347
92.7544044200764
92.7997329652146
92.7896381772346
92.7982800698109
92.8084512640421
92.8228220115591
92.864461035834
92.8316774532508
92.8341260389212
92.9014259162631
92.9527636159708
92.9766525460323
92.9801182322581
92.9779424752223
93.0190459169117
93.0501951551269
93.0473164475754
93.013430428981
93.0050432265882
93.0744637453607
93.1185192583726
93.127978753245
93.1676955621628
93.1148297975448
93.0780630516735
93.0586765701549
93.0626150554944
93.202710725782
93.2276511982227
93.1593201265136
93.2414120442716
93.3669554750836
93.3657534334871
93.3262359241993
93.2638748478185
93.2154994925942
93.2637648813701
93.2642994508791
93.216920846923
93.305537134096
93.3797405226544
93.3630390369097
93.3580529091805
93.3534184783187
93.3403438757347
93.3955347872336
93.3962040931779
93.3786109571132
93.3813453938264
93.404279792243
93.4598356860625
93.4909176711253
93.3916690806307
93.3523100185793
93.4191478127124
93.4166206635042
93.4707879598945
93.5418656008762
93.4649666884621
93.3920664335353
93.4036539005819
93.543711557293
93.6227754494347
93.586363644737
93.5762814945004
93.5894066413821
93.597613082564
93.6097384882115
93.5614103179032
93.5121871865043
93.5430704006786
93.5682039595755
93.575823632586
93.5422604143586
93.5260124059294
93.5286303582873
93.5514976183294
93.5720944469375
93.63870620905
93.6657235704443
93.637325548674
93.5600164542256
93.5415683326973
93.6268893247511
93.6285636533235
93.6084277200777
93.668361289832
93.7073986391184
93.6990220353369
93.679469372468
93.68633374498
93.7431875881512
93.7472585552613
93.7136443016513
93.713196541675
93.7304685998463
93.6365960650329
93.6024501863079
93.7137225934916
93.763481195481
93.7989254172803
93.8119361506753
93.7808728910063
93.7568910249202
93.7909839777614
93.8351065490589
93.7920282851419
93.6908762156389
93.6991158386791
93.7747970862271
93.7525271960433
93.7538165767966
93.7895863352793
93.7969067927204
93.8258990457698
93.7903184522665
93.7860848688586
93.869176636163
93.8916500355289
93.9096995942889
93.8434280534608
93.7939958519839
93.8234346117804
93.8150417497656
93.8473246152451
93.8656071014417
93.813594514902
93.8562487300637
93.9123170839863
93.837310293666
93.7862899520396
93.8223887958443
93.8634016732273
93.9234315519878
93.9773368458975
93.9996997197572
93.9997608651792
94.034664909218
94.0979029690597
94.1212189837326
94.034898093059
93.9858307560355
94.0317413895028
94.0331909233358
94.0270245675198
94.0760927781382
94.0567300227011
93.9570488793855
93.92470001252
93.8919113941672
93.8113058208769
93.8922113963292
94.0391503182445
94.105655976681
94.093014154262
94.0195584173738
93.9994857012894
94.044993159399
94.0277799988289
93.9946628704786
93.9766446601084
93.9068471872421
93.9440569567417
94.0069840394149
93.9207102009292
93.8228413008516
93.7641790748641
93.7766080469474
93.8662109623849
93.8834869920047
93.8719397660076
93.9657035861447
94.0611094512758
94.0788049476129
94.0017921984337
93.983756925595
94.0681121306376
94.1780733528095
94.1437539321825
94.0977437521586
94.1069261267813
94.0740311897866
94.0894919648738
94.1198132077343
94.1559824702753
94.2067229385196
94.2413491497892
94.2616655528747
94.2827288975491
94.3635475031751
94.4722102742209
94.4827366334719
94.3969142662616
94.4120701883488
94.3788277932467
94.4748506840609
94.6152765438425
94.614278280647
94.6308815405781
94.6831474174601
94.5641183383437
94.6749281630225
94.9395736663673
95.0095664656263
94.825285807014
94.760876761254
94.886968138195
94.9366603197668
94.8331543345401
94.8973989238397
95.0603598520943
95.0707536432264
94.9793641467272
95.0182771550574
95.0433652812128
94.9992762465299
95.1528272662826
95.3453536022007
95.0795291564689
95.0594360847538
95.4587525347669
95.3810727873265
95.1547798502946
95.1793169819756
95.1770893878121
95.2540011495314
95.4487510934567
95.4728057688773
95.427096274297
95.3482394571389
95.4621342942172
95.4773358031758
95.553707631847
95.5620486464284
95.5823692059205
95.6757198483653
95.7196777773056
95.679094321396
95.6790422382162
96.023123385496
96.0700376005966
95.9358066654404
96.0999644867563
96.5707370655285
96.6338016462119
96.3126557366126
96.3006702522195
96.433304046655
96.514129495849
96.4900962445801
96.1970999037299
96.2568444891952
96.6838239433303
97.0005308880091
96.9997772720035
96.8436093587311
96.4794217028187
96.1441980623021
96.0212766993267
96.2848634411181
96.1569645978273
95.9265322926724
96.1330659531305
96.056318519558
95.7482559160697
95.7757377438459
95.78730560239
95.7124725941505
95.6673071830519
95.6983579632612
95.5484422054009
95.3518038457151
95.2406724159941
95.2350936697268
95.2087672794509
95.2872323461442
95.4237884188602
95.3491355462923
95.1923360855752
95.1236894617628
95.0968111115586
95.1911102077108
95.3078684048388
95.3506985305388
95.2542854777313
95.2932416815904
95.5020193585456
95.5578810387579
95.5531825988939
95.5626146696435
95.5046736460268
95.4115521125809
95.3589759649013
95.3848476483051
95.3335021995026
95.2362237045155
95.3353013434436
95.4908466637849
95.6568106594551
95.7228674704928
95.6211997795138
95.4221870223227
95.4205396966157
95.5376218306556
95.5502440958731
95.7171676311204
95.8253265837894
95.8839382942533
95.9741901100288
96.1293187684649
96.2336500072957
96.2517231823812
96.2041655211453
96.0708114908496
96.259932233613
96.7593564301504
96.8618328597086
96.8388392121603
97.0889175228986
96.9307563434961
96.6216276248395
96.8531742352576
97.0961509848279
97.026134727266
96.8766461689352
96.9578750075141
97.1249034676686
97.2349280940083
96.731979359412
96.4950005626607
96.8407287199289
97.1779549999114
96.8825740192862
96.3929539209457
96.4826001354238
96.678745262152
96.9072041494047
97.1501621204914
96.924154698552
96.635801173353
96.4645182345436
96.4914514177316
96.3889397161921
96.4054852185441
96.7405631168906
96.5669988015369
96.1388055238093
96.2918674138522
96.3038015709647
96.28040169767
96.5805010939642
96.6761014119662
96.4353879521732
96.6769969320001
96.927119472367
96.9331319989118
96.8391903796014
96.7706177859641
96.7123206179891
96.6487145881603
96.6100421532891
96.6156719070608
96.6716175560642
96.4253592001798
96.2669820285429
96.2565684568882
96.1119786457668
95.9357273473127
95.8766220951174
95.9772309893358
96.0086800117081
95.9657381806957
95.9447416189351
96.149197367716
96.2166605807929
96.0611243873265
95.7456388682025
95.6665097026427
95.6784110449595
95.7815571488907
95.8421920686416
95.8493363972958
95.7925368501075
95.7684831922439
95.7672735007927
95.720879698841
95.6932808708126
95.6925815859791
95.6972348259219
95.6607175536912
95.6079021008486
95.6536879091006
95.7536091251963
95.8308640917674
95.741770437161
95.7036994356365
95.6911262439613
95.7085562635453
95.8052262650829
95.7679517817746
95.6489894635545
95.6218518288858
95.6841058532858
95.6581052414455
95.658665200513
95.699167140335
95.6951566063205
95.7794262382354
95.8020280561416
95.7358049846352
95.6630955956325
95.6462057801912
95.6425303767873
95.6727584487253
95.6735163186696
95.6877080343285
95.6320255892235
95.6492658591747
95.7342199080855
95.7700465102847
95.7624756187305
95.8124906686938
95.7875820291155
95.6754186412912
95.6589964361609
95.7211680693981
95.7393934522198
95.7839503938552
95.8028500432325
95.8012169047519
95.81862312314
95.8165445912385
95.8271602213723
95.8163696600166
95.7431990997984
95.7442034033662
95.8068973333503
95.8440727294873
95.8506262856373
95.872150982809
95.8140435059264
95.7846037683148
95.8179861812744
95.8535050729722
95.8111215624628
95.8054445867801
95.8056265428117
95.7855919889739
95.8482877531304
95.8867942658905
95.8337315422936
95.7822968510678
95.7230334520169
95.7249941767031
95.7470315829151
95.731233721261
95.6743593026809
95.6474259841029
95.6705742253997
95.6726972221848
95.6657213904751
95.6544717401124
95.5187385164919
95.4222251848143
95.3989937497501
95.3666085799208
95.337154213293
95.295275140005
95.1859956086505
95.17775533497
95.1524028907404
95.1087223738904
95.0086168567187
94.8797566614606
94.7745728062836
94.6966775731469
94.5842833217792
94.4326152654809
94.3418736513179
94.3531669795915
94.288346123633
94.1772721998425
93.961070022594
93.7858764291213
93.7086011458771
93.6163843805294
93.5354989400145
93.4865250288141
93.444730524258
93.4604181044614
93.3759841218056
93.1705437822262
93.0700624229689
93.0620416029659
93.0241642857141
92.9806530998249
92.9444145962385
92.9463405044338
92.9011253049665
92.8575791116962
92.664066519295
92.3561117921822
92.1083790662
91.8277838872609
91.6952056167482
91.5992443257014
91.4259170821936
91.221208867899
90.9502623413589
90.4820588403453
90.2475128569229
90.0828096869377
89.7600287812778
89.4791555756051
89.1941846495972
88.9245254466471
88.5496364754358
88.1132443165377
87.8807780806817
87.6715737177049
87.2720385721725
86.9304776267269
86.8075472024254
86.5945811611504
86.2467095635819
85.7762538881889
85.3788424948291
85.5613817222892
85.3419705876177
84.846863965832
84.764340212884
84.8751174615369
84.7446353930814
84.5562657019888
84.2809082517823
83.9241435646627
84.0367591509749
84.1884388259761
84.0832859640822
83.9707567113667
83.9897509335455
83.9918380479197
83.9916518794634
84.1007311464764
84.0356958571804
83.7663269188157
83.8026658257086
83.9848430929904
83.9082265011981
83.7965468964535
83.765597338982
83.7813183936278
83.7170728745518
83.6386200259109
83.5801416391944
83.548652438809
83.5010433993369
83.4517636287068
83.4299237511925
83.4746045437559
83.5081647673856
83.5485856821263
83.6093512425897
83.7215573195835
83.8359463280812
83.9244994414212
83.8692816062472
83.7990977496095
84.1860563347659
84.3913406852085
84.2028482646626
84.1697030263523
84.4522808226221
84.5938769802899
84.6558668196462
84.4803268549142
83.8588415520834
84.1901806925699
84.6954439594919
84.6192507997222
84.6671449802683
84.6791672252478
84.7678529396253
84.8126603942428
84.6970732432606
84.5863766251273
84.4555034485667
84.8223295904056
85.3231280381346
85.2668184364542
85.1336416919563
85.4866772513785
85.7108327493202
85.7281114778531
85.8168298701938
85.9517739474398
85.8867155046327
86.0663542948599
86.3169274183803
86.31187530464
86.5391407339737
86.7522396365513
86.7738499075084
86.644918885334
86.404705900855
86.9231374662346
87.5685828011783
87.6300898248373
87.5489520418896
87.6274303912073
87.9806894581478
88.3874724997997
88.4629295997017
88.3770244623694
88.6121694582473
88.942259893181
89.164862771933
89.2842417178214
89.3761501992838
89.5391536649986
89.5617565688448
89.4356468433697
89.2509389389634
89.104746552933
89.1462777473515
88.9583988547422
88.6239849223624
88.4677216134495
88.5279100065001
88.3477931854725
87.9351680114816
87.5784459712912
87.7665203302743
87.7985721789303
87.6367622379789
87.524953741434
87.4633229385442
87.496278768368
87.5432603853175
87.5233646491754
87.4418299828265
87.3006840213951
87.1449237644643
87.2182740430221
87.12768358948
86.8728309020758
86.6921793723713
86.6054581173619
86.42989249973
86.2303537542755
86.0414395275696
85.7015616845455
85.6162815567744
85.7034938368665
85.6085220227987
85.5009945230652
85.470040558741
85.4803342726115
85.4507019731834
85.44056036797
85.5164067784689
85.5168759860207
85.4136798723817
85.4315376594618
85.4247671119226
85.4855961332809
85.6196540182079
85.5864170792785
85.4609732682769
85.4808189546398
85.5787699693184
85.5571934276359
85.5454555472219
85.5655352130742
85.5572302206504
85.4891220044119
85.550867681934
85.7087725896955
85.7770740098572
85.8574988545602
85.9711539090014
85.9971793579032
86.0795676226742
86.2842253330239
86.3977841317974
86.436534688641
86.505558292722
86.6029508224695
86.6811309926542
86.7441935175158
86.8372357344842
86.9275948459703
86.9888029180293
86.9766356855766
86.9680452536031
87.0638000300723
87.1630329758251
87.2157888427265
87.2556836630303
87.3230817654044
87.3855736596191
87.4287830833837
87.4562191386256
87.5008022933867
87.5355158561979
87.5630686204009
87.6184772025645
87.6650708739374
87.6918454537495
87.7484369058525
87.8037569017154
87.837629690781
87.8747431870238
87.9349339570036
87.9912993036593
88.034763851048
88.0688968692957
88.0768848187681
88.1086787783115
88.1412416535106
88.1627404705479
88.1526093736733
88.1295103427426
88.1429675643763
88.127466334319
88.0765980407579
88.0278319945514
87.9770672110375
87.8976953818715
87.8419725207001
87.7898543611843
87.6903351998924
87.5825696060422
87.5064578671855
87.4218379754429
87.3079996328994
87.2193770160278
87.1429675241214
87.0688891531751
87.0052177393301
86.9401715266127
86.8740228975019
86.8070947175293
86.7678942415965
86.7213605584881
86.6655968169493
86.625475616326
86.6089641332012
86.6036341786094
86.6000067211752
86.6099415556517
86.6458682894171
86.6722052557706
86.7047842234517
86.7570951079287
86.8204533856124
86.8987449216291
86.9793304921079
87.0530624785575
87.1480394859777
87.2487397925334
87.3607053709386
87.4548748315268
87.5200841663056
87.5841446197272
87.6600676683081
87.7358522594154
87.784929123717
87.8335431290336
87.9162136743238
88.0101241616909
88.0871749300905
88.1507637323686
88.2077236703834
88.2434721699354
88.255953731783
88.2403471160197
88.1941206212064
88.1261456042025
88.0262679981996
87.9115298457409
87.8186843678579
87.7550669699847
87.6838997044088
87.5820252902805
87.4916041336718
87.4257762888366
87.3559617363154
87.255514384512
87.1332730146517
87.0073546872069
86.9143540467014
86.8223052012454
86.7346891184533
86.6429088391549
86.5435144907653
86.4657353387148
86.3819649717452
86.2728189633774
86.1670302480755
86.0622735873697
85.8964924480406
85.6927174107289
85.502366680889
85.2607563391831
84.9786648252033
84.709791399863
84.4678773778836
84.2549944682461
84.0984430065731
83.9820432362967
83.8875206547583
83.8176240327755
83.7682041268471
83.7093017508113
83.6400602112362
83.5577570905356
83.4967018947936
83.444057983998
83.3554003017918
83.2070585701613
83.0697589677069
82.9240170923506
82.7540191595318
82.5794828972369
82.3723520002654
82.145896615409
81.9127500061842
81.66761329911
81.4152228533804
81.1673376224672
80.9283793900721
80.6916104287642
80.4642122607213
80.2423338487717
80.0597829319416
79.9260301242857
79.8169032137422
79.7107215426689
79.6330298957381
79.5770886119649
79.5225169323799
79.4821073324866
79.4064622383246
79.3156384462304
79.2468228161655
79.188767786693
79.1040574857135
79.0036888449507
78.9130877356669
78.8147787785438
78.7009421362703
78.6070390344678
78.5296527642989
78.4567002660536
78.4047133511355
78.3946939696757
78.4137617006895
78.430078155725
78.4608522132112
78.5188499826733
78.598128285613
78.7040364449882
78.8172667971799
78.9151340280704
79.0404718093312
79.1690997197666
79.3181259874878
79.5276575154071
79.7603282073137
79.9719645427993
80.1929048895586
80.4410894997845
80.7037721342268
80.9127507248777
81.1380920904683
81.3599155678221
81.572804875193
81.7941908928417
82.0132378154394
82.2263897124758
82.4168163178981
82.6018601641509
82.8103258629313
83.0211000255867
83.1917435714395
83.361062166855
83.5333079897521
83.6633558891242
83.7986299029725
83.9494696507008
84.0844814688089
84.228431415057
84.4114610455525
84.6004447331189
84.7941652886853
84.9767312130506
85.174736846629
85.3406993918114
85.4472299424323
85.5765117015583
85.6891194360055
85.7871272113708
85.9176445878086
86.069060344208
86.2102040093462
86.3225343297517
86.4627030341885
86.6012388742315
86.7158798698376
86.8321921379652
86.9329702524724
87.0257264237108
87.1160321240282
87.2152175034268
87.3417483133146
87.4491940779676
87.5059933470631
87.5665022444613
87.6232154369562
87.6766735782281
87.7235833672963
87.7896554761158
87.8835289194078
87.91371058674
87.9407690935841
87.9956712118126
88.0304806205359
88.0575773049263
88.0849105541658
88.1304290841387
88.1429086577191
88.1734819750494
88.2281666670509
88.221877304143
88.2242393183414
88.2399439967521
88.2496364604349
88.2610070807704
88.2803166183502
88.279941633442
88.2726230630698
88.282241797467
88.2874018510295
88.2631510903161
88.2433616117541
88.2498662851347
88.2165591388096
88.1836173114608
88.1774280376814
88.1356559899749
88.1123929220783
88.119410770044
88.0919275341607
88.0344389320615
88.034567565586
88.0365241612595
88.0112279692597
87.9265199582561
87.8395355302249
87.7754128200048
87.7088642511777
87.6556116559566
87.632780992156
87.5979769419469
87.5311817901955
87.4664228484327
87.4213889107661
87.385885269109
87.3085674585151
87.2607344103335
87.2301524500456
87.17325049699
87.1414469071018
87.0958409256192
87.0146173751755
86.9768007598665
86.9281649486936
86.8421617920206
86.7881350094494
86.7303440001092
86.6751254721295
86.6620887685686
86.6303136825172
86.5750907593889
86.5574449312617
86.5108005939349
86.4438407897864
86.4199380311987
86.3792882460584
86.2831812555389
86.2108962562465
86.1593067901072
86.1628904401151
86.1016445957185
86.0155010915187
85.9741737964669
85.9524797807293
85.9132196039934
85.8545861898073
85.7931884979509
85.7505949230728
85.7103399214946
85.6291558487093
85.5490314154375
85.4963178700099
85.4278656304046
85.3327720403822
85.2310472502381
85.1822112517037
85.1678625825801
85.1221272388025
85.0488748767519
84.9299048182529
84.790508334005
84.760392187148
84.7320284639466
84.6518370034097
84.5559928727441
84.4786870750116
84.4118418610026
84.3136755388524
84.1947535431398
84.1301206165705
84.0470108312039
83.9595418085496
83.8626158674231
83.7818070777276
83.6816834260494
83.5851288939324
83.4717969127244
83.3685208216765
83.2850053236102
83.1731883575321
83.0439137441282
82.9000553986532
82.7599814480792
82.6544744043199
82.5824096682361
82.4693738807732
82.340470986155
82.2296456993842
82.1371777361698
82.0988702937201
82.0425724631153
81.9441251058437
81.8601882840317
81.8171321360905
81.7022563989854
81.5923508955331
81.4860336004257
81.4496877164808
81.3709436400098
81.2394728801823
81.0959661929674
81.1747397650809
81.0924698735503
80.8539891498812
80.7549002866274
80.7015822793615
80.5910555271762
80.5374041607551
80.4592402587707
80.398055512444
80.2815993211169
