1798
3999.43349933624
650.420452594757
1
128
4
93.7006191583506
93.615109383193
93.6300250853472
93.6788778388902
93.7296067203134
93.8375083013134
93.840021999871
93.8711258253711
93.8273978177183
93.7122659888378
93.6900148707934
93.7917893119665
93.8558981248273
93.738711019734
93.68322220573
93.7147891934944
93.6234704519011
93.7126727308225
93.834511074677
93.8398239280524
93.786169532613
93.7056138949013
93.7513885607885
93.7943035234254
93.6697334577587
93.710900746203
93.7697658122079
93.7483425399315
93.7619556044038
93.7986463386181
93.7612357757033
93.725857981904
93.7548168797176
93.8140071041868
93.753035788183
93.7021231111276
93.7043245414909
93.7450785078272
93.7842342044526
93.7605396189492
93.6905414246077
93.7621758347586
93.8134332900903
93.8027014167615
93.7048923785872
93.572524390162
93.6052799658268
93.841674798885
94.0645011853704
94.1014587882602
94.0244454201905
93.9470329522304
93.769029539708
93.6078226869409
93.6558139284734
93.8551736588182
93.8339092701045
93.7184874106049
93.7457378898492
93.8421721317266
93.8113261232735
93.8770757266717
93.8468744563071
93.7870630465217
93.8104137441815
93.8653942920815
93.9751513918205
94.1574787094082
93.9979034384465
93.7361077325155
93.7061165533058
93.7491292951807
93.6642630667173
93.6930779928511
93.8975146828436
94.184315301641
94.2835508751225
94.1539860390045
93.7416742146885
93.4451869203917
93.5920861706115
93.8704230232141
94.0199226880696
94.1143071170359
94.118573101094
94.1738746695013
94.1226698594512
93.9488309460887
93.7599628494903
93.7220043010619
93.8019508557425
94.0476569476221
94.2303762471408
94.2009324489452
94.1170652161948
94.1159108101426
93.8845991362163
93.7297941365969
93.7914253141636
93.9500543048496
94.0793337910057
94.1028959321837
94.0544462214238
94.1424271566494
94.3482878718221
94.4033208561975
94.1923553125782
94.0337943163578
93.9454338847057
93.9719285495416
94.0720006098442
94.1033057812776
94.0471591215288
94.0895202028358
94.1678761008103
94.1646450573168
94.0810075626018
94.0480736212468
94.0186889921429
94.0782640069902
94.1953309285188
94.2826814806162
94.243165238701
94.1549804235899
94.0924984265582
94.1256911308709
94.1482803573647
94.176541335172
94.1644754437647
94.2155384344308
94.2671605696043
94.3760157093648
94.3991976873753
94.3135128849475
94.1644684222952
94.1766152337587
94.1425579150787
94.0664168138729
94.1520706461413
94.3518233564749
94.4680243354984
94.3935069888426
94.0841606419389
94.0559541264061
94.1382593183221
94.2305732121248
94.2553955672779
94.2457960856616
94.1817143983249
94.1870009770517
94.2905297538487
94.433618323258
94.4914125570453
94.5643172089845
94.5009057611998
94.164603222475
94.1063267002623
94.3046906737503
94.3335050867778
94.328152958816
94.2701245598992
94.2613675866917
94.3435723612063
94.4959662648174
94.622858430824
94.6000128438363
94.3746019195305
94.213558400371
94.3026015231791
94.456740743554
94.5262327164515
94.6478324231769
94.6332478008488
94.4751656882699
94.3530568043791
94.3649596065608
94.204531226321
94.0103688663257
94.0416467715439
94.1720272701704
94.2551730452488
94.3761283546009
94.3735864759104
94.3432789497092
94.4231869675311
94.6335099353868
94.4415151455921
94.0298975902685
93.7089994393847
93.6237650637861
93.6588811282224
93.8170888777207
93.9609359037882
94.0371536457807
93.9774999119948
93.9398683949581
93.9713896586484
93.9931997957796
93.7070986825421
93.404042803739
93.3601167506519
93.4240092801583
93.4941904443914
93.5647866895528
93.5032022480331
93.4512524561744
93.3753683987418
93.4064000808657
93.4134828513213
93.3206449867186
93.2127470486473
93.169421635504
93.0064922687134
92.9841429222525
92.9255875847482
92.8303392182414
92.8245703222525
92.8789385298351
92.9163872024592
92.9261122457488
92.7951437502631
92.5169334059646
92.3071021037289
92.3333553826304
92.4360861351351
92.4165091661205
92.3183016421516
92.2549229176906
92.2823182449133
92.463251628546
92.3797677328373
92.1209999601789
91.9073698529807
91.8782947472829
91.8929708917598
91.85716227289
91.8123470026906
91.7657252670481
91.6227282771747
91.6734607436633
91.6715182412374
91.4954612818995
91.3359332707526
91.2238181653464
91.0522566627027
91.1380158566171
91.2178416957331
91.0936345069942
90.9250442564796
90.9266047806412
90.933588848927
90.9310443857666
90.8760435354365
90.7687535269349
90.555954054998
90.4368956871105
90.4073578255148
90.4496421874373
90.4262483364414
90.3994880456946
90.2766802374794
90.1469595625219
90.1274574920643
90.1922672846841
90.1392332080187
90.0560223785637
89.9416087177614
89.9328158025782
89.8874092434459
89.8220384933195
89.6848241282465
89.6524224918236
89.6313253144686
89.6082358839911
89.6289349422258
89.5772417933308
89.4086398209133
89.2620754589954
89.1894940515067
89.1023273797968
89.0100812705961
89.0850314913586
89.0605021179551
88.8850753706243
88.7663148044411
88.8370726310288
88.8145102987051
88.7418299008627
88.6241876800011
88.5587573383139
88.4653153163961
88.3904388908349
88.3779310395984
88.4439851013393
88.3190155967818
88.211338695023
88.2368872230013
88.2282802546429
88.054454861913
87.9377568024076
87.9437092396741
87.8233491215137
87.7558293065612
87.7343196551022
87.6777948888837
87.7459062646681
87.7398890395468
87.6391450096714
87.5253837758748
87.4381613662194
87.3410894117233
87.278079843948
87.2825396855587
87.3352827041898
87.1774365134589
87.1435011410816
87.1136095040706
87.0699590853172
87.0196982627484
86.9327401241749
86.8061362297112
86.8349580557003
86.7605731057886
86.6969003784152
86.6363811613026
86.6737601084287
86.658453444317
86.6244365252322
86.4520679425732
86.3772787164378
86.3834392041918
86.3606881983165
86.256256079295
86.2109174142503
86.117530636651
86.083879220345
86.1143943684227
86.1336226924072
86.058277355738
86.0875107639918
86.0474558775281
85.9554896397745
85.9109156077189
85.8636313100396
85.8473989638777
85.858869274972
85.7620140183075
85.7383749448755
85.6595815067451
85.5953247133946
85.5692650548031
85.6133155770252
85.5587034061554
85.5018030133705
85.4733743438143
85.5140030876691
85.4451237506797
85.4644790427435
85.502223719334
85.4652040410686
85.2917658222438
85.2411848908836
85.2508349656437
85.1788103178736
85.0405956223221
85.1099385454206
85.1925702081969
85.224164317153
85.1825072619882
85.1247138650141
85.1136998504452
85.1135002958526
85.0287218864901
85.0953310699998
85.0869774214282
85.0714910035857
85.0520811452441
85.0669689096377
85.0002564158805
84.9689796869363
84.9440445922055
84.9251372297071
84.8708043707821
84.8148331468837
84.8331539821136
84.9285264614596
84.8430031822263
84.7528662204638
84.7418075230845
84.8831356517873
84.9209474306796
84.9286018211574
84.8521713339554
84.7773533607701
84.811449375701
84.8141325509903
84.7543949997843
84.8200595362018
84.9468847855779
84.9934722386444
84.8386430772378
84.8288422529356
84.8338296512942
84.8277606599512
84.8763301759178
84.8878408144068
84.9179251602443
84.9196971580925
84.8628746362181
84.9777248354889
85.1236115541771
85.0909093507559
84.9699848066375
84.9796683675977
84.9771803858311
85.0680694417864
85.0569993860664
85.0535443561605
85.0780790160131
85.0692503356711
85.0544326096162
85.1559627406931
85.2189545274855
85.1341134981339
85.0535801893499
85.0730225467852
85.1798943905562
85.2847697430286
85.2448885038689
85.2458277736552
85.2401631437876
85.2407028766309
85.181139223304
85.2448243854879
85.3502717793377
85.3594138876723
85.3596485868162
85.4571606274467
85.4961006649813
85.4565420260871
85.4085523381661
85.5299755827254
85.6267545657961
85.6878541938475
85.6505317015091
85.6465236891004
85.653553994336
85.7208647679178
85.8404686702382
85.7983835661445
85.6986855659682
85.8073012681118
85.9997353119722
86.0680321839564
86.0125930369827
86.071321664955
86.1338202337122
86.1590050324708
86.0553939100089
86.1167773203541
86.270464587888
86.2897014685685
86.2082079800537
86.2474026226672
86.2985976288016
86.432998708492
86.5481311459046
86.5426096067901
86.4310139645178
86.4998827124584
86.5341061576201
86.5622535808854
86.6018816512219
86.7100770802961
86.7878603840163
86.8276077692711
86.7343996161253
86.7621510953621
86.8415173298276
86.834606050322
86.8084825978649
86.9003700452972
86.9601146577206
87.012471945836
87.066479174063
87.042793866527
86.9665744129118
86.9961021432256
87.0688654221052
87.1189915634756
87.1597757457107
87.213270732986
87.1965483642823
87.1879405779131
87.1423347949348
87.1152704595159
87.1483751876258
87.2077561105835
87.1841497415692
87.2270467006025
87.2900113811424
87.372913856197
87.3994641608613
87.389180083925
87.3382492994573
87.3924489991321
87.5042754719814
87.5842042462742
87.5388319161337
87.5629701665183
87.5574347531206
87.5750949144083
87.6507963441335
87.7653888172943
87.7749753201917
87.7531349888138
87.802149340539
87.8341130748131
87.853110541833
87.8963981861813
87.9267828076749
87.9290250683714
87.9219659722815
87.977274437384
88.0068109011032
88.0237768815002
88.0260791897264
88.1099727736891
88.1871102808734
88.2501223296024
88.2316465220454
88.152754338768
88.1590162518483
88.2408209381699
88.1598294716606
88.1978284471272
88.3344285968174
88.3468036184651
88.2907210499796
88.2606958260641
88.230042033842
88.2456408214968
88.269218008008
88.2338356208847
88.2187696956096
88.2174662268689
88.2073031241307
88.1650335645318
88.1117301564087
88.0544594323292
88.0551723080135
88.0766898878493
88.037564330402
88.0176688077152
87.9604928479139
87.9289085805376
87.8707984428048
87.8614595477504
87.8290022341154
87.8028319719936
87.8266092777533
87.7841212413911
87.6426463394663
87.6547116986949
87.7398575724479
87.7537848355988
87.72295685808
87.6829110329585
87.6024081462302
87.4783878056443
87.4223346623116
87.434599524963
87.3516411855988
87.3220331695077
87.3503121787188
87.3510789103452
87.2868703662063
87.2288429606396
87.255887129946
87.3284383431269
87.3702470337092
87.412208640951
87.4186177892734
87.4877544889493
87.6143607355107
87.7043623054306
87.654062467102
87.6219796158881
87.6871172384591
87.8224283803574
87.8774130943612
87.8579775164044
87.8912178010738
87.9698487056934
87.9885024157811
88.0138098101879
88.0442097282823
88.0399391877323
88.0367419568757
88.0948338381736
88.111966071141
88.0805496548497
88.0846157871193
88.2164174028359
88.3182383296015
88.2476727117353
88.2272649331491
88.298935907508
88.3434033726496
88.4279326547517
88.4529317964828
88.4355751565408
88.4208710586675
88.4795528939798
88.4398097743546
88.3827320794009
88.3738723655581
88.4714611452277
88.5241543260934
88.5480514539891
88.6075471468276
88.7223456036294
88.7871785571277
88.8512913384495
88.901850043988
88.9636051079372
89.0035670614234
89.005474798837
89.0623195542889
89.1220748926879
89.1149603308128
89.1472599170248
89.2404559963496
89.2904431544129
89.2505027302121
89.2793935238812
89.3123239188622
89.3570987773024
89.4342107440155
89.453490961317
89.4116641279057
89.3869824374777
89.4489236502766
89.5498311588213
89.5771765191666
89.604675739677
89.6090406261477
89.6470078954542
89.6801612606792
89.7082161669078
89.7443406328492
89.7232135921795
89.7404724937516
89.8257772147792
89.8021894066824
89.7913898573493
89.8208863473632
89.810243604401
89.7845955675479
89.8740388373397
89.9028016367009
89.8654600804834
89.891142533217
89.9359567267174
89.9385017778278
90.0066558888429
90.0349121927147
90.0288403920258
90.0148939259427
89.9931806216092
90.043605386092
90.086792358587
90.0772303047282
90.0846467170441
90.0872917303844
90.1318535852444
90.1775408131901
90.1588152703098
90.1584053221308
90.1850085369446
90.1909512701234
90.2416221289872
90.2654803708149
90.2324109927944
90.2388326778939
90.3092855888264
90.292349831632
90.2902138885964
90.2457420139251
90.2591187076637
90.3208688340827
90.3658702068868
90.3869533934127
90.3901064610409
90.3870780443894
90.4108287949051
90.4507515076401
90.467157612218
90.4681743749496
90.510302434045
90.4970732750453
90.4523324769497
90.4560697259681
90.4739895656782
90.4900503805173
90.5466808457212
90.5832084542918
90.5833437458719
90.5891065337457
90.5891737063318
90.6163623585608
90.6669861242613
90.7008474893873
90.7143244860473
90.6727680770225
90.660973441781
90.6697122965326
90.6556309619962
90.6613694762849
90.6814441914016
90.646460066821
90.6337527017836
90.6580861222507
90.6929190557643
90.7380969334396
90.7220140318597
90.6818264238732
90.7032059773141
90.7709177253398
90.8366228403218
90.8030504569292
90.7301883112354
90.7703152213872
90.8945660430987
90.9282867956802
90.923172693794
90.8798581869965
90.8752455723112
90.9275233207048
90.9917100985693
91.0656529970539
91.1152553329421
91.1294670343753
91.0961092017919
91.0891111613576
91.1701937827957
91.1303967481216
91.066579296156
91.1218284569093
91.252323836007
91.2843808771812
91.2797734327415
91.2622997071926
91.3281384651417
91.4002056037741
91.3671674776541
91.3402727615076
91.3324757839349
91.346305195562
91.3785208544658
91.4079607737345
91.4971413819956
91.5415950662304
91.5270420368141
91.548904063723
91.6670736517044
91.6267886134434
91.5723795015411
91.6833210766505
91.6938363426503
91.5836344116296
91.5349432338226
91.5777158662808
91.6548085075869
91.689236080232
91.7189694110037
91.7291509372916
91.7660183694594
91.7810313413992
91.7987146866587
91.8659540991296
91.8806273720141
91.8515884695998
91.8088409810419
91.7721891407037
91.7738639455309
91.8124183967122
91.8533607235058
91.8356790694051
91.8760810358628
91.8737235715963
91.8350623500567
91.9030318603594
91.8783693592816
91.7124390289665
91.7960504942585
91.9960427954321
91.9391764392317
91.8726511774273
91.9556588494214
91.9652985859052
91.9541561491339
92.0207272834421
92.0373941557479
91.9497908908909
91.9152421732305
91.9387666203075
91.9367924748051
91.9397150739579
91.981211861198
92.0641703437981
92.0558210718718
92.0279234983215
92.0266122528784
91.9882048509151
91.9641256135083
92.0286744078872
92.1245104460046
92.1513571547287
92.1407488165914
92.1651260094567
92.2016198678453
92.164671543015
92.0570273627211
92.0567549587036
92.1669446715376
92.2111676907355
92.1083820679082
92.0843583109635
92.1664255815684
92.177270216418
92.2554319327663
92.3680982713568
92.205185009844
92.1182731422989
92.1908130746996
92.2020669756807
92.1795762357628
92.1695759538964
92.1460377078793
92.2421821849965
92.349742651139
92.2824193667855
92.1920875568991
92.1874177733615
92.2334130337318
92.2502092171434
92.2409569334133
92.2245981835255
92.2335404831711
92.2989497461291
92.3094309350461
92.2930880995097
92.3027100382398
92.2958378575495
92.2923434585876
92.2645868894304
92.2643369819813
92.2952553366204
92.2346857099271
92.1847037200517
92.2202276008017
92.3055911214243
92.3192245527599
92.308720808037
92.3008500761477
92.3111814311388
92.2624159443806
92.194518356043
92.2257328657439
92.3068144068982
92.3664599392696
92.3813446631871
92.3572212668233
92.3249611599573
92.4032036000897
92.4822733125578
92.3753198193388
92.3046826420922
92.361366718534
92.3430663529079
92.3391189772716
92.3596818496382
92.3322556996423
92.3474952000837
92.4060574300235
92.3787940742335
92.3333252550247
92.3089499713143
92.254530741709
92.2965125097177
92.3182153383641
92.2877219054932
92.3140373105566
92.3233746628666
92.3212558064937
92.3435133704028
92.3047015949212
92.2596064686299
92.1791045885887
92.1311053361175
92.1744656936159
92.2716838399887
92.3286289641866
92.3243889716004
92.327185998857
92.3943505761719
92.4173659496984
92.4232897309057
92.4642273132101
92.4436393385054
92.3850806662437
92.3687995021639
92.4373584856166
92.4231094801315
92.4549491282643
92.5315004047151
92.5250232850234
92.5759540579477
92.5999848348819
92.6191169780661
92.6476922210089
92.6866851025369
92.7716526934424
92.9706424983478
93.0229119022929
93.0334717332621
93.0702990202578
93.1248701780322
93.2445969191618
93.2772813177046
93.2595728219486
93.3148357529663
93.3449852653593
93.399234605141
93.4757562466203
93.4334408329909
93.4412225859612
93.6035817876377
93.7416453305981
93.7883879712405
93.6479892241583
93.6571255169854
93.7850502603022
93.7952331134018
93.7849675815181
93.8606767241128
93.8638561179662
93.8855495655393
93.9685835072166
94.1345648930059
94.2137512620658
94.3839302179294
94.422754418255
94.505395008945
94.3810663348518
94.1687847258177
94.4671521374334
94.8547469690017
94.7193495579939
94.2944681137231
94.1778651062723
94.5731794346274
94.8098175235381
94.8266388898283
94.9268626208118
94.9824406238366
94.7918741141745
94.7793921629228
95.1539721765299
95.4516187257456
95.3294139606077
95.1249516575199
94.9858892270902
95.0578550461307
95.2549234691212
95.5976513324698
95.6013002458145
95.4786051073309
95.3721812001612
95.4883335009795
95.5053687190323
95.5080714333321
95.7485038146843
96.0522084110946
96.1951052028319
96.73208753234
97.0407347519681
97.2458294585525
97.3119440765486
96.6582854302028
95.9672042853298
95.9744429572523
95.9794674082999
95.7809552578643
95.3992219680495
95.2750471375166
95.4021077881012
95.2973605497782
95.0460426683556
94.9167489232545
94.7566392033475
94.5980972905885
94.4806952937296
94.4424522119127
94.4249655322014
94.3344981375923
94.0341425406395
93.9629826521881
94.014170119221
94.0565552478595
94.0647075900236
94.1047961575481
94.12242919526
94.1052722194669
94.0764855737842
94.0228402944708
93.8501771886357
93.9100394588471
94.1460882747154
94.2495514094095
94.1972843356466
94.2774498523318
94.3588458243751
94.3354070583429
94.1718049187283
94.2098786080791
94.2974275127161
94.3821364232063
94.5344226004737
94.5011709054067
94.487851183925
94.5284751325655
94.4756661545771
94.4521441602546
94.6411337666097
94.8800914040891
94.7811766578891
94.6212912734538
94.6084464921626
94.7639937387409
94.8774095016425
95.1846837329778
95.2721436999536
95.2601206010218
95.2035273710598
95.128273867939
95.4979761717477
95.8831937289955
96.011124525013
96.2500143805279
95.9779238993069
96.164046754312
96.521679061374
96.8058815142589
96.8289845989902
96.8383222057103
96.6537380809305
96.5981217638481
96.4359151355022
96.5867147598793
96.519136637155
96.4807857110806
96.610235986418
96.5436957731842
96.4855512811997
96.4561203503247
96.1962231111919
96.1845937849446
96.2346850569485
96.3129837593714
96.0085271400902
95.8071679270453
96.2005179329325
96.3773239888274
96.1605058765155
95.9611263901613
95.8586891721346
96.2403929536062
96.2492554612561
95.8123727477707
95.7830224237137
95.9385818521131
95.8659175039771
96.0931324746957
96.4691375004464
96.6699246347401
96.6666311964376
96.7319134946331
96.5576273640382
96.3811894373233
95.8964119855407
95.6622856362575
95.8836146488898
96.029861819512
95.8133539401781
95.5881419073681
95.5551591884048
95.6056301090023
95.3229681658564
95.2400846006286
95.3702245120149
95.3770425167728
95.2881213826219
94.9994024110267
94.7120962057332
94.9478015990762
95.1512374067009
95.0936490394174
94.9423323866543
94.7622823480181
94.7417396013977
94.7277595381918
94.7285663318773
94.7121601842268
94.6501041234029
94.5838831874893
94.5908946700253
94.63149887883
94.5081100323174
94.5066471270019
94.5520321653226
94.4291631981626
94.3283544188109
94.3675396541174
94.4310557616052
94.4511952304104
94.3646997175119
94.3952577816673
94.3693900655483
94.4063122801114
94.3478232493607
94.2763718945695
94.3045443891873
94.4200271395897
94.4100730873865
94.3655640870959
94.3083234423803
94.2950801069686
94.2919329847051
94.3452591901971
94.4275495451963
94.4511337160515
94.355792851821
94.3208871025387
94.3184073436262
94.3799329300497
94.2818221709831
94.2743569409582
94.3375812674913
94.3378014520235
94.3206386760471
94.3425756942549
94.3968972993956
94.40929086622
94.3417544996463
94.2853572060878
94.2737568799055
94.3122330102688
94.3377202333587
94.3968587530942
94.4014913706725
94.453082534358
94.4525799647329
94.4323573401364
94.4123046407267
94.3112119846839
94.3060352052234
94.3467630623809
94.3167476669224
94.3181281778863
94.3660627636146
94.4586040246102
94.4684204173501
94.4111324075873
94.3778448224854
94.4215688567094
94.4425415829142
94.4400216316982
94.3632854426144
94.3540064622431
94.3766516039066
94.4012257775743
94.3703449456385
94.3033966730472
94.2863047238709
94.3032181657119
94.2936930686399
94.296011584995
94.2645998052935
94.1727650839948
94.1770656928741
94.2493877851352
94.2493415866137
94.2355258388124
94.1174848814974
93.9987937115212
93.9181269718387
93.9470859075409
93.9373993180879
93.8810786046391
93.8132099179357
93.7540192908616
93.6453230316492
93.6052626782616
93.5053419098748
93.3432269757571
93.1497548423571
92.984023222715
92.8871963663461
92.8085050646333
92.6385073439373
92.5234179802993
92.4660068339815
92.3250959092409
92.0641417032618
91.8955287689754
91.6932515899697
91.5217858245833
91.4002056505495
91.3222393551539
91.2769113587731
91.2376537497649
91.0536741867866
90.8465181492825
90.7102869807369
90.5838660391501
90.4825749587904
90.4483390096846
90.3632080356238
90.2656619325941
90.1849577947243
90.0661908298312
89.7327598652259
89.4719489557808
89.1879524438879
88.8660272394304
88.6523683814374
88.4275507815797
88.1777784380597
87.9367581452208
87.5449165269561
87.0274081033421
86.7204409497611
86.4060580246383
86.0534017121871
85.6850434415222
85.3660468540486
85.0386025414889
84.5408451864264
84.1079328336341
83.8205265867869
83.4186039187683
82.9072962329547
82.5400925150886
82.2744336261288
81.9454692471238
81.5101299658682
80.9521889577245
80.8092101053764
80.8284619420357
80.2851169725661
79.854461860526
79.873479686274
79.8026491446147
79.5946742773562
79.4068727220714
79.1044080137898
78.8959280123838
79.0892936244732
79.0691699847196
78.920500457708
78.8229131728072
78.8401129388076
78.7686506073723
78.8146624000488
79.0029597291343
78.8680639396938
78.6419206644129
78.8182219066864
78.9378286607611
78.7980553610471
78.6972120905059
78.6696809607971
78.6454406331615
78.575498766928
78.5352943736408
78.4758389953675
78.4082290016837
78.342501766118
78.3346335901571
78.3405223237973
78.3526326097147
78.3767695092862
78.4428565327229
78.5141596710059
78.628721169785
78.7598962630508
78.8771658334445
78.7348941414565
78.6840523263008
79.2091972411589
79.328949968974
79.0441944752226
79.1522219764407
79.4236915427149
79.4867406830785
79.5327127628055
79.1989057262899
78.5804790010248
79.2700277256179
79.6396051110451
79.5163581419322
79.4862926913
79.4092736542489
79.4966850235375
79.4359125188509
79.3043525157289
79.2045235263512
78.9894450942243
79.5450380324032
80.1067491569864
79.8546790416976
79.7189207157161
80.167676242201
80.2936528945022
80.2495453935305
80.3831735957908
80.5357253562051
80.42693944118
80.7513935735271
80.9674637416395
80.9107566761782
81.1763799806386
81.3316529439009
81.3744535190667
81.1996344189816
80.9067367031291
81.7488243541678
82.4193020780346
82.4435695765485
82.3893674872965
82.4308861551254
82.7895241808844
83.306129947789
83.4282377181617
83.3924315408605
83.7423553131376
84.1930271557804
84.5217223364818
84.6770633104723
84.8130348607571
85.0312727157219
85.0585381586511
84.9805594304923
84.8195445612523
84.7449127129274
84.8024230061027
84.5467503173246
84.139006689498
83.9010938812687
83.9101174604345
83.6605258453949
83.1778912058345
82.8313388351691
83.1070045840703
83.0525347382164
82.8502206752336
82.6727858196291
82.6040541223539
82.6733128286882
82.6857743165379
82.6753922046635
82.6743061690908
82.4679725301405
82.3264606185545
82.5133554636523
82.4002380711943
82.1295213069456
81.9638936068858
81.826807095733
81.559969735567
81.3330760445097
81.0968687409157
80.7268260296893
80.686262523236
80.7046487541651
80.5331989699871
80.3796299863096
80.3194232979482
80.3097396036063
80.2337227461797
80.1900869987407
80.283726587225
80.2707204324954
80.2118700126894
80.2889263620083
80.2661154127957
80.3851578605919
80.5422889540842
80.4730919397602
80.334585293171
80.4229783053275
80.5156131177539
80.4772437967974
80.4725186703862
80.4619604154505
80.4262578675397
80.3472634018941
80.4303390986666
80.5588247663627
80.5929611175068
80.7125614121349
80.8282502542997
80.8138134541232
80.9711452616117
81.2376715561423
81.3427677215121
81.3886540857363
81.4651085069343
81.5502859822571
81.6258668708372
81.6909933898285
81.7697101906867
81.8692111029453
81.9548803509221
81.9458830929642
81.9379338927967
82.0713343550601
82.1996037601714
82.2455230335265
82.2820023331159
82.3205720809594
82.3499016971171
82.411352841111
82.4799802148981
82.5240051918746
82.5464952440536
82.5859122114718
82.6470508394753
82.6840373686074
82.6979263588076
82.7545159240185
82.8140978807431
82.8561988891075
82.9176833189448
82.9568928551184
82.9982805069216
83.0399512049123
83.0710209795318
83.0992707121623
83.1384357456478
83.1651271988386
83.2045078556567
83.2173771190108
83.2080507850758
83.2277013954912
83.2082028771469
83.1487600510021
83.113814649394
83.0681100916311
82.9773492097644
82.8788996040198
82.7614109678515
82.6588579510842
82.5601407194975
82.4316477976279
82.3002405614756
82.1807403078522
82.0612507387727
81.951049945096
81.847961928417
81.7382483516861
81.6286353359159
81.5205875769309
81.4294619656074
81.3373449590948
81.2121567577444
81.09654591465
81.0231462579769
80.979446164683
80.9687352315685
80.9499734692637
80.9148706209596
80.8897374490873
80.9035700121117
80.9587777882084
81.0135645340961
81.0731060596103
81.1420752095305
81.2217075048362
81.3195499303267
81.4290390317966
81.5338395706511
81.6297722504998
81.7272561362223
81.8505775360574
81.9764030497761
82.0745778806354
82.1534408410915
82.2555278474524
82.382598310086
82.5185505754741
82.6597084961652
82.7903885667901
82.8932253336615
82.9928377937463
83.0933763569194
83.1532496832173
83.156121875631
83.1227777019437
83.0672739433992
82.9850715941329
82.8982952560739
82.8065881297606
82.7053312703907
82.6012445735852
82.5128684309548
82.4291467367249
82.3484263364939
82.2507378544779
82.1366419132944
82.0042102914732
81.8762751543411
81.7383714531775
81.6044151978174
81.4731043244197
81.3207069224401
81.1805836569717
81.0508780602083
80.9074900765294
80.7735331661954
80.6049070859192
80.4115102174533
80.2309272041513
79.9971113099501
79.7065339326761
79.3850815065135
79.0452177515065
78.6921836649337
78.3432967533411
78.0365698035182
77.7713871213878
77.5616538513262
77.3861435151588
77.2127646469033
77.0673478968149
76.9680361185196
76.8505100181246
76.7329950969365
76.6040361070955
76.4572374006542
76.330055237691
76.2006832233142
76.0130023976257
75.7770212590204
75.5427600348065
75.2887125227167
75.0277963025805
74.737872136058
74.4393901103511
74.1407824633989
73.8400411785526
73.5047807473232
73.1624889709715
72.8589503098029
72.5950332326881
72.3244044339913
72.0630483904238
71.8281692022218
71.6379519329456
71.46844069578
71.2857316902221
71.1133505251417
70.9711050931978
70.8589897934982
70.74709965478
70.6251295809661
70.499359463885
70.3449519641839
70.190088135228
70.0440901259707
69.9118563918396
69.7801932918594
69.6361891778379
69.4989677765596
69.3959308428739
69.2897567432087
69.2080224139644
69.1460483783053
69.1159062239169
69.0974731984617
69.0880717032104
69.0978776875035
69.1379851135135
69.1816410326362
69.2374915407713
69.3204167922544
69.4404625661274
69.5668454384448
69.7233769595011
69.9017177706093
70.1286381643052
70.3756921786912
70.645232688171
70.9180132491623
71.1651697327952
71.4177884731506
71.6805656039267
71.9599453295711
72.2330841941419
72.4715530745058
72.7165297287605
72.9697844108099
73.2004809602668
73.4510974402429
73.7094049322934
73.9238752284646
74.1328905144046
74.3437219234309
74.5363795835059
74.703083088713
74.8694052284827
75.0412067043851
75.2309771807703
75.4266229671855
75.6258619672238
75.8556084172785
76.0809920569924
76.2936955132309
76.5425683154079
76.803455054908
77.0246545498158
77.20541404106
77.4025076922717
77.6143362712179
77.8212818649267
78.0025506652813
78.2143855203043
78.4599096467352
78.6733453135198
78.8657416952219
79.0691788370894
79.2323167886423
79.4410725210311
79.6261589647713
79.7738939742779
79.8992363174539
80.0282397374323
80.1763783386408
80.2921548399864
80.3727195641285
80.4648960893533
80.5490304551537
80.6096495673505
80.7000945716114
80.7979885712712
80.8992937015691
81.0087721933054
81.0924113189959
81.1534844493379
81.2271827793181
81.3031174137472
81.3550873210245
81.3738051697213
81.3914580123516
81.4600656106534
81.5305708983899
81.5436834982768
81.5490721738455
81.5635806845778
81.6175573409137
81.6768264461106
81.6598958192783
81.6659439387166
81.6822113587231
81.6759978366137
81.6940710685693
81.70264027758
81.7094446455691
81.7232062130728
81.7251768550576
81.7350894117275
81.7516251574018
81.7421652573325
81.7121457493484
81.6869439779218
81.6937460547133
81.7252133966948
81.7234740100435
81.6871164356138
81.6214220877865
81.5460657090667
81.486752623229
81.3993065011611
81.3396169235657
81.3466655551116
81.3292118165441
81.2809507829273
81.2582201908111
81.2372092858009
81.1901373942771
81.1454669923094
81.0720232353103
81.0030551766225
80.9705728938899
80.9488472078897
80.9131947259349
80.8347767399894
80.751213527779
80.6979466056473
80.6641900741847
80.6239314288061
80.6016048475579
80.5709828585448
80.5572975245146
80.5249156122683
80.4846924779159
80.4672520984066
80.4404667405645
80.3849358240559
80.3279544830993
80.2671616396472
80.2317517231649
80.199526856624
80.1372931643706
80.09653794036
80.011585011035
79.98656481871
79.9753643897708
79.9727324929916
79.958428057964
79.9331450565525
79.8696884925511
79.8172649450183
79.7249542425314
79.6270490379763
79.6212679170176
79.6114213985514
79.5362629319955
79.4715016529028
79.3837586379929
79.3114393926562
79.2714298941161
79.2410787189072
79.1247611788757
79.0701193020748
79.0391011579499
78.942991180499
78.8713558935777
78.8618919651423
78.8165933070901
78.7275311734147
78.6322440391598
78.5481758256207
78.4400409880753
78.3191407185171
78.219015222783
78.1653303582272
78.080613729884
77.9744600423424
77.8677562323385
77.7678523013762
77.6626399826622
77.6059543701044
77.4884794027119
77.3579384235093
77.2201549272633
77.0556540628929
76.8961326381836
76.7416993481269
76.589970076508
76.5242057181972
76.4587800735702
76.3354558763206
76.27535251745
76.2574755655821
76.1482704352659
76.0431224835535
75.9210442234099
75.8366137003163
75.8018951765545
75.7203694757247
75.6097346756639
75.5618629966162
75.5080477593414
75.3814129299622
75.2018935143303
75.3285004762656
75.1833283950044
74.9727697027431
74.8590511561035
74.787902934348
74.712629912116
74.5850675443405
74.4899257000441
74.3832897250927
74.2685130870236
