1798
3999.43349933624
650.420452594757
1
128
4
95.8829661128039
95.8313552882973
95.9253723472989
95.9260655047465
95.9063354588557
95.9703614388266
95.9679471123206
95.8737615011633
95.7738092895112
95.7351791143504
95.8185181045548
95.8693494301351
95.8221361029199
95.8563275710454
95.8967335183843
95.9387054606878
95.9860447452332
96.0013882254769
95.9813004275205
95.9684329420984
95.9409876875803
95.8994258072475
95.9342194929332
95.9588587443369
95.8875277999572
95.8167952956119
95.8213541706692
95.923801748944
96.0298313393134
95.9942244032286
95.8941218057502
95.9085138398778
96.0361962461866
96.1473008384125
96.0719056327387
95.9144904205706
95.9372319384019
95.9451526303758
96.0433221920039
96.0659284495956
96.0261155718431
95.9434684919733
95.8582323538176
95.9131535011873
96.0375566869765
96.0766097660936
96.1055462298186
96.0741749892767
95.9860132853177
95.9764195451579
95.9212325213626
95.9116009260602
95.8475952780587
95.8742010590756
96.0391092655812
96.0794179535115
95.9821072542776
95.9174036276705
96.09034313075
96.1126751132426
96.0192508925786
96.1395322242252
96.1491003899875
96.0388232630623
96.1294477904429
96.1321273971095
96.0750152580028
96.025963105745
95.9149655547798
95.9595906840543
96.0241633597222
95.9055531935697
96.0573190076393
96.2059337959936
96.2327126929213
96.1812239133707
96.0054030347118
95.8493769524682
95.9458142146112
96.1609321349346
96.170361337062
96.2186465548328
96.3245084450133
96.3236932154598
96.105126258684
95.8996567987008
96.0431854036009
96.198354425231
96.1864844529074
96.1551484272151
96.2492471115198
96.3232281883465
96.3045467670257
96.2013190162711
96.0188554956967
96.0457516994001
96.1985956053365
96.1298448874408
96.209147106266
96.340780725668
96.3067942725302
96.3166432195586
96.3320119849227
96.4171792281574
96.3023403720462
96.0901255901803
96.245991487457
96.3613562553219
96.3378283459262
96.5407988093393
96.5871422879151
96.4576664697358
96.4195113668851
96.3604942674462
96.3428114343073
96.3672287252042
96.2793819247682
96.2862001561635
96.4436609892075
96.4824363947197
96.4255805663604
96.4524570731064
96.3930959750411
96.3676294425242
96.3443776189738
96.3504370956412
96.4292610759245
96.3925289025008
96.4051873135538
96.5101632782868
96.44498373255
96.2723552860321
96.2185973337683
96.3734912447305
96.4119818651893
96.1538675870606
96.1581625621292
96.5828885444076
96.4623348828359
96.2106029443493
95.9747696787449
95.9146893772055
96.1993598541637
96.4734070017846
96.5682890763513
96.509626222177
96.3871993827201
96.5517326526841
96.528936044414
96.3938517692705
96.4664459426284
96.72143197243
96.9536973612651
96.6076977251346
96.2017347354874
96.4688750899649
96.8573045118863
96.8734226554736
96.9370194894843
96.6424691556897
96.7873381315312
96.7838259305659
96.491355543277
96.4844151169793
96.6452005352441
96.7384213940231
96.8114953209542
96.6217282338121
96.7093416141296
96.6672063972038
96.4579302836247
96.6778082591314
96.6709345754364
96.261036221748
96.3756025761535
96.7074963939389
97.1469125603948
96.9173576586863
96.7397437136601
96.920843027157
97.0229833713503
96.8376196547964
96.7034945160831
96.0822740885297
95.9107101453444
96.4926482612386
96.4161247791544
96.1243320527746
95.7038256025211
95.5692840171358
95.8673279264054
96.0436559480279
96.2735412842149
95.6942391014703
95.3741522191241
95.6205929832353
95.566245806346
95.1119992089609
95.2670224354477
95.9631431478025
95.8212358675245
95.6253740120452
95.5748121286767
95.3277543758517
95.0842801797048
95.2407826237718
95.2743111108456
94.7849951020811
94.517569313938
94.6853672099895
94.7190211321682
94.5000199275353
94.5000961702679
94.6407960499274
94.6490683608978
94.5309212936789
94.3649950803728
94.3539569718938
94.3084054069186
94.0101498832001
93.8375595205424
93.9625318107206
94.0631770859717
94.0187199236517
93.9485262250685
93.8264775099768
93.6602953203977
93.5566288116829
93.5534512414634
93.534524470076
93.3129375591983
93.1331372379397
93.3310480747699
93.3529793833695
93.2178479805539
93.2153099977237
93.1142083199026
93.0053915646752
92.8667785053159
92.7418459821446
92.8136745869319
92.7676210297157
92.6608939480551
92.6365822747043
92.5344371555459
92.4529072045791
92.3483904149274
92.1277464570074
92.1716947129811
92.3203126088539
92.2224617813011
92.0097392456708
91.9326120244362
91.9514473838232
91.8957421821267
91.8266247415221
91.7560636073359
91.6874994713454
91.6404558637197
91.5907180722878
91.3931900133346
91.26942943098
91.2759870367024
91.2969116201218
91.1585453930494
91.0407725886464
91.0874097742869
91.0585170836139
90.9757144775505
90.966489860435
90.8858858917854
90.8179501968165
90.7242408077837
90.6604243589414
90.5692864434245
90.4873011543338
90.4967505926017
90.3347869865344
90.2996181006335
90.5058748736765
90.5087839125459
90.2456127238721
90.0807506661954
89.9839478841516
89.8810027638821
89.9288915444877
89.9399309542116
89.7201057929467
89.7188677246894
89.793101617513
89.6960797281479
89.5623212214028
89.5186741713999
89.4667861178728
89.3654763377916
89.2679008249769
89.2855821218952
89.2897276593014
89.2222740213646
89.146772572132
89.2145823939414
89.1658606289514
89.0225025804774
88.932725978679
88.8355279843007
88.854946017026
88.9167785408696
88.8288828035729
88.6606399398063
88.5642951807713
88.5421565118048
88.4996271958135
88.4572494757487
88.4303805694711
88.3623331819914
88.3386427732535
88.3091350179819
88.1894604424778
88.0469065259756
88.0097806321633
88.01356651621
88.0377271576714
88.0967589882409
88.0295137438679
87.956363353644
87.8923973268627
87.9682691102809
87.9442103833314
87.8675700026668
87.8929710160228
87.7373484725963
87.6007828582097
87.6852564500254
87.6927305778533
87.6591101986641
87.6799769648855
87.6074022497476
87.503549586735
87.50662285285
87.4996450967056
87.4995023113488
87.4215016760295
87.3585832602364
87.3313611995238
87.4199338831191
87.3880689320488
87.3086291190235
87.2935740270438
87.3553526395022
87.2840191451983
87.203863613869
87.2228389931959
87.2571849312551
87.1801039917143
87.1115896285661
87.1278606816834
87.1226069767748
87.109972507828
87.144943631473
87.0905547752343
87.0088141777597
87.1378095960332
87.2429081780171
87.0948621673192
87.0059839587631
87.0600230476812
87.1055824921667
87.0478485692794
87.0692251164311
87.1040956787656
87.0249354312539
87.0180007406293
87.0196510287339
87.0350919022068
87.1160474895609
87.1666289339108
87.1940170371187
87.1867220294466
87.0353703158983
86.9520785522515
86.9925490758175
87.0575602323019
87.032496814131
86.9323174536389
86.9699924241678
87.0248572075154
87.0026421544419
87.0025402732814
87.0316064163994
87.004002792032
87.0364593409815
87.0913183580703
87.0948761485209
87.0595944401249
87.0550263186622
86.9691727193015
86.9185446599711
86.9619326464132
86.9369114434084
86.8724742489562
86.9551413164266
87.0420177523674
87.0114450040589
86.9518451973129
87.0354516987735
87.04695178928
87.0164398000191
86.9935766379185
86.9714163678998
87.0011109077505
87.0661324843722
87.0952871908786
87.0309536658279
86.9922033990656
86.9907000611135
86.9801292234943
87.0141352752845
87.0212146516987
87.0068050943163
87.0509623754527
87.149801871402
87.1508146329852
87.0802742868001
86.9723270223866
86.9906822036966
87.0548888858065
87.0542111985011
87.0397945727173
87.0489889638313
87.0809966337633
87.1047067559558
87.0876748981468
87.1972026730735
87.2611264870738
87.3005168032992
87.3070214196485
87.2991356265742
87.3122308856555
87.4280162357777
87.3581380725762
87.3090184239057
87.3892534508231
87.356371661801
87.3590559043801
87.437963095119
87.4212766151623
87.383604629547
87.4963738064704
87.6217266253519
87.6300725155389
87.629179311524
87.6064028085386
87.6034090772118
87.700319363454
87.8378849145166
87.9188451940207
87.920089475848
87.8725931263358
87.8845842432993
87.9251359310388
87.9694130030186
88.0281502756428
88.0477318227636
88.0644322290589
88.096640761706
88.0532271892817
88.0991250985017
88.1956742085836
88.2305112104965
88.2517626349723
88.3048421321207
88.2907961915416
88.356730534615
88.4637107900054
88.577670811012
88.5665739492815
88.5401639150163
88.5820027312797
88.5600104730967
88.4920791529828
88.5162655012763
88.5784145052064
88.6563292568021
88.6517471800123
88.6657344663184
88.7631297586337
88.7581771940871
88.7787676210242
88.8789601394618
88.9311235954406
88.9593769299948
88.9693977708277
88.9420856618689
88.9772952010142
89.0977884156777
89.2074096586719
89.1869687270094
89.1308297577375
89.193304270059
89.2575946033445
89.3031747480442
89.3278160185535
89.3302813488603
89.3472633477018
89.3925395948535
89.3909760372177
89.3699401001213
89.4352078295477
89.542270176368
89.5859098447457
89.6121086528498
89.6016576239649
89.6435447370172
89.7983694384428
89.9333703477974
89.9054956226271
89.8714939341923
89.9102103263579
89.9016235312418
89.9100881740245
89.9309160641531
89.9859216091758
90.051831314132
90.0928136041083
90.0718399210754
90.0508710609194
90.1171780291948
90.2446856330052
90.3572065466024
90.363863907144
90.2963543415743
90.2952832685664
90.2962881383995
90.277696502483
90.2795077804932
90.3029055779902
90.361040430665
90.39843590879
90.3787542772472
90.4602035828151
90.5298184434749
90.495207465052
90.4511391087533
90.4473510307487
90.4270852151068
90.4609009215193
90.4823131335331
90.4364377934027
90.4518798109416
90.4806556162038
90.5120022142613
90.4909692730784
90.4546423106291
90.5469508271306
90.5883875804771
90.5746613342224
90.6122642730663
90.6552641826413
90.6414030204338
90.6170325041182
90.6954890884187
90.7338355349764
90.6796201161098
90.6439928569175
90.6604515249161
90.6914729314856
90.7075544050803
90.7613663623535
90.7549322509678
90.6827401543044
90.6847836573214
90.7690409929013
90.7745058303287
90.7966438001965
90.8336362262215
90.9046749771481
90.9509576753684
90.9632255911165
91.0184539032501
91.0573455822073
91.1036933327992
91.1839989625805
91.1942993157887
91.2254810216259
91.2890699427902
91.3358759257009
91.3495340958227
91.3780238504334
91.3793497943455
91.4251685887375
91.4875342590318
91.4786220681874
91.4953452645428
91.6150615093452
91.6355180450065
91.5604185751915
91.619913703208
91.7317501433404
91.7506511517634
91.7201282361504
91.7307773683574
91.7440931423637
91.7103904913264
91.7436200557742
91.8328872407633
91.9064432274889
91.8997403906226
91.8732232158115
91.8710479210103
91.9238054057095
91.9373257559065
91.964617867186
92.0161160835336
92.0750133146427
92.1342520239478
92.1769891309896
92.2155567921126
92.2610789001176
92.2591812486093
92.2653153011374
92.292598264145
92.2942112262731
92.3497518690176
92.4009543862384
92.3892476280192
92.4403303767075
92.5206447410333
92.5321025290225
92.4874050693559
92.4953555374779
92.501569679081
92.6023418012327
92.6638328160437
92.6430507385129
92.6296991950893
92.6660731505272
92.6896577555234
92.7109597926197
92.7837358393606
92.8154328586782
92.793089002867
92.8292834649869
92.8416308926368
92.8366297635252
92.8840366554336
92.9481033052088
92.9262155066125
92.9395649615169
92.9793141607669
93.0194284157244
93.0825205807066
93.0979469462522
93.0950689384206
93.1086084784573
93.0845923593637
93.0317712831362
93.0707911109298
93.1927373998196
93.2012120913958
93.1883795062616
93.2183758630142
93.2196035921622
93.2051403047164
93.243250436676
93.2699306682124
93.3000940007499
93.337509995296
93.3259910689686
93.309110923338
93.3357294470241
93.338273942985
93.3662047413464
93.4107795437482
93.4418561337905
93.44334261842
93.4345485981946
93.443180442602
93.4835617632681
93.4901597516465
93.4973809466316
93.5349489939233
93.5426185517622
93.5140684213464
93.5805185086553
93.62361370465
93.6056580583101
93.6130621366726
93.6609325932594
93.6811815514072
93.6736022492094
93.6741415640885
93.7329569726244
93.7496047725217
93.732178997425
93.7687888445791
93.8119201361437
93.8228937330152
93.8586467376393
93.8864971003842
93.8790442742726
93.8372640278117
93.8453826582309
93.8698928080387
93.9229344591088
93.9501233660558
93.9892311962309
93.9989486361418
93.9918074012523
93.9881778923896
94.0109218372446
94.0384617642302
94.0696421296241
94.1128902772752
94.1489115447364
94.1255337045837
94.107806479105
94.107654803649
94.0810266398821
94.0884429638076
94.1293984924803
94.1065818216599
94.1104027177183
94.1447351052136
94.1393518153201
94.1249884655144
94.177080562863
94.2601434664593
94.2879594255221
94.2729345547384
94.2866379548107
94.2847438568137
94.3105114086447
94.3913238083717
94.4361232526966
94.4018426041372
94.4055377584549
94.4729861942689
94.502640361416
94.515400933523
94.5361450056971
94.5081147382498
94.5329163207278
94.5511392977426
94.5176138322653
94.5301797188731
94.6021253173317
94.624434321398
94.7268546382241
94.7189631285942
94.652278000708
94.7210662906468
94.820887814506
94.801076753957
94.823295042908
94.7965034268121
94.7413525385796
94.7728376838173
94.8469092678831
94.8939753718654
94.9175383568792
94.919187068169
94.9810160042529
95.0355334404885
95.0300569340028
94.9544283022705
94.9763592730969
94.9815555268226
95.0393437770914
95.0911468763626
95.0999761817621
95.087863382169
95.1629446540936
95.2040607511456
95.1055477793313
95.091169572362
95.1867351347305
95.2279671275962
95.2608736577166
95.2393494755193
95.2753403362927
95.3219325715134
95.2322344637322
95.2450900744108
95.347733537553
95.4367415400708
95.4184395265726
95.3089262710827
95.2675684134518
95.2672393967258
95.4020232886984
95.50097220944
95.5080240701825
95.4303812248923
95.3783762149358
95.3480745609349
95.3643984564819
95.4328076194421
95.3568117707962
95.298083210508
95.3838933382484
95.5028826123799
95.6277305893937
95.5983529214016
95.5457571875006
95.4564457784974
95.385948381874
95.3895038994956
95.4119434097505
95.5043662976803
95.6529530292134
95.5653716980063
95.5235025152634
95.5782140415513
95.5430114333893
95.5345450153836
95.6024332046405
95.5993386209701
95.6189552889134
95.640689867349
95.6388863032497
95.6025866594685
95.6243869193819
95.6301018099827
95.6383627253428
95.663482776956
95.6543914510435
95.639003894672
95.6513612149018
95.6508986753063
95.6632802658123
95.6720856158141
95.6958163910672
95.6541964947615
95.6220327703929
95.7149161024144
95.7497674786272
95.7668571763849
95.7492191878158
95.6571040247877
95.6655983844284
95.7179344888546
95.7938797857549
95.7516189738016
95.7064320313743
95.7484436481662
95.7525837601445
95.8018311055787
95.882806339221
95.8362734996958
95.7668899035642
95.7740176381724
95.8160624168613
95.8545986423096
95.7945704552281
95.7578196838921
95.7798352566601
95.7805589256974
95.7929701817636
95.812482985566
95.8208402125649
95.7843459672752
95.7878312921902
95.8216242501821
95.8343801735794
95.8552652473846
95.8525254642439
95.7808487943718
95.7423424539361
95.7833265164003
95.8595410206327
95.8608928533066
95.8074725388961
95.8189178351006
95.8943269471696
95.9719365270501
95.985116031051
95.9031227247061
95.9486807677242
96.054416055029
96.0578376553009
96.014888412826
96.007379707406
95.9700382489156
95.9618602864339
96.0145078639074
95.9592149939309
95.85120524963
95.8618683236573
95.8972886702614
95.9198284950023
95.9282550707364
95.9456627241163
95.9675626507807
95.9085762432539
95.8319861463108
95.8992837448502
95.9591574302114
95.9110371123588
95.7403812693769
95.5845472336127
95.6050403933796
95.7434114731602
95.7898051522702
95.8405501744773
95.896060039471
95.8960328759555
95.8814597309244
95.8801140022148
95.9147259378469
95.9437824239286
95.9246714381547
96.0134280785647
96.0383796612134
96.0060585750671
95.9834751904515
95.9970978513751
95.9990653702363
95.9308758580753
95.9667504572053
96.0678302231526
96.0611645535657
96.1403194231688
96.3742608631732
96.4123540475433
96.2433753822084
96.298766407459
96.3706610947362
96.4493980018139
96.5470641261345
96.565497390367
96.5835490520571
96.627344019816
96.6773407080349
96.7400409460315
96.6000122900355
96.5636487337645
96.7347673415858
96.7370678833453
96.7403142252393
96.8835507751913
96.8861984647499
96.8523097097829
96.8216059438642
96.8670724879144
97.0500113244058
97.3141367998814
97.255525912738
97.1759664288533
97.1555200488668
97.1406155450381
97.1934243297005
97.1499001124637
97.0168802891732
97.1505173681551
97.3439302013485
97.4676456408501
97.5148470796837
97.5411982282579
97.535621420718
97.4982609840916
97.5179211505096
97.6074937718365
97.6306351370568
97.8498542594711
98.0857101319257
98.0230614003221
98.0204859648278
97.9442288861603
97.5706297945727
97.5199606859009
97.8903051307782
98.1866193555923
98.1935346203708
98.2426227606386
98.2523752853476
98.2915006725116
98.4507743804708
98.8550883870159
98.8328705143324
98.3665793614567
98.1999968965458
98.5309918372721
98.9327525535201
99.2486479513542
99.3311484298494
99.2565629918988
99.0039847774575
99.047525583992
99.2827665041363
99.0729417970529
98.9314016322427
99.3376240690931
99.4356822808406
99.1268985817513
98.6693320333863
98.576864503365
98.5915998405397
98.3967687305165
98.3292936599312
98.1040989974353
97.7351717925665
97.9043334462444
98.1571857666767
98.0706294642795
97.8500299349257
97.7234982457453
97.6348452833912
97.6322236910425
97.6468956065497
97.4660773429408
97.2840617393923
97.3280569887219
97.355991250631
97.3926401270385
97.3061178624922
97.183560420588
97.1971844659679
97.3876928573824
97.4685489869485
97.5013552867587
97.6336858092205
97.5544214475171
97.4558654678485
97.4463696487737
97.3818439155837
97.3624959550717
97.4304921594457
97.6071780381583
97.6041780605735
97.5786438771447
97.5612614330358
97.6234725635215
97.6923967802905
97.6986214234639
97.8249987765948
97.9954276240856
97.872402185403
97.8637828602398
97.9609377069226
97.9711677483587
98.0180590449982
98.1082009032249
98.0932376117523
98.2743779376148
98.4169233550027
98.3898516040402
98.3930395339475
98.5047984495124
98.7408996888584
98.9638780825176
98.9133866133028
98.9721900866566
98.942279745001
99.0000294949784
99.1697775419099
99.3557529015109
99.6037520646799
99.8361058604755
99.6938015794818
99.5242855290158
99.598556514732
99.4064022064489
99.1165102062871
99.402753586205
99.3932145600069
99.3071583519268
99.4952717743908
99.6720623813429
99.6098989525876
99.1662268959836
98.9882651914795
99.2012284500003
99.2817522492593
99.2150680945868
99.0263889478199
99.0584203880074
99.1362065291771
98.933457653051
98.6408701432726
98.7160693783169
98.8585165940651
98.8321242821708
98.6930384126058
98.8289029103993
98.917230864929
99.1026387778872
99.3176854278487
99.1819950445806
99.2100391162084
99.3996117607138
99.3674551816925
99.3153348489757
99.0163230371998
98.8254278919016
98.7825413604375
98.7878364494064
98.7943515297151
98.7466871211218
98.5719865840305
98.5861510924854
98.4051873289649
98.0790466833392
98.1781487649622
98.4164549875077
98.3530366967156
98.2403747484132
98.2151121234912
98.1816088694788
98.0861058117813
98.0970765438075
98.1437488535112
98.1652462348274
98.0785123289228
97.9897906555426
97.9510334996459
97.9439175181897
97.9207710212196
97.8870323726272
97.9324278578553
97.9299296240647
97.8420990005933
97.87447535855
97.8973560575603
97.8653848807512
97.8328314862597
97.8151438349016
97.7734923072072
97.7040061178008
97.7049240571613
97.8096023175828
97.8488670128143
97.8031993889669
97.7423771896458
97.8116205897717
97.7676550787357
97.6230929660675
97.6203165868947
97.7244433160265
97.7550666735178
97.7518009358736
97.7225982217317
97.6526252940256
97.5657577210875
97.5567436509429
97.6157802514558
97.6606726468053
97.6928590916806
97.7385530223545
97.6950291721663
97.6868237696225
97.7030403716488
97.7337234101569
97.7463698577924
97.6932899450461
97.6193676080397
97.5818966382801
97.5939976972073
97.6809395996436
97.72591798236
97.6623654179343
97.6307630734696
97.6672750955046
97.669174427743
97.6247515905919
97.5700874552255
97.5358492567214
97.5524464546679
97.5911846917482
97.6110613999272
97.5465593960169
97.5480567617607
97.6018636160433
97.5596227351113
97.4818347607476
97.4721290684504
97.5057192850102
97.4586551033179
97.384689021738
97.3249877519824
97.2339447347004
97.1790139037699
97.1917598444678
97.1128438191894
96.9538250205719
96.8791742446108
96.8497757653877
96.7676514752529
96.6359651901102
96.557356319234
96.4556438689007
96.3079905913419
96.1516391378689
96.0685920496191
95.8882817567813
95.7192896650047
95.6387327416823
95.4844723440917
95.3714243194065
95.312252379027
95.1640694823832
94.9727296466367
94.8983533986654
94.798152453369
94.6992829439188
94.597389320267
94.4356024894198
94.2879295703743
94.2771735917733
94.2119647901531
94.1076824499663
94.0305411472489
93.9222284610837
93.858641271162
93.7926646705652
93.5300330678488
93.3380553261843
93.410768161421
93.2871391535618
93.0003101294231
92.8325402968224
92.6324858406453
92.4687157790477
92.2391910009857
91.8810423639154
91.6508578956305
91.7079567555319
91.5137758521428
91.1980696192008
90.9284489853581
90.6492240023942
90.4438896247924
90.3546401369516
89.984232699779
89.7129388893672
89.8450588434095
89.6158525154153
89.4073057795742
89.3546287044429
88.9333492426347
88.6295677912115
88.3796451137048
87.9085102092557
87.9083791966734
88.1669204493969
87.7731001160267
87.2642780344908
86.891752421147
86.7740026147322
86.6370514496489
86.139946815357
86.0026605695721
86.0163366878125
85.5442570892407
85.0564156124643
84.9824098629623
84.8359015027612
84.4093142410285
83.7760912378632
83.1983515783436
83.8478844441077
83.9970418566007
82.9314759540251
82.4710530749427
82.7223087071411
82.4161190764123
81.9171213050644
81.481263571951
80.958455148761
80.919224103916
81.2872257233271
80.8414052790502
80.1475363740239
79.8246307951612
79.6167385652511
79.2464797189218
79.1606162221674
79.0364135012816
78.3174202215207
77.990198161834
78.3075594715383
77.9565349570676
77.3044067234644
76.9737520490283
76.7663579306134
76.4941356068143
76.1419775125101
75.8645191052002
75.6443594326887
75.3629557668995
75.0580895347021
74.8326071098722
74.6505255885136
74.4056954808552
74.1591463111671
73.9690897642056
73.8007271298207
73.6270129858624
73.5067969254697
73.2327359928432
72.7047118176459
72.8797941972573
73.6375842453396
73.1415377940653
72.5872039083001
73.1081090301721
73.3286366114212
73.1171095760088
73.0370495660801
72.2780281367768
72.1527892906823
74.5113078038633
74.7937587981497
74.5000666682044
74.6306528995165
74.7834865270237
75.2076438047859
75.297874742608
75.4325118389021
75.764244931195
76.1491614377299
77.9656221284613
78.8759109710222
78.4119584663326
78.6342804401361
79.6658768916252
79.9308459887083
80.0390668773573
80.5678171531589
80.9532819888135
81.1574264635
82.0560631206902
82.5757803379122
82.7629229592075
83.3548971914934
83.5685125362831
83.6508211691334
83.5273200724194
83.5868388785638
85.0257195018057
85.6561433229004
85.4024408028165
85.2887184911159
85.4789882448851
86.0121537133179
86.4185086315192
86.2953528292326
86.1700797865562
86.5220247324697
86.8569090605315
86.9683345853596
86.908644067301
86.9016966746296
86.9263550415721
86.810513660354
86.6638851238542
86.5396506407558
86.6212612802453
86.6967537877891
86.2723990182457
85.8438606028228
85.7882072389593
85.7651374870881
85.2873194380666
84.7195319403069
84.7752488583881
85.0643802776887
84.6739161257394
84.1805747485611
83.8589300377817
83.6676455233724
83.5684968401534
83.2432653302303
82.9585622579747
82.6445500339889
82.1991295486752
82.0922912914791
82.1837672094975
81.6661422227134
81.1947826102366
81.0373063164063
80.744690801124
80.2953318606737
79.9847774245076
79.5675523135785
79.1442659745734
79.2274037536919
79.0399737021808
78.546066244742
78.1808636625895
77.9415876750246
77.7258224071268
77.4125277881882
77.2875523935586
77.2176868856981
76.8820738504416
76.6667086728513
76.6704217792278
76.5468717332518
76.7143939536754
76.75152386517
76.4333645405245
76.3228556391863
76.6096300906397
76.7616867842381
76.7045960490254
76.7411708660503
76.8338684308289
76.9119245174089
77.0048983782524
77.3525138628501
77.5915114516419
77.6600653468482
77.9016980091977
78.0523854339775
78.090305906572
78.4227064015989
78.8521488899065
79.0411333671565
79.193392840602
79.4046733340285
79.6448121300658
79.872457478988
80.1126984038224
80.3499816843194
80.5632205790094
80.740142778283
80.8545655980699
81.0341537242635
81.3435810911651
81.56128055258
81.7001236861861
81.8399096338001
82.0028994767197
82.1497854206514
82.2880515250294
82.418659923634
82.5396452846711
82.6477498567546
82.7618973053652
82.9034764452993
83.0185994475671
83.1012681293922
83.1951657770597
83.2828546651923
83.3728554112402
83.4802546139343
83.5802009720832
83.665970628713
83.7508810863123
83.8047632143372
83.8562275080586
83.9568821548814
84.0532501749623
84.109582467892
84.161515905692
84.2173692457528
84.2660340953365
84.3009134864212
84.3286020866196
84.3621393130473
84.3800758055818
84.3911686126037
84.412666082628
84.4090830678162
84.4323309595364
84.4547338447552
84.4319863566725
84.4422234635765
84.4852105085619
84.5132217352651
84.5389599433066
84.5660209984364
84.5916213080621
84.6247592126804
84.6695058651059
84.6969457661873
84.7017823348433
84.7173355715439
84.7418781259893
84.7568261735609
84.7630559395823
84.7738775257603
84.8026570683682
84.8262279094339
84.837543304213
84.8475524573379
84.8822555322114
84.8976661195556
84.8929173603051
84.9049408854581
84.9447508037172
84.9852716300721
85.015551254354
85.0414553174475
85.0906368001311
85.1440774091393
85.1740130581758
85.2156219264525
85.2847861996446
85.3342787003209
85.3601031132774
85.3980335123125
85.4549108673788
85.5162847560723
85.5591834286105
85.5922976817881
85.6252433460543
85.6445730024546
85.6691542522812
85.6787383145289
85.6772697587681
85.6862977467055
85.6890649031992
85.6637530080228
85.6540685547788
85.6430869614577
85.6062567243889
85.5621906393242
85.527094019186
85.4916458325381
85.4397273051763
85.3914956713788
85.3348885344159
85.2649950590014
85.213195419849
85.1757332631194
85.1072737654912
85.0277428465351
84.9722577597802
84.8787916772021
84.7590186094756
84.6749367597278
84.5992311381683
84.5089408758616
84.4047189216647
84.3108605566724
84.2065898333605
84.0544819790098
83.9043883481556
83.7429209025754
83.5810250902725
83.460541244121
83.3560715864667
83.2169157803718
83.063018136209
82.9399272631882
82.8284541317297
82.700649588179
82.5762886559107
82.4515045394312
82.3201083143897
82.1821916613934
82.0455673407747
81.9131596175868
81.7847341808178
81.642417699735
81.4914206387845
81.3303753901033
81.1859137092239
81.0442497816007
80.8959300016055
80.7498932468925
80.6207077739769
80.4874069265918
80.3850305103455
80.311293392487
80.2072850444916
80.0931959236049
80.0179461549217
79.9447622539015
79.8835609850624
79.8412604349166
79.7907310272965
79.7347053040506
79.6790304614569
79.63295492873
79.6130489226249
79.5729527503671
79.5109851106133
79.4626705520509
79.4157694970585
79.3512888511281
79.2892994228768
79.2290121289848
79.1662125438795
79.1104999542831
79.1063978072084
79.1176038845592
79.1280384149623
79.1872243022398
79.2601193192469
79.30451979189
79.3700680652123
79.4662574249543
79.5688729076634
79.6518649051781
79.7424725001119
79.8257221273306
79.9079486548786
80.0003964955851
80.0975770911849
80.2014018112509
80.3230898956015
80.4435344953497
80.5818499137522
80.7210115132138
80.8788183072306
81.0498301131763
81.2217206754016
81.3870571241943
81.5891450057339
81.7970697128314
82.0166645327334
82.2549709005988
82.4860260689576
82.7076388174295
82.9558379440702
83.2073697816189
83.4443045727994
83.6501340621377
83.8645946477353
84.0774761937107
84.3070122860421
84.5265998178497
84.6976099753008
84.8661258604427
85.0381983565156
85.1785649257404
85.3118705163346
85.4284686104377
85.5206904045135
85.6534590857085
85.799336351279
85.8695774714548
85.9161833719932
85.989226253312
86.0840210960115
86.1738618191472
86.2634007987702
86.334598501656
86.4238232431647
86.5239750738179
86.6134468586046
86.6975780478979
86.7750809434123
86.8670830143788
86.9604001779304
87.0380137237534
87.096667979649
87.1439722068931
87.2086165947354
87.2596439983701
87.309941031013
87.3586490115857
87.3962019902594
87.4349476190859
87.4784350036638
87.5011808431588
87.5422999834151
87.5514237341764
87.5152281113573
87.505681952427
87.4914094451407
87.478938790829
87.4631570175936
87.4514129599074
87.4469180510037
87.4182517578278
87.390840849772
87.3448017668402
87.2769430060513
87.2339843249445
87.2322401794055
87.2020591109317
87.1628268188215
87.1062241370883
87.0470619600515
87.0197549296279
87.0222796076311
86.9851692174067
86.9251290370955
86.8709300947012
86.8052945882314
86.7494614315932
86.7203996765733
86.6736929027097
86.6304189091405
86.570450908132
86.4766085216413
86.3880941436727
86.3108346298376
86.2076179012518
86.111481595913
86.0276630321452
85.9341552092052
85.7952696132007
85.6524207883402
85.5237253996819
85.3903572333307
85.2424033044772
85.0737305863949
84.9202063803445
84.8075720064867
84.6555745626975
84.4960168781546
84.3551009044132
84.2398020162389
84.0928605190039
83.9510736206201
83.8393844314268
83.7218915530078
83.5804806681622
83.436628711261
83.2953534515845
83.180009252781
83.0510655572301
82.915615837028
82.7683730870899
82.6131235079716
82.4764630249406
82.373491474057
82.297676434928
82.203127442092
82.1086495241223
81.9953515221947
81.8921565339021
81.8664369708843
81.8262434088364
81.7454600559382
81.6592807808331
81.5917277437729
81.4970235773575
81.3940351208854
81.3381652754692
81.2692041812559
81.1868322007549
81.1525427876561
81.0939364976508
81.0052199274756
80.9222111995299
80.8895128955904
80.8082842109694
80.7081536360002
80.6241410710146
80.5339235835962
80.4307015490013
80.3551620868257
80.2729815673676
80.1891669753209
80.0995915451849
80.0185637131796
79.9289207646677
79.8507064092471
79.7272391835552
79.5897441727681
79.4810537396889
79.4114189252938
79.303187682205
79.2025406807454
79.140667510964
79.038468031229
78.8639278160544
78.7762371634549
78.6737800009435
78.54554001298
78.4193033856731
78.2974020426705
78.193457317292
78.1087476913255
77.9698652834457
77.8570084362644
77.7142484554315
77.6059786753083
77.500859581987
77.4029223393947
77.2856411773507
77.24764590215
77.1977198952734
77.081418091958
76.9277143319838
76.8609639607169
76.7727501320712
76.6545476935381
76.5513287391624
76.4711488005668
76.3335845966105
76.1887896023386
76.0327963635626
76.2696977287328
76.0728726644185
75.7824386383111
75.7481180815179
75.6345174273994
75.5054661552605
75.4303439584103
75.3232740977704
75.2025295443953
75.1076801528769
