1798
3999.43349933624
650.420452594757
1
128
4
94.2209676400492
94.2646208645447
94.2644212649623
94.2609038910974
94.2854706400851
94.2556668036722
94.2036112674136
94.2418512883397
94.2519252044052
94.2945714295702
94.2565779660976
94.2808702507267
94.2654622154895
94.2495363516867
94.270823325904
94.3017264905175
94.308471411866
94.3982213166561
94.3013448373749
94.2120373182211
94.1083948530307
94.1790334002048
94.2770393789282
94.3205803995842
94.3411124500857
94.2841964261209
94.2481616371088
94.3230097781798
94.2941563527705
94.2404485951084
94.2324868417835
94.2538750867884
94.3204968667787
94.3896879776544
94.34858942821
94.3092343239093
94.3659708612639
94.5189216231363
94.4109868226961
94.295580769836
94.2848073306858
94.2883545246319
94.2478836686321
94.2956637466989
94.3332072197463
94.3307969295186
94.3560571171632
94.4493149564589
94.4663882634631
94.3940141920604
94.3157865180938
94.2979490008427
94.2905251523833
94.3735752798238
94.4230558521721
94.4084212154712
94.3158538273166
94.295836088962
94.2755197631571
94.3525175267141
94.3421922461782
94.2938566697811
94.2844735537104
94.3511234837049
94.4303849771699
94.5206062176913
94.5278075815366
94.4522595507872
94.2953766411366
94.3487910870289
94.3607913126998
94.45794269034
94.3674244360871
94.2446232028968
94.4207409459398
94.6186105700376
94.4978064165844
94.3212334675247
94.0756976393425
94.1308396096002
94.3909215900932
94.5580814538944
94.5779528383993
94.6147258515235
94.5245002802938
94.3952267224279
94.3390805838898
94.3813796409625
94.4228929035836
94.5234891789702
94.504274577953
94.4827197939429
94.5346419427716
94.6022538433625
94.5602003765676
94.4832205436681
94.3604373500982
94.3793468989311
94.3530492500215
94.4277172545586
94.5827133580315
94.6250007024497
94.5161773956324
94.570999693199
94.6692057987758
94.5833529774811
94.3732450480592
94.4091820680584
94.4394578781102
94.5114985069177
94.6415587020489
94.5967788507547
94.5660746403145
94.6190476465474
94.5863095760206
94.5869944359309
94.6127126777798
94.6502687844688
94.6580679750248
94.7123269145612
94.6896933637769
94.6246100870055
94.5560291697396
94.5503841940985
94.5418230201599
94.6975330187236
94.7055964496488
94.5881300312305
94.4979119087753
94.6562923326624
94.7921903082581
94.7789843662568
94.698156913163
94.666848422383
94.6177766352967
94.6859111501796
94.6533130432572
94.6139139680036
94.7897102827143
94.8156217759517
94.6142007871368
94.5072106909649
94.5085895618269
94.6553386751935
94.7454454293058
94.7724206188933
94.6151775245109
94.6271659458506
94.7284831080609
94.8358158320683
94.8752153257489
94.841642681461
94.7461974898383
94.6978817768698
94.7694241988039
94.7361671930072
94.7485730963959
94.7808803500192
94.658913726244
94.7271347252324
94.7707999208101
94.8379163821674
94.8321356083227
94.7916326527127
94.7539446764923
94.8658250056267
94.920409842591
94.8593898662521
94.8512952535014
94.9519590101397
94.9721359994967
94.9351544668887
94.9338219327156
94.8718701879399
94.7054431045717
94.5891535827728
94.4626831962194
94.5500936254181
94.6826389937101
94.6907638377719
94.542046068079
94.5898491422731
94.7222103432304
94.7504613543699
94.7224793359353
94.7473600335561
94.6464447449957
94.3791199760357
94.1968068197079
94.2877787113381
94.3441279374183
94.3237026970958
94.3106340171329
94.4083470039769
94.411038572082
94.3110603814656
94.162292152459
94.0956716110538
93.9485997095685
93.944984173925
93.9359443342677
93.8889733961252
93.8343731717681
93.7858463600022
93.650775834837
93.4970637069629
93.4829268286883
93.5452432189471
93.5247891811139
93.5598653826638
93.4887217085764
93.3924939675995
93.3058439991226
93.2961289086313
93.2280497449961
93.1972334435681
93.1351306615548
93.0432702824825
92.9164805406969
92.8943875377879
92.7646825192023
92.6187516025573
92.6491401590867
92.7259674014687
92.6850752126302
92.6370993762507
92.5415027412432
92.4793925164084
92.4142357136355
92.4448689523972
92.3151236789919
92.0507150772848
91.8291475817637
92.0021943156208
92.0092978067196
91.8231451306095
91.7039067574175
91.7685335355169
91.7284809456698
91.6725552848534
91.5914221000362
91.5191301113826
91.4115474725315
91.3307869693739
91.3343083365378
91.3799339096714
91.3382057890647
91.2356973343775
91.1557353504881
91.0651396955702
91.0617726259085
91.1717028640085
91.0748886248772
90.9113758060569
90.5971793657509
90.508400308523
90.4928808279139
90.4176458125043
90.4340688043235
90.4513178342102
90.3675903622675
90.4280312983488
90.3267656215383
90.2580834207125
90.1717296793599
90.0930391475647
90.0211974301952
89.9649048140743
89.863945456888
89.7987601404632
89.7298023059181
89.6897569045369
89.5332831466529
89.4282299788232
89.4457854233068
89.5035336259722
89.383748835904
89.3422794241355
89.2393019827399
89.1868936219792
89.0907185825186
89.0403283784544
88.9320166868467
88.870053530966
88.8246888520324
88.7319747717588
88.6487658727733
88.6777381121359
88.6543434852056
88.5852634833491
88.4785100674725
88.3892723162338
88.4770186985407
88.5118975350452
88.268548550357
88.1763283314609
88.2325534248587
88.1812364648498
88.0924713241333
88.0581893164028
87.928989092261
87.8166526081744
87.7663362144455
87.6921327996143
87.6226686206983
87.6908900583751
87.7051166294588
87.6575863999031
87.5389711070649
87.4546697204697
87.296850260186
87.3205090832782
87.3895179068431
87.3218712113171
87.1729489856607
87.0940010351565
87.0495938422135
87.0488592908945
86.9349400269489
86.9225336531222
86.8972253996971
86.8854741902559
86.7831578008143
86.7680551095448
86.7354733238852
86.6733422538287
86.6286101322928
86.6242199115506
86.4664618743187
86.3870345067917
86.394047664133
86.3885464517264
86.3372466457398
86.3527060600018
86.2252897226271
86.106513497048
86.0990958173641
86.133212838808
86.1108097003928
86.191789145449
86.0803071718163
85.9382133379751
85.958077640197
85.906091101148
85.8057183509298
85.8828712012515
85.9374893711568
85.8604172378876
85.7429105142584
85.6245584526819
85.5225767739759
85.5674418857795
85.5117117899961
85.5189855305631
85.5536490499337
85.580482945078
85.4490120319798
85.3587217975648
85.3410284169643
85.4178442877683
85.3726188364693
85.3230025505074
85.3182791620742
85.2441227681853
85.1509904857432
85.1932380482796
85.1905198895861
85.2086369246847
85.2638691291947
85.3411573827123
85.2850330609915
85.2394668148973
85.1374350214609
85.1423799397782
85.1343793678151
85.0967083216039
85.089951615613
85.0618269349547
84.9739410423912
84.9730102166908
84.9642957124615
85.0152739190629
85.0545644196176
84.9617930138404
84.8687899917252
84.9622779070418
84.9122786083741
84.8567684096508
84.8549501256326
84.8145325178268
84.7902175772664
84.9167155446846
84.8725437809223
84.7780835977095
84.7878800520393
84.8653597831009
84.7625494162765
84.7834303133023
84.9316388483395
84.9464585454878
84.8568486009563
84.8369485873811
84.7921279014746
84.8718971729446
84.8993086779425
84.8858092318461
84.8535821707659
84.9080661736337
84.9388490425464
84.9020592594029
84.8966795307512
84.9513681493364
84.9251100414922
84.9601413795578
85.0105473821358
85.0865105898626
85.1270061521593
85.0783381720069
84.9995242728786
84.9989638197256
85.0166345822625
85.1145949015089
85.1245983895113
85.0622007858704
85.0406940393171
85.1436449575147
85.1631057571527
85.2271823614966
85.2792995636908
85.2418623264914
85.2394522129489
85.2515455348201
85.2102904327813
85.3196855084173
85.3697638978338
85.4098040118107
85.4414771694226
85.4057899469362
85.377220017947
85.4207572672226
85.4538640846914
85.5570379581906
85.6517209165739
85.6336981668534
85.6347055082978
85.7227588892669
85.7419496501936
85.7870283572806
85.8573657837718
85.8623363248929
85.8888458597945
86.0196493401678
86.0245565337968
86.0357247245478
86.1468223218451
86.1692030090861
86.093832190917
86.1841514961311
86.2359848801669
86.2402858669705
86.2417932582362
86.3848262488527
86.4145049306967
86.3807684341296
86.3245668414574
86.3693690140994
86.4646029575925
86.5690287068101
86.5691201509783
86.5636069267804
86.544293086174
86.7091243173456
86.86223858966
86.8804433469044
86.7750297207992
86.7501383671501
86.7889010021084
86.864117647239
86.8905954727713
86.8357233652768
86.8134329680675
86.8939195258038
86.978897424837
86.9966589227289
86.9834679946459
86.9753705481913
86.9539737103351
87.085854046358
87.1390355683013
87.1692461232321
87.1989905834314
87.1991982139449
87.210164552224
87.2765861522484
87.3072869875207
87.2560893332861
87.195875288227
87.2758874330831
87.3285999331896
87.3120930932212
87.2902482281561
87.3175657992781
87.3478679533955
87.4126692621835
87.4620156784032
87.5659060266209
87.5964503982463
87.5571450272888
87.5351082460934
87.5502500874153
87.5723554233814
87.6461075130709
87.6804083161848
87.7854705236604
87.8041953440629
87.8277739277981
87.8984097731757
87.9509230701632
87.9376965741336
88.009939014141
88.06369459367
88.0852405688774
88.0123981718703
88.0204668696835
88.08428925286
88.1375071824253
88.1881042140189
88.2668171475305
88.2775895528694
88.3286256081865
88.2945756024984
88.26471969164
88.2609696623644
88.2486021882979
88.2150985064626
88.3319281103907
88.3910387376309
88.3580147458816
88.3584120684592
88.3313478310406
88.3378943114921
88.3542354490112
88.3340830020933
88.3777942867692
88.4005588681902
88.3713491233862
88.2897911899897
88.2543449271043
88.2428529496337
88.2267885904211
88.1848463388103
88.1245651342608
88.0393836743063
88.0304825083994
88.0281655102845
88.0129584776937
87.9335605836656
87.8617894045578
87.8610111290135
87.8884765043444
87.8174429577165
87.829849340249
87.8304736645911
87.8401791354385
87.8030620728133
87.7846326531541
87.757149237523
87.7296838693802
87.6995367401887
87.6434027422178
87.5156501910995
87.3977522959003
87.3133764686835
87.3490580770448
87.3946943726187
87.3968113973055
87.385823025316
87.4233420371288
87.4921472517539
87.5193643544623
87.4977176200415
87.512054759963
87.6056570000636
87.7115342104691
87.7603617633003
87.7845494139276
87.8069958441384
87.8816057657037
87.9155835517686
87.9456821382641
88.0022883803464
88.0941254395383
88.1219804188857
88.1469447968498
88.1386408566094
88.1286336046291
88.1152459861841
88.2017752388353
88.2894437976403
88.2233145277957
88.1481530861151
88.2080227555483
88.2772994232672
88.3796152089253
88.470253279377
88.4618771569035
88.441082386551
88.4655506808331
88.4589318834631
88.5088136451334
88.5756756429489
88.5900629053947
88.5519389414607
88.6063280516467
88.6209798740812
88.5859930725123
88.5769115992891
88.6743258579294
88.7974601741194
88.8196871664196
88.8264313076708
88.9545963487524
89.0107777843915
89.0587654815867
89.110108496407
89.1408858221938
89.1679961291277
89.2219097392474
89.2454076703862
89.3038809930815
89.3978852064061
89.4653610955194
89.4284907035825
89.4605528188508
89.5288959727926
89.4901361899834
89.4973448791932
89.5448517856209
89.6156190949014
89.6579748940996
89.6617798894869
89.6580425059793
89.6426425418207
89.6874559213361
89.7916276934472
89.8301103328308
89.7937609965602
89.8101232675974
89.8539866148741
89.8850836565619
89.9081277557508
89.93608541398
89.9400956213975
89.9872556995788
89.9886411441591
89.9337532461784
89.9290051457758
90.0431197948536
90.1255551648859
90.0878269557228
90.0698750389741
90.1067369073979
90.1838103406529
90.1932695099419
90.1155897630866
90.1399372553177
90.1916875684967
90.1887355208329
90.2043381011792
90.2597424993962
90.2514946026925
90.2455976596907
90.3039544169885
90.3302408649735
90.3276202448611
90.3580717107032
90.3682474342638
90.3771045193693
90.3588133832657
90.3524604493734
90.3916533310731
90.403590155821
90.4294572377212
90.4890417960074
90.4870171419179
90.475484883807
90.487374764038
90.5368941041863
90.5649598992393
90.5441138272553
90.5209601472557
90.5577845846533
90.5864263399124
90.5993024604972
90.5740762279568
90.5828926923773
90.6482741137023
90.7047146645482
90.7232171763854
90.7220840633418
90.7302474975567
90.790596591406
90.798831431467
90.7432563314186
90.7003465182092
90.71558075944
90.7244201344461
90.7633891517643
90.8238903955948
90.8360888512064
90.8169008256217
90.8407448810069
90.8608898687249
90.8831989604785
90.9204968418122
90.9475231645237
90.8985017422053
90.8389811356221
90.8630258338408
90.8827399567004
90.8709500537472
90.8986947152013
90.8910143286649
90.8459249607289
90.829233978343
90.9028149971976
90.961097567885
90.9729291159174
90.9653402617898
90.9614301958431
91.0048715478696
91.0809771743234
91.1142685576706
91.0945578661957
91.1151840330888
91.131226581729
91.0962301103473
91.1775102503511
91.210290732117
91.2134393827929
91.2609309906101
91.2868579362169
91.3026709404037
91.290202628634
91.2870046805777
91.3221350716566
91.3791378228905
91.4042682214901
91.4093614675298
91.4617055618155
91.451558518785
91.4637488398564
91.4664726113427
91.4524833535291
91.5493927530874
91.5592796087824
91.5086088713471
91.5510809573316
91.6397611338973
91.6440847592029
91.6063872031666
91.613003897908
91.6459792935927
91.6960887671142
91.7081367910139
91.7002626597172
91.7109558142424
91.7523018875376
91.7315642689793
91.7214067599793
91.8117037000188
91.9057500383402
91.9562679429623
91.8931539530246
91.8398891270845
91.9018533309154
91.9060005561151
91.9072657320474
91.9896296578153
91.9938673284836
91.9264268787472
91.911419579107
91.9220637911032
91.9570404537307
91.9141621143139
91.9296605145256
92.0142510653637
92.0396180776176
92.0453799153315
92.0949918345199
92.1120787450107
92.1128729803311
92.0641814597513
92.0739551099208
92.128341124854
92.0739085243884
92.0994973964159
92.1338200655184
92.0901787336284
92.206418696732
92.1513629681751
92.0624317890023
92.1658956705647
92.2562527253009
92.2302528384964
92.3076218405839
92.3402976989476
92.21130367494
92.2082022837602
92.1572291025741
92.1111083120828
92.1607802898136
92.1874924214665
92.1878555913197
92.2234218583163
92.1933377252558
92.1527065144153
92.1861808741265
92.219956387571
92.2767356928105
92.3639282961085
92.3201419969142
92.2824932307158
92.2429103258116
92.2674086059349
92.2897691921174
92.2874820366382
92.3215649019845
92.2945079562886
92.2933662647988
92.320425786927
92.2969196166526
92.3697702597541
92.4329925605417
92.4198512229884
92.4513292402811
92.4437686622864
92.3065961778089
92.2711846687731
92.3439014277434
92.3664572255553
92.3671494992208
92.4221537176589
92.4578099836033
92.4335551748416
92.4165821446369
92.477217907513
92.4905480419837
92.4821752143207
92.5089182093834
92.4847855625374
92.4600633726949
92.4940957229499
92.5663351876597
92.5594103990899
92.5403439976292
92.5480037375132
92.5248212967167
92.4735352736283
92.4804782851528
92.5081146960419
92.439938530295
92.3923497198356
92.4119313274857
92.4018619082435
92.4593015721995
92.5147353403224
92.536322423506
92.5357640808676
92.5201496658587
92.4744227901718
92.4875100212796
92.5124656022143
92.5067526657285
92.5974656994108
92.6254886618947
92.5596898412947
92.5223031926775
92.5871572447863
92.5279582852718
92.5029527366862
92.5601081016995
92.4844033807921
92.490376427836
92.5781473194706
92.5819145060484
92.5182581178568
92.4286892054574
92.3835117256243
92.433658923478
92.4772947734477
92.4359619781237
92.4445761251102
92.5140264511514
92.5436515055217
92.5063989029442
92.5145740556077
92.5051023386734
92.4390418227875
92.3134500655529
92.3136815597937
92.3951718246626
92.3985231103046
92.3959219066938
92.460182773129
92.4864154587198
92.505257426653
92.5695125117369
92.5549051143358
92.5675416660015
92.5960324435546
92.5880268091463
92.6143387167299
92.6038503673034
92.5829657420991
92.659039451078
92.7063022053605
92.5935527432062
92.5783396482841
92.700279548267
92.8264113217337
92.876282257302
92.9411456733638
92.9750087119768
92.9462218243279
93.102927557931
93.1561674732051
93.0007887178524
93.1081825244847
93.2032784051508
93.2470852476136
93.2791759801062
93.4005631190788
93.4826203636974
93.5009541159398
93.5864196651968
93.7377724413292
93.759961920878
93.6844647772032
93.6500896938521
93.783729030093
93.849979927856
93.8322591302764
93.950529294173
93.9857694047803
93.9496936817574
93.9558908844422
93.9683768244494
93.9353696660179
93.9593797935385
94.022081254697
94.1428102468137
94.3314624423054
94.3677493305005
94.3441934726164
94.4273890937218
94.3949712128684
94.4066044041723
94.5783846975036
94.5870331495243
94.8142742702153
94.5539222547129
94.42363419097
94.7324725724802
94.8307248285096
95.0502620639677
95.4696987886483
95.4054140200668
94.9958958840537
94.7814589239209
94.9396343973464
95.1808565268409
95.4397860762181
95.2738399907886
95.2169699264784
95.1503076323848
95.0817872779451
95.1633810164678
95.0976961803096
95.3321341242229
95.6938752799899
95.6377138446367
95.6961699026114
95.9680926088265
95.9039137990105
95.9949050701027
96.412711649797
96.589268251226
96.402630722336
96.2779665620345
96.6518482458948
96.2084825359203
95.7334512902654
95.6002108383101
95.5357517735744
95.2157074307234
95.0536939227514
95.2009975591513
95.1199719072707
95.0848588573454
95.0492030191392
95.0030679000972
94.8688700647102
94.5789218329053
94.6118995611731
94.4014483957559
94.0465491874524
94.0827718126231
94.1498730883612
94.097956067083
94.061888671557
94.0333830473182
94.1611887050296
94.2444006587557
94.1328238072004
94.0042782044267
94.2350007405793
94.300968112976
94.2408959114438
94.2437002149445
94.1756915792686
94.4066302975935
94.617469751465
94.4510790421738
94.2321538481496
94.1237482127312
94.1434400265544
94.1512361127033
94.2680906132969
94.3155272665694
94.3303130137841
94.3929539585958
94.5098312863031
94.5243216885559
94.6725957505137
94.7929344443416
94.7040424481273
94.6397605075932
94.6528088960271
94.7409965224182
94.8595943279146
94.9961595713192
95.2160284469622
95.4317190654429
95.4674553605801
95.2177675166737
95.1476022394864
95.5391923153807
95.7605120796152
95.7305447495183
96.1660909633707
96.1790273680947
96.0121642027996
96.2581558303339
96.3874077465571
96.236093352875
96.4088694613847
96.5722054990192
96.7348505204972
96.9550156500906
97.0049344496754
96.6667054151883
96.3825768193356
96.5575092633968
96.4656678241576
96.1129566111553
96.3308219520661
96.4755970099767
96.173938744949
96.1743723799643
96.1401646510206
96.0729051419567
96.1660019880852
96.1352794485784
95.9213160907174
95.7695607558144
95.8651770135186
95.8665967974348
95.934294768507
96.0457819566329
96.0508700615821
95.9423602633491
95.8034605175136
95.6861629260063
96.1475153594852
96.6841356109508
96.4028686953686
96.1612649574984
96.3739947579725
96.3613754310589
96.2825666050736
96.3172891220113
96.0876428340939
95.9630932180866
96.1381717892727
96.0438205717053
95.6792445098553
95.4310950070646
95.3811965871619
95.4421203330723
95.5166129078574
95.2996744865758
95.0988239204065
95.1049072494336
95.2568434021519
95.1527593325706
94.961125067847
94.855693034901
94.8084669156857
94.8490881485687
95.0324844991219
94.9600075784989
94.9484540640741
94.8441828382802
94.782725258073
94.746340526752
94.5372071127129
94.4413421972794
94.6599532073231
94.7148759464115
94.6641851276195
94.6257926364895
94.6564805620849
94.5591705442291
94.4341112476734
94.5071832291188
94.6189853175924
94.555889598346
94.5707228215622
94.5377759828426
94.4525896642398
94.4612703927628
94.5129384968944
94.5716144775177
94.6444486920284
94.5103273028794
94.3794917429057
94.4365376291014
94.5058015602241
94.4632010069578
94.4980357256976
94.5349298336426
94.4745376452692
94.4087468748175
94.4744706991516
94.4799472733328
94.4989518413481
94.4978467068933
94.5080578086482
94.5227325653764
94.5384066940574
94.5198853399744
94.5189927579985
94.5044967636549
94.513897851686
94.4458430678834
94.4336593419673
94.5129221076559
94.5129943942442
94.4621837502316
94.5086997597818
94.5924756143843
94.5818202223137
94.5268165760496
94.5261969983595
94.5533596602511
94.5800212444238
94.608094088153
94.6033636795126
94.5468670071789
94.5601040461071
94.5620128745363
94.5675557770233
94.5299425056352
94.5130014083009
94.5456747516176
94.5521689168802
94.5484331330456
94.5555233516007
94.5116816184784
94.5246518434406
94.5417772566006
94.544815353842
94.4487138115659
94.4306337371335
94.5430385823893
94.5514662950211
94.4665798015897
94.4033819375785
94.4008556246516
94.3532150199571
94.3381960378591
94.3940930901008
94.3241610494722
94.2094392210263
94.1871389126182
94.2162710188864
94.1819953387792
94.1569184680189
94.032944419116
93.9185772023691
93.9071919093795
93.8778274163312
93.7648759256065
93.6737399839361
93.5261717920127
93.3935864282618
93.3285098975203
93.210410171788
93.013411647747
92.8757130417766
92.7606917804065
92.6563833809725
92.5400091281571
92.3433317388263
92.0186033627383
91.9562992468309
91.8830298576047
91.7079053069619
91.5679031708952
91.4636816893972
91.3515787617998
91.2454249214812
91.0434333951331
90.8353713884947
90.774634238595
90.8078178892745
90.743827583071
90.6241865378742
90.4673984637127
90.3502164531641
90.2152244905083
90.0268854957477
89.6765439621691
89.4344360397028
89.2556342283859
88.9885532832424
88.8027447838303
88.5595806296235
88.182127447222
87.856378347995
87.4693660405738
86.9428777568389
86.7160977993033
86.5109532166519
86.1427941487673
85.7664919187772
85.3494460688516
84.9966341095935
84.5570634037884
84.0981110496398
83.7737823584476
83.4420255612069
82.9875257909797
82.5726180939056
82.3119020064117
82.0100995377675
81.5682331277593
81.0222853695372
80.5248940755266
80.5782927008746
80.3920206183684
79.9507466449221
79.8265978810897
79.8629668866808
79.6855719422714
79.4534009300542
79.171523003141
78.8869470014619
78.9924518651066
79.0820974392062
78.9865709316831
78.8653357042773
78.8597231672648
78.8547356088229
78.8475811139396
78.9276622364632
78.84778929488
78.6614844329785
78.7426827234238
78.8914045127156
78.8002725110616
78.6789573417005
78.6218834809802
78.6093452392034
78.5631604451641
78.5013396564532
78.468587132903
78.4430806629399
78.3548178230536
78.3136827857145
78.3435841697311
78.3873568374891
78.423040425531
78.4731274252586
78.5235532625692
78.6381033564586
78.7697472998045
78.8393565813476
78.7698687004513
78.7301537218374
79.0974089107381
79.288383366149
79.1255363120742
79.1825624029851
79.4050142732988
79.4550440019266
79.4449139845587
79.1846215764726
78.572598190094
79.0340097303118
79.5573406786578
79.5210580717684
79.4942529357261
79.3904632979845
79.3937460327882
79.3764152750923
79.2240175579573
79.0902552020633
78.9843979658711
79.4957129609952
80.0385619350603
79.9604913552871
79.8260228658312
80.1786514390058
80.350532557062
80.299555017732
80.3788211891274
80.525124658141
80.4804400264133
80.7642734752906
81.0382511814595
81.0712256134559
81.2765178896855
81.4149100634094
81.4412843086091
81.2439329980004
80.9628815252722
81.8432847117597
82.6014849583623
82.6450945065467
82.5260928377881
82.5458085638093
82.9083251116965
83.41292261233
83.5187625950365
83.457782564201
83.8175908334559
84.3365360850039
84.6689191206726
84.8020135975457
84.9153344674103
85.0664992373433
85.0371245558514
84.885735963137
84.7062804800865
84.7013268421796
84.8036329725818
84.5673101831926
84.1586324782926
83.8934368504113
83.8593743444284
83.6277823564878
83.1630617510883
82.7978945010528
83.0888103056945
83.1436187548323
82.960112169422
82.7484814409399
82.6527211740106
82.7341732709878
82.7653745946785
82.7222241657417
82.6526113090863
82.4636641179596
82.3184103633006
82.4936381384966
82.4256740759862
82.1484670870738
81.9479547426886
81.8146487716859
81.5436875301126
81.2831910968628
81.0593990105377
80.6954699066319
80.5953319337313
80.6920737225329
80.599681857931
80.438078182416
80.3467364550348
80.3187883155018
80.2196142995609
80.1560333187534
80.2445129212918
80.2622914761359
80.1987920961955
80.2401622917152
80.2497641745967
80.3510359888886
80.4875585905373
80.41377923129
80.2769723404215
80.3316781305281
80.4378171649596
80.4294978603453
80.3949957637754
80.3660285134018
80.3526131302821
80.3199032900288
80.4089961205735
80.5505120703396
80.6016720790196
80.6862023514845
80.7735621341207
80.7838935894041
80.9196267516168
81.1900324121946
81.3332748650481
81.3575975321362
81.4205296129781
81.5149658192813
81.5850179349842
81.6638055158521
81.7521729894995
81.8278913572056
81.8840154824425
81.888668358479
81.9002462255443
82.0142572809646
82.1272076238435
82.2039379842079
82.247661033435
82.2811090411629
82.3361136537748
82.3949370280951
82.4360704949777
82.4681743474226
82.4936548528467
82.5549279998883
82.6175457128096
82.6429163743576
82.67692927158
82.7400328503994
82.8019969678011
82.836720448182
82.8687694149669
82.9314075167934
82.9858297941062
83.016149828204
83.0588595645308
83.1111691771412
83.1585871733221
83.177933788909
83.1883520617114
83.1938774479695
83.1902301509958
83.1855256692831
83.1760572582532
83.1564262593437
83.1146092992591
83.038529804689
82.9695810468114
82.8939076418814
82.7621522409228
82.6501028240264
82.5615263982508
82.4415472914886
82.3141540886449
82.1956562517235
82.0783057539726
81.9711299907475
81.8739538380938
81.7593784560004
81.6534627645528
81.5711713620453
81.4659322505504
81.3578296620498
81.2672890259088
81.1839951904173
81.1085552541362
81.0473967040294
80.9934209761305
80.9725223515052
80.9705090455602
80.9548365232297
80.9595506338527
81.0107689094654
81.0740519118384
81.1329775914867
81.2308291565381
81.3342067047045
81.4065275221011
81.4977201223382
81.605412500674
81.701293964542
81.8067422585154
81.9134560283029
81.9956085607487
82.0950689861487
82.2222419467522
82.3309111751515
82.43368377174
82.5417944515555
82.6823231945559
82.8062564260477
82.9058205649437
83.0177673100128
83.0970341816366
83.1425057839796
83.1460883593976
83.1100172436332
83.0298156055928
82.9488837111591
82.8820833083048
82.7849264585381
82.6650450618731
82.5719279942048
82.4897209890946
82.4072528946955
82.3263561050457
82.2385873180444
82.1195516462123
81.9829552493811
81.842728547625
81.6905239326991
81.5451772346335
81.439379915709
81.319857662564
81.1519092427906
80.9987163189136
80.8794568746945
80.7430397026912
80.5734439378754
80.3947385189739
80.1928308873826
79.9561941868656
79.6712233429587
79.3322823023777
78.9928431860139
78.6518408144314
78.3049087895258
77.9998465477949
77.7286479311911
77.5043678436605
77.3294088838849
77.1933617263792
77.0820191069039
76.9664893078861
76.8415191035248
76.725180268792
76.6165182671765
76.4928033983794
76.3588777055358
76.1932543652548
75.9952808135343
75.7899065652765
75.5845762939461
75.3586124422471
75.0843361448661
74.7852516058853
74.4858764009359
74.1760202086169
73.8876416221789
73.6077115254125
73.3240585484772
73.0024540920429
72.7073282823758
72.4643321869048
72.2254748031148
72.0026138103957
71.8212467659245
71.6393791539923
71.4835594142392
71.3791215567763
71.2409509068869
71.0766622518562
70.9487532999601
70.8484748549798
70.7307430698606
70.5841771124746
70.4611091068829
70.3297077799529
70.1933383078083
70.0659712902545
69.9479044595776
69.8477654269057
69.7422807403481
69.6206511453138
69.5389833905889
69.4599191804236
69.4123964516031
69.3874443610798
69.3809581290931
69.4194340493773
69.4771797389188
69.5241044848388
69.5766697770733
69.6522610860537
69.7644239089121
69.888633272305
70.0446310148986
70.216963802416
70.4021518226664
70.635681341443
70.889460295786
71.1343689004151
71.407525960482
71.652128775979
71.8961147305019
72.1589479806961
72.403986993454
72.6243438600192
72.8628465433059
73.1153851847874
73.3537130156076
73.5823998261572
73.8126720423335
74.0424107772772
74.231665713858
74.3989375245956
74.5633518103246
74.7340864365714
74.9078099757378
75.0730663455404
75.2505665978992
75.4397882294423
75.6313389984438
75.8319485213193
76.0555559399397
76.2922265435918
76.5054796873557
76.7374562970221
76.9682755875065
77.1656077007748
77.3315580667729
77.5226050652824
77.7726530253189
77.9760353733259
78.1258631697905
78.3343775483028
78.588597382095
78.7728012897507
78.9311737246772
79.1323846655054
79.3158289880218
79.4665599702025
79.613612657761
79.7476407146099
79.8879908049031
79.9918076663431
80.0948842574432
80.1748985912356
80.2799538514681
80.3916505220295
80.4504623820022
80.5119498198891
80.5971720378479
80.6839740814141
80.7386180736466
80.8077036135213
80.925818430785
80.9874054289222
81.0326474480974
81.0920636291792
81.143910561786
81.1850199374935
81.1927012354212
81.2212455886791
81.2635765710616
81.2776495858108
81.3037383075926
81.3155262485488
81.3652891662374
81.403741709012
81.3951435511795
81.4116824095287
81.4616930113864
81.465268395251
81.4616823459957
81.4695241598053
81.4576925795532
81.4473297764241
81.4584397786955
81.4302122104618
81.4268335212279
81.441946819886
81.4743990282071
81.4636120887915
81.4296855887105
81.374651607403
81.3302681162688
81.3074270838944
81.2596894368128
81.221933195424
81.1638259409282
81.0465341900219
80.989888655964
81.0205575836355
81.0221225419952
80.9444804805377
80.9028345911575
80.8852370917962
80.8415481231548
80.7779842319802
80.7314032440964
80.7143383199553
80.6722521628461
80.6128854430492
80.5576815031482
80.4774738250211
80.4074425144026
80.3666711810848
80.336328949281
80.2832364532714
80.2393049071967
80.2065137778121
80.2015015611382
80.1787653878607
80.1445866332194
80.1150633039016
80.0708390686007
79.9958679176125
79.9032383413007
79.8690920617382
79.8538012116846
79.7943904156591
79.7374764117191
79.7080351807578
79.6846645052931
79.6532267818548
79.6098288699688
79.5538478707748
79.5261324047868
79.497625340724
79.5146245314893
79.4597524952648
79.3381695554687
79.2423589765572
79.2153163293695
79.189214336844
79.0994087711063
78.9620950907407
78.9317645095999
78.9194944472385
78.8177472097141
78.7351531858302
78.6825613352274
78.5970523066668
78.5342606999978
78.4773328045721
78.4276435659545
78.3877401291212
78.3420098416606
78.2586139172949
78.1703202052855
78.0488685603708
77.9150311520161
77.772071337798
77.6642669548175
77.562166674602
77.5112646415701
77.4749905057408
77.3787881744539
77.2355079792649
77.0958469202985
76.9968307334511
76.8769897712862
76.7148542208364
76.604696032096
76.4915677208605
76.3409486653446
76.1646783692761
76.06535267561
75.9704549035195
75.9071352895104
75.8178368201518
75.7201093100203
75.6030062615686
75.5772394439661
75.5480393062554
75.4110914706425
75.2837394939007
75.230425911953
75.1329197925583
75.0441012364396
74.9012042160936
74.7210326640395
74.5462614180786
74.6709338265403
74.6549030340329
74.4672985049419
74.2905514093771
74.1762945076711
74.1248641159903
74.0706350016559
73.9718351956422
73.8136724584929
73.6973016001914
