1798
3999.43349933624
650.420452594757
1
128
4
96.4928893069793
96.3893800436991
96.3039092183291
96.3241242590433
96.3497719320567
96.4311228747366
96.4485416022499
96.3989200262243
96.3698145960305
96.4302373427785
96.3862555666645
96.2965264126782
96.3882004389955
96.4047987647609
96.2925664979223
96.2858313052318
96.3692732787683
96.4468780895499
96.4648534518931
96.3895530429912
96.2717421409794
96.3103092038755
96.4033962881805
96.4687191628113
96.3983421944315
96.2876779114825
96.3439626451696
96.4690799210543
96.4196186398794
96.3221401652952
96.3494654968797
96.372982455073
96.2993758031188
96.3229869022309
96.2689602799601
96.3144435883182
96.3141395005607
96.3043222423292
96.434116528549
96.4775052445674
96.4006664663826
96.3532865298147
96.2904024708432
96.3767495324402
96.4409568141906
96.3987279021151
96.392719855087
96.3308536066129
96.2265246645272
96.239158403057
96.2897745963718
96.3090213506854
96.2136643184591
96.3324541110884
96.4085479525815
96.3451362849297
96.2886634784663
96.3201712577043
96.2884658057627
96.3431579446478
96.5251666516823
96.5643081597765
96.4288788497058
96.4172331478738
96.4237819447417
96.3865714814336
96.3266965164802
96.2920321204342
96.2729758526057
96.4023362786654
96.3870725147141
96.3113038934233
96.3507299154149
96.3476990975867
96.3205556295577
96.372512218594
96.3866392461638
96.3909461661649
96.3652821356529
96.2941055544751
96.3653616519036
96.4288767513939
96.3986356152026
96.3983749563489
96.3434813444245
96.334246106114
96.3676143735078
96.3689945945462
96.3357975104179
96.3173418590938
96.3769148973384
96.4376753319263
96.4289296063633
96.38918338642
96.3945764384115
96.3964923029273
96.3999959673604
96.3725496432378
96.3921594369734
96.4059165924933
96.4265923862911
96.4526093740627
96.4275260718648
96.4800490267958
96.451672000559
96.4241873854612
96.5106484511705
96.5211255800982
96.3809675595258
96.3137810858968
96.4035990138778
96.4688835757082
96.4757060132168
96.4691714710475
96.4146013221951
96.4169275580884
96.4313951345994
96.4482651168352
96.4115251538333
96.3576508611933
96.3911287915962
96.4914011372609
96.5294301286949
96.4710751634758
96.4157604640187
96.4734415389757
96.4562375786504
96.4625252967697
96.4454416072694
96.3979899163771
96.4273776663823
96.4031395020398
96.3460543020749
96.3448583920407
96.3551679737394
96.2922240867802
96.4063044273745
96.4845760332847
96.4561066384678
96.5430533372051
96.4842483790043
96.3087904446426
96.2280118768529
96.2802667319908
96.4216133586996
96.5245467023466
96.5040215830861
96.5345412122895
96.5451975467454
96.5959491129728
96.5247292116208
96.4801588880236
96.6122105992541
96.5332672701689
96.3495306991012
96.286418680448
96.2943972761768
96.3663505001401
96.471175948271
96.4821525753623
96.3937691613824
96.4672990359623
96.5801081547031
96.4621111427973
96.4156315918463
96.4395046208048
96.292525710041
96.2803307919162
96.312297966812
96.3947149934736
96.5317401478128
96.5720439132123
96.4644559621039
96.4724880505213
96.4119479733447
96.3961259578187
96.4073780902086
96.3044084444209
96.2697783130298
96.3365092766176
96.4011984985219
96.3893698847634
96.3112664709134
96.2527985211521
96.2487932028608
96.2973888137556
96.2532844747256
96.1391081176696
96.112524526392
96.0868641682664
96.0896897949347
96.1440550192363
96.0197420873573
95.9847168483041
96.0000970739031
95.9756370857945
95.9023736668991
95.9082616810563
95.8743369463906
95.7755862171618
95.845492447131
95.8312979514888
95.7023842939767
95.6293738532881
95.5736986242545
95.5357971362762
95.4318172769927
95.3372484099644
95.2833525633191
95.2034647934009
95.1122676415868
95.1288922111302
95.0884462357375
95.0825757814803
95.1359741909663
95.0841375577438
95.0120425024803
95.0443283808337
94.9773609479602
94.8290063401113
94.7548720767345
94.7223798492749
94.7010869666421
94.7255360127561
94.6705622064308
94.5599523107146
94.5252560152833
94.6691156505359
94.5850032483344
94.3484991039761
94.295210407715
94.2679308044434
94.1224961810494
94.0581480991105
94.0957464892883
94.1416445523112
94.0541856450809
93.9330044420847
93.8679199261846
93.8673404363645
93.9095194117146
93.9484943246453
93.8206515682597
93.6370652438648
93.6204005439389
93.7086919231611
93.6107638585944
93.4595696195844
93.4122395375313
93.3327827393819
93.2560732644006
93.3394500426978
93.3485812654802
93.1922022192721
93.0075790228597
93.0436591120869
93.1809627466479
93.2398299040036
93.1012718117714
92.9684125118923
92.8302676208192
92.7536956215592
92.6861038155287
92.6693066448661
92.6906265068586
92.6819931087299
92.6387576830878
92.5339836287675
92.3712966124246
92.3514780931569
92.3688987360158
92.2354936495618
92.0579142710407
91.9972007943533
92.1247194344715
92.2048003146609
92.0922972315992
91.9420989785716
91.7370435641326
91.6311815241928
91.547260667988
91.4460525222412
91.4840352472525
91.4124388522229
91.2191123719006
91.2093978508442
91.3158672435732
91.2525089825072
90.9406551929494
90.7495569577149
90.8191429513733
90.9575192084918
90.8232192115308
90.6648122632717
90.5140261953233
90.3845552033423
90.3501393466652
90.4030470981863
90.3128735300133
90.2287889802983
90.0697338629511
89.9173256046277
89.8246835017172
89.6490501579427
89.4354560000243
89.4196368849776
89.5420584439743
89.3970697128207
89.1921664180563
89.1297987270738
89.1276875065348
89.0740758273942
88.8816296323927
88.7431268146154
88.7047046266942
88.6151642965344
88.5225666925026
88.3836662064608
88.3045556350236
88.343998263178
88.2953313045793
88.2199641254038
88.0256283955288
87.8852469375142
87.764948086773
87.6564195396771
87.6685474863707
87.7204735816968
87.7168262851425
87.645426068314
87.5249753216126
87.5680300188863
87.6068498862152
87.6382525095089
87.6905209658576
87.6428521366673
87.6256741349413
87.6274483250024
87.5112936142739
87.6381571540638
87.7799107408314
87.7249437479437
87.7363149949714
87.8047490179026
87.7246216690192
87.7310867114393
87.8076258602563
87.8314759559759
87.8364313941148
87.9020545087826
87.9554602764108
87.9821576849717
88.0159038894307
88.0054513557614
88.0912633002568
88.2009629411203
88.095432669117
88.0482744611466
88.1980219234193
88.3060614768943
88.2566631253102
88.218090031981
88.2622491214432
88.3314275886461
88.3085466392165
88.3175333246715
88.3533621748352
88.4022333236952
88.4050666054728
88.3991083211611
88.4401962554548
88.4792056446632
88.5040694954502
88.5902708490126
88.7022648515245
88.7364286636695
88.6924147490604
88.731921173629
88.7856355877902
88.7993010540624
88.8266583993597
88.9174599863628
88.9516768657321
88.9409599993026
88.9817387324008
88.9904399267547
88.9529847924907
89.0797632506711
89.1465185919126
89.1614023779895
89.21839193771
89.2761054973495
89.34408269856
89.3663412397145
89.3222816076446
89.4022358130221
89.4651271355605
89.4367264760726
89.4296647151382
89.5530684733221
89.5154639660293
89.4362202990692
89.4870768367128
89.5483875896393
89.5436521356964
89.5524808092728
89.4891098864935
89.5090537001538
89.5656299420448
89.5929907688808
89.656551106696
89.7415996519718
89.8064035857314
89.8401612562781
89.8282777577592
89.878518088725
90.0094894080978
90.1580708443189
90.2092608513342
90.3022858847738
90.3480879653054
90.3827222260995
90.4341580739394
90.4999974193068
90.5226501522415
90.5888009147581
90.6922536520686
90.794944301429
90.7700463728806
90.6956129699197
90.7882994834553
90.9280427296953
90.9763527790469
90.99501935681
91.0153122167409
91.1286168640094
91.2300395529758
91.2722986345183
91.2583223741348
91.2520470586637
91.3250016384947
91.4355911340845
91.5198346014242
91.6177998939037
91.6350332806343
91.6166794053819
91.6443650727405
91.678194964543
91.7466353085654
91.8641027142194
91.9092725541864
91.9294854973708
91.9558070326289
92.0182259254935
92.1044264105116
92.1477641018564
92.1047944590682
92.1796935050471
92.2768257012191
92.3226152037061
92.362529126365
92.4167460433736
92.4772711488325
92.5603385134149
92.6184537691603
92.5959088044712
92.5633594594528
92.6500596193776
92.7904189337909
92.7614179180141
92.7100189219095
92.7738752515038
92.891330150198
92.9832308430995
93.0229432843451
93.0722019782708
93.0522998865473
93.096398413212
93.1371141768808
93.1477296662209
93.1794617239586
93.2018229279554
93.2491419004692
93.221369796304
93.215188153148
93.3603321458645
93.4664001657504
93.4788595054596
93.4597714788376
93.5346950433219
93.588372054826
93.5259935464234
93.516521195787
93.6042330961845
93.6424166658602
93.6616456272601
93.6816744387806
93.7446717384551
93.8207443131937
93.8603851117304
93.8915015620416
93.901732547576
93.9559322368631
93.989453375754
93.9518623613879
93.9754148941165
93.9803289188153
94.0057242078335
94.1301432921305
94.1901395010011
94.1309799360776
94.1261325385623
94.1604262395822
94.1297311819049
94.1205930543362
94.1779305452408
94.295673063186
94.3804746126005
94.3907129195738
94.3932210182215
94.3609479774496
94.3959283864055
94.4856985702982
94.5187455558269
94.5096022128779
94.5040093166067
94.4949231426561
94.5038276667678
94.569452545008
94.632644891704
94.6006112670528
94.6611812183249
94.734811529469
94.7508191431655
94.7397454373806
94.7237397774513
94.7113262867846
94.7258460293621
94.8051773563519
94.8458363772951
94.811783464613
94.825627379688
94.85181442481
94.8758778601001
94.9130020633806
94.9817745946469
95.01692901921
95.0114005289287
95.0065798806023
95.0344993790483
95.0710046897403
95.0309073326247
95.0160799298986
95.1119285772285
95.1322301379086
95.0995579210172
95.1892932974011
95.3214085156447
95.3276812621786
95.2420521067464
95.1359280710674
95.1055669507762
95.1176556254812
95.1492244657425
95.2411420311215
95.3067097775972
95.3108373481303
95.3119075544434
95.3139614180763
95.3180192664531
95.3546377885806
95.4041635622045
95.4404284965034
95.4649635187588
95.4268355679305
95.4640479824641
95.4921404239234
95.5120721349561
95.5750975872588
95.5663950715053
95.531706562626
95.547862219101
95.5960435561739
95.6166711276995
95.6303083170741
95.6495252097732
95.6262318732579
95.6034171181452
95.5988687941696
95.6334077096113
95.6863563037182
95.6381363491705
95.6357027458256
95.6566190955734
95.5620518764121
95.5607020479071
95.6415783060631
95.6450934816236
95.5832728824689
95.5806550383473
95.6092806183699
95.5954591471744
95.5643471395945
95.6472107492549
95.7320376997583
95.6968565167887
95.6493911270647
95.6464439249225
95.643962261476
95.6344183776728
95.6640636104283
95.7563235468673
95.774461202786
95.7802250444871
95.8312921795061
95.8260438983411
95.7863728442566
95.7590612065463
95.7190717164356
95.6810991024185
95.7004313904796
95.7407071302214
95.8163484081212
95.8879519275582
95.8914473057475
95.8092804745444
95.7569302134948
95.7919002662702
95.8235657929611
95.842073268752
95.8051705556302
95.7984796870507
95.8483086873007
95.837686435721
95.8136084862797
95.7863941352227
95.7661609341119
95.776757619639
95.8115816538478
95.7991138081393
95.7449974241606
95.7312541000857
95.7127399431561
95.6702972579651
95.6840939834503
95.6848879807229
95.6517619314424
95.6421788461397
95.6294287333463
95.6153882845425
95.6181102693346
95.5830756603388
95.5102540294975
95.4802384452571
95.4527211288591
95.4323851146367
95.4697691834779
95.4934923834667
95.4852566849657
95.4674841974701
95.4703056180026
95.501716045482
95.49806859043
95.5020682723333
95.5369906748357
95.5558003436823
95.5690582184592
95.5929830770104
95.583225232075
95.5743032622426
95.5453908972218
95.5511554447706
95.5471567983717
95.469186949869
95.4171186462929
95.4126593718742
95.3966822974284
95.3461807510635
95.3065245857628
95.2753653652219
95.223320938608
95.197089299992
95.2512904536711
95.4018918753172
95.5484593213124
95.6382275684653
95.7201739342805
95.7392332413765
95.7385314693506
95.7568551315755
95.7324744666046
95.738989856543
95.8371410534498
95.8764932375686
95.8701829166037
95.8952969737005
95.9279721892798
95.9747911412711
95.9953163541172
95.9960753550716
96.0499492728299
96.0788458463993
96.0710484331705
96.0695912228602
96.0767139442927
96.1126330847331
96.1233512535725
96.1040282505269
96.0788241456333
96.1146740994047
96.1635178715595
96.1179525377031
96.1208119936494
96.1671677339073
96.1806884128261
96.1769916914048
96.1602865655235
96.189905031054
96.1928956400943
96.1596806759634
96.1804995849384
96.1808666479739
96.1160382918802
96.0926056183851
96.1444911554181
96.1918053917891
96.2183588299289
96.2410807764539
96.2629733326012
96.2510944238691
96.2094018346035
96.2336403716196
96.2918910809243
96.3060119786053
96.3240765473288
96.3345209973464
96.3265303839564
96.3659248091752
96.3731700143302
96.3858144245506
96.4404414333889
96.3925808293679
96.4071470830558
96.4688880248149
96.496886214835
96.5545620040017
96.6202092368169
96.6470976036535
96.6197853086695
96.5093801401245
96.4989586034107
96.5901519648101
96.6300756951574
96.656309371814
96.6637644320574
96.6809003400313
96.7188307933087
96.6374999609316
96.6141828139761
96.6358758042524
96.6684930631629
96.7465606193559
96.7609855438483
96.7384639102457
96.8133365626695
96.7875222059522
96.7255293453278
96.7434513153541
96.7679942240401
96.870711867408
96.9019106948151
96.8236562125334
96.7705270260728
96.7661016259704
96.800691527164
96.8840599027904
96.891362811468
96.8485776647648
96.8924627799588
96.9218143321466
96.9358259217933
96.9937664630406
96.9980501389312
96.8280237556949
96.7707666439522
96.8243044271633
96.8496711328817
96.9289528925323
97.061981768476
96.9868576277413
96.8935002279225
97.0127719311597
97.0540676116175
96.9886348409458
96.9177236682026
96.8970681587883
96.8875632311443
96.9393832197767
96.9293022820147
96.849728947428
96.8730210461373
96.9942870875841
97.003914100855
96.9473039389357
96.9889499295871
96.9443878367177
96.7885409386328
96.7253911552766
96.6634673646731
96.6075359951505
96.6309545506847
96.6221460387343
96.6799619180546
96.6670151995384
96.5717845546299
96.5885439651941
96.5877054697945
96.5207354752543
96.55033579636
96.6207329845469
96.6612454786436
96.6647173764429
96.6184834981829
96.5745129120572
96.5246028075834
96.5054495892272
96.4775251357009
96.4604345941778
96.524360693934
96.5543588552983
96.4724470692138
96.4201527766598
96.470369071769
96.5193649585794
96.5624992671461
96.5243646418941
96.3815925775528
96.3449000114888
96.3649140042076
96.3852239501689
96.3857340191889
96.2475697304023
96.1389538287407
96.085991935404
95.9362683439557
95.9124069453437
95.8994906079618
95.8392930900034
95.9212875180343
95.9243685150587
95.9052565455402
95.9853868589624
95.9636999319432
95.8341544244944
95.7247140549551
95.6166059369891
95.4286330883431
95.172935875643
94.7653550217775
94.3293762737131
93.9679479739315
93.7799398664747
93.8063348336391
94.0409665639611
94.3396803167236
94.651619588813
94.9192758566957
95.1890582730862
95.4453280285734
95.6268519565607
95.8276243220172
96.0031917715151
96.1387759813257
96.3175293936309
96.4327715543779
96.4646614993181
96.512007861706
96.5752616278777
96.6171164754885
96.6965848856598
96.7511798770576
96.6979067189326
96.6628783034997
96.5897606137828
96.5422356475987
96.6003867636242
96.6643462685408
96.7118331998389
96.7380046024522
96.6918331221093
96.6552530176295
96.6069652011495
96.5965929437321
96.5987043039089
96.599940301265
96.6283618603666
96.6716606266583
96.6466984498246
96.5146712255204
96.4281087071043
96.4931115574825
96.5690845293719
96.6087359438585
96.6077274998566
96.5877080839722
96.5502310057466
96.5106529003165
96.5259786871705
96.5683863395259
96.6118539181393
96.6256905885995
96.6951853118351
96.7478650338581
96.6638710080634
96.6829768856871
96.7095914332504
96.7376563490019
96.7162977868254
96.6726204250314
96.7722436756824
96.9630875485375
97.0611879997389
97.0035042103852
96.9723814367119
97.0154616673543
97.0200007188551
97.0147547174932
97.110493833525
97.1785044966183
97.1489856820947
97.2661271120269
97.409057501763
97.4971609618611
97.6988333615331
97.6162225653138
97.3948722366851
97.4139892068738
97.5068332052388
97.6968561626239
97.79878301637
97.6164653840463
97.5893627357136
97.7982225968666
97.9324873127894
97.9187072839941
97.942500308166
97.9860566634847
97.8766969292074
97.9777536781399
97.9809048264146
97.9174785351835
97.8881280712222
98.0669426374538
98.3856571752758
98.422054135688
98.1850962972192
98.1182123903472
98.1560360871974
98.3949644362291
98.5656528355402
98.458185282485
98.3593278098934
98.4372732586084
98.7774199833168
98.7693422546103
98.6521793795138
98.8641410385437
98.8861779256433
98.809033669231
98.5386083535826
98.5315281381769
98.7543176702426
98.9180208737349
99.1270572285266
99.2588376624901
99.2447893194006
99.0470365322825
98.7661883392831
98.8269762945441
99.1503350582431
99.30524686782
99.3959554541503
99.2682191015062
99.0778618801574
98.8992762491701
99.35200327431
100.069453180392
100.382219901524
100.477926360915
99.931182565647
99.2477275026503
99.0709534203518
99.3652875814029
99.4282443443463
98.880443295078
98.4365843136455
98.3702036566639
98.4484796373083
98.4389932788905
98.3387342594155
98.2083132518232
98.3235366513175
98.3477547036449
98.2507216995094
98.1440325493612
97.8855159704119
97.7689439305851
97.718382415791
97.6108484030022
97.5370944352596
97.5811491897419
97.5533329086706
97.5506882560153
97.7679435511033
97.7740866719954
97.5041575987081
97.4449919777275
97.5336463493322
97.5912866824094
97.5740310742355
97.5253096356269
97.6310547094882
97.7000859697017
97.7129563013003
97.5809664051492
97.3746368041132
97.5647014089485
97.8465187657837
97.7982411149101
97.5313786693183
97.5340871024316
97.5288738399857
97.5670425440587
97.6211240112145
97.5810190738265
97.6892632785701
97.7105247805118
97.6173769225456
97.6180671976476
97.6518874301876
97.801466901751
97.9590843396569
97.9777129038196
98.1322386386067
98.2335391115739
98.2620750743406
98.3537271340474
98.6702551697481
98.9358248575882
98.7435962561329
98.6752432718132
98.8255228105131
99.0424534556847
99.1912583178655
99.357084430948
99.4008946493508
99.598355910307
99.5297278661705
99.1958857516279
99.3279327150739
99.3588603774378
99.1203200222036
99.3367676997517
99.7990465107099
100.035585822824
99.6036594878492
99.1953776757737
99.1933322557752
99.2557142998156
99.3804628646498
99.3336197813562
99.1216837110449
98.8750179080531
98.8005901862032
98.8249057503494
98.7972479130183
98.7525088396535
98.670259423106
98.7550172778974
98.8796335662433
98.91653180362
98.9524452006734
99.0724825222591
99.3472512609327
99.5345284180019
99.5823792945242
99.6564447045694
99.3880569887896
99.122185153246
99.00409258444
98.9430379420705
98.847186937493
98.8845348838084
98.9323380641936
98.9839872309967
98.9704949051701
98.9685205856348
99.0053012715599
99.0028748426066
98.771954698263
98.6000283840404
98.5690777687525
98.5604138282649
98.4936297060047
98.408868640902
98.3205353974107
98.1624238844377
98.2847590625157
98.4267242740716
98.2343597005022
98.0634509196132
98.0877536300963
98.0734415661906
98.0192453937304
98.1831460140712
98.2779926032221
98.0903131187085
97.8883749582263
97.9349249749842
98.0822451013164
98.1662319734605
98.1593541026503
98.1025687199583
98.0065124918393
97.923388217365
97.8129320646445
97.8180199442759
97.9242581418634
97.9807426901444
97.9516034870259
97.8799386910237
97.8021145388684
97.8553580721042
97.8341246285614
97.7671561452428
97.7820909067978
97.806692958085
97.8854297887187
97.8872179033078
97.8461861250313
97.8565721326587
97.770953693078
97.769940762617
97.8217297751602
97.8846073721692
97.8976464357681
97.8132538383055
97.7282336485255
97.7673874122793
97.7717599784382
97.8218153385346
97.9104419654104
97.9523926463822
97.9052945642574
97.8517699933469
97.7982586709958
97.7848796369468
97.83800227917
97.8843537862669
97.8456520217428
97.7838403721685
97.7570067891805
97.7837115627139
97.7945065435883
97.7865233344891
97.7825540230404
97.7904886241536
97.8307812551536
97.8440589266491
97.8348291192486
97.8329723913612
97.8088675596876
97.807442548913
97.8021254839961
97.8343246021692
97.8235788523915
97.7915367996686
97.7870771181714
97.8086985544648
97.7964066671505
97.7467357189225
97.7403022333366
97.7751565670758
97.767574445557
97.7352266618874
97.7314780428555
97.7180335032126
97.6778157496531
97.6743919961905
97.6668338469586
97.6845949928281
97.6824943216005
97.640889285354
97.6158751421197
97.5938515647236
97.6064167790003
97.6118069848623
97.443704547959
96.7445196802373
94.8118690526731
92.7885187205174
93.2066027014857
94.7416038830255
95.781636862098
96.523760167949
96.8740033824263
97.0389675341085
97.1635210344367
97.2104313588782
97.2733673553494
97.3371201317976
97.3243584418037
97.3449629453676
97.406236493435
97.3263367352056
97.2399143953761
97.3203979942435
97.2866949946355
97.2621850096482
97.2918948068029
97.2467595859857
97.2120929325606
97.2011682929556
97.1392308298029
97.1232678780364
97.1245375719448
97.0760318741525
97.0526100476125
97.0130689006924
96.9497797734918
96.8957883333806
96.8833699619132
96.825590695423
96.7363996430393
96.7655596728482
96.6021666793845
96.4758125125054
96.4878648510225
96.3544099530941
96.2299534982922
96.141040328214
95.9946856532552
95.8637200936149
95.7662013707812
95.6503391174197
95.5494825231931
95.4151855906568
95.2845021368338
95.1950203025488
95.0622626405842
94.9368869024246
94.8655587086022
94.7594499985147
94.6222486820832
94.4938212219549
94.3768780288978
94.2630443332967
94.0933094309774
93.8885396663128
93.7647400596659
93.5377923052173
93.182085706566
92.8365466091839
92.5067332239448
92.1264075359154
91.7549751579767
91.4370337018774
91.1343940719083
90.9661146326912
91.2282175387272
91.5264293865333
91.7218097984277
91.9503429241038
92.237517699748
92.4012499630795
92.5763798102416
92.8177281584053
92.8790573405429
92.8962604405729
93.1346315883998
93.3213264528395
93.3753125762137
93.4267151360829
93.5059085224979
93.5857629668229
93.644358594035
93.7397789652475
93.8679509249709
93.9596056139088
94.0186568339608
94.0858231035494
94.1326783616751
94.1727413069825
94.264228603618
94.362112802808
94.4369324815441
94.4987173832329
94.5871362016902
94.6704242536143
94.6677755558357
94.7018824775214
94.9556450605994
95.0687239132937
95.0444265571166
95.1388547408407
95.2554360650099
95.3286866700305
95.4128930268918
95.4096639988017
95.4427095215899
95.6697333317579
95.7332863072428
95.7714896485568
95.8673705916615
95.9229087695438
95.9688073653239
95.9834906239611
96.0698445793672
96.1283242173714
96.0403028532039
96.1453164787879
96.3127332023444
96.2453666821554
96.2100795610186
96.2735681396923
96.2489813949394
96.2163457330827
96.2504167399549
96.2385837428119
96.1495143211249
96.1440211175322
96.1009369279043
95.9949080071972
95.9393843198125
95.8966785295822
95.8740315125142
95.7622779470016
95.5838711943711
95.5566035850069
95.5521819963359
95.4699992706027
95.376922857144
95.2712668982146
95.2133033343006
95.1777710512562
95.0770419075938
94.9569418630802
94.9033702869694
94.8346272167756
94.7495071378198
94.6352024375478
94.5214743829294
94.4291516423832
94.3162226725457
94.1569639533695
93.9556708307651
93.7702139217902
93.6476619692759
93.4799329127623
93.2539070769387
93.0124447114289
92.8189756525544
92.611503028667
92.3826918959326
92.0779700125597
91.7628863117007
91.317287286099
90.5855483028489
89.5842001489279
88.3955810708898
87.1669467342912
86.0463593014358
85.0334784927495
84.1047488771601
83.2517745038567
82.2813177188898
81.0794328010499
79.960531477476
79.4985515255327
79.797922456165
79.8246677554413
79.33016437191
78.6501683344737
77.9205148149796
77.2074905588334
76.4241953439693
75.6980813433733
74.9809450515522
74.2124608612539
73.4114887002756
72.6327088358338
71.8501055061918
71.0589432892342
70.2315200672151
69.3902209966469
68.5069853709586
67.6118283328755
66.6952667645245
65.6898060642499
64.5689336791689
63.3834587320104
62.0670152294934
60.5710560804193
58.9673070144162
57.3124278844995
55.5680985636124
53.813718323899
52.1299890344743
50.721020690022
49.7961187479233
49.3915026507349
49.2880596763802
49.3995128839806
49.5593564907602
49.7341946047239
50.0573717882134
50.4567992129008
50.7583184175652
51.0283736372744
51.2730296813544
51.5704327327668
51.8707517814003
52.2134497156155
52.5718842690408
52.9462834553236
53.323627442283
53.6911783019088
54.1106087576544
54.6642138558834
55.1462468469663
55.5425744988533
55.9375941595673
56.3747635467478
56.7959585940291
57.2442972443827
57.7110515528916
58.178894342812
58.6315382474775
59.1301378424479
59.6110580704774
60.0884273532311
60.5527577444167
61.0010339923989
61.4325802405644
61.8778698332024
62.3095808764217
62.7344143890594
63.1489057602357
63.5669270583969
63.9556288131993
64.3736700275212
64.7891852194186
65.1807224249995
65.5571790130988
65.9501776031414
66.3462687430779
66.7455232351866
67.112845921639
67.4859275025214
67.8640956560161
68.2335115982982
68.5525533162305
68.8779823742477
69.2000829508466
69.5353565856682
69.8478593169958
70.1534820821636
70.4699520495676
70.8108137273236
71.1257986242144
71.4187132763676
71.7144814893017
72.0020809921865
72.2545152993712
72.5116096291508
72.7749330534301
73.0420961165807
73.3284404327187
73.6255149688798
73.8746233097416
74.1242068641678
74.3775193185354
74.6261135665808
74.8665730081826
75.0937343658044
75.3164636860882
75.536493250799
75.706615042553
75.8963022315467
76.0707505550803
76.1981580751282
76.3054013754308
76.3916702272941
76.4408882951459
76.4451876959447
76.3951398359806
76.3169025490307
76.1892291404668
76.0288895113388
75.8297999359609
75.5671154517674
75.2937203616938
75.0270026387549
74.719402008085
74.4138467748233
74.1482713826357
73.9466219251668
73.8766691205695
73.9883999890908
74.2483180600408
74.597923969211
74.9243560440887
75.2212113283568
75.4257714082268
75.5143899797996
75.5184282252908
75.4316409717897
75.2462135440284
75.0352354434722
74.7961242883265
74.5045890368641
74.1569173126132
73.7954487919991
73.4338738457794
73.0765127014614
72.7026845535213
72.3613687905651
72.0113090760578
71.6649548564648
71.3344924955153
71.0095961658927
70.6556393724543
70.287443781087
69.9345266067493
69.6337863674824
69.3876635794652
69.2440022015918
69.1752131161997
69.167234629437
69.1185379184324
68.9691272817377
68.7067732752933
68.3775056159183
68.0653303839226
67.9051092948813
67.8928589802877
67.9704706250721
68.0787578419363
68.2145944480726
68.3253087749022
68.4124418078177
68.4405226268339
68.455990415877
68.4624610219685
68.4331688398802
68.4007604045856
68.391659343434
68.3837618978889
68.4371221770089
68.5272253142808
68.6615956668214
68.8718098396066
69.1589908031418
69.464967613383
69.7990275831389
70.1584571765575
70.5629000437463
70.9747076168607
71.4232020693697
71.9163194961955
72.4210870375111
72.9074064617469
73.4252838819947
73.9411405331362
74.4373223326394
74.9061423178495
75.3649261861699
75.796640446587
76.2326495577558
76.6660583180977
77.0699997080221
77.3528343795354
77.3848571050325
77.5596209524124
78.1119881542567
78.6345588417384
79.0704218911559
79.4545525637814
79.823678579385
80.1693264940502
80.4806174570989
80.74396314378
81.0201461749884
81.3264871548096
81.6006888674609
81.8562813263197
82.1189287263848
82.3670939802776
82.5972087317952
82.8037898068669
82.9974788024845
83.1655123930853
83.3463239335825
83.5271174478085
83.6889383030895
83.8067967261969
83.9330384754233
84.0217625621153
84.041453217027
84.0608807916941
84.1887637592753
84.3650620902259
84.536206639399
84.6968118450613
84.8540668993309
85.0031982515675
85.1632296521922
85.2620751270501
85.2772668800701
85.249341040095
85.329064845273
85.5091479427963
85.6969444453774
85.9121948214009
86.0868526325809
86.2104569990084
86.3598145337539
86.5176933379103
86.6578662951161
86.7687398690069
86.8774955727415
86.978273977712
87.0728445344637
87.1730289350399
87.2427551115021
87.3041758209509
87.3940273976208
87.4777220861301
87.5698476439336
87.6507234500513
87.7062087904326
87.774634894831
87.8709453422334
87.9612193850206
88.030895531483
88.0837192122859
88.1404577893051
88.1998530254352
88.273414565816
88.3447631883108
88.4254524120606
88.4969396667912
88.5408308056188
88.5543812231035
88.6346554364914
88.7224069443004
88.7682870124389
88.7905422287788
88.8360922423104
88.8951454440743
88.974258844866
89.0241395008082
89.0482859815505
89.1167733933211
89.1361842515832
89.1694124888018
89.249503244878
89.2906108078966
89.3303238453019
89.3546549854691
89.4023198839202
89.4436375164865
89.475317951285
89.5097731502722
89.517251577401
89.529660116735
89.5710308210859
89.6240959187486
89.6621153087614
89.6479238091675
89.6366398644643
89.6120544884729
89.6316104731641
89.6642145280734
89.6478362825204
89.640412654826
89.6672201233998
89.65352407956
89.6458078344807
89.6558808666983
89.6320314925351
89.5604964287617
89.5462969945244
89.5321312600777
89.4369362088423
89.3514580702221
89.2550509054101
89.0341746700593
88.6989113883466
88.2167997976923
87.207931458544
84.2130075199195
77.2603419954483
68.3339180271119
64.5794192258629
68.8389134478354
75.7985911726447
80.9265353819707
83.9346415889629
85.5808159857382
86.3231482645475
86.6314894041966
87.1510806178915
87.6605316895588
87.8959663599286
88.0157659632359
88.1383303115468
88.1801769724786
88.1872524524691
88.2138872362301
88.2138076560661
88.1486849675427
88.1207878706111
88.1125486701611
88.0757247593139
87.9883608670774
87.9544535412605
87.8659435127176
87.7591078215957
87.6855704709075
87.5699017633494
87.4541435146985
87.3750181106066
87.2491738952706
87.0625512209945
86.8855687572791
86.7634021164786
86.5987612145677
86.3942459210556
86.1912628897205
86.0321055549798
85.8986823845728
85.8143433417071
85.7665389760261
85.7620826669824
85.7146524244633
85.6782158483742
85.7568481739003
85.8003282844908
85.7876954908493
85.86718807037
85.9060150399978
85.9334030746788
85.9996456126048
86.0480249134231
86.0926667794598
86.1187836964666
86.1268178682692
86.1803407428993
86.2058066361383
86.1674713919472
86.0245403812801
85.8428346757271
85.8580294602192
85.9654222559481
85.9888702038353
86.0215857455189
86.0020353626018
86.007662360436
85.9722984213813
85.9361179362264
85.9244994592402
85.844996764014
85.7495335940143
85.7276849862315
85.7052789662685
85.6560657300542
85.5813926321271
85.523816723585
85.5188452163261
85.4907567114887
85.3788187282546
85.2530982441585
85.0919339643658
84.8967189742365
84.6339075118464
84.3307073547335
83.895724375468
83.6924810056149
83.4423007782639
82.7566730477012
81.7114016560264
80.3889793411008
79.3209492440346
79.1404177148638
79.8993377667428
80.9536423329911
81.6550089529425
