1798
3999.43349933624
650.420452594757
1
128
4
97.6902252969415
97.6799773113414
97.6640381221998
97.6299712493316
97.6295184600817
97.7008080948376
97.7042210881111
97.6224412919299
97.5456258514852
97.5676280433708
97.5816101711396
97.5709299301727
97.5074062522849
97.4222988886826
97.4759728330478
97.6016450847139
97.6073906054101
97.5760000490823
97.5690433478442
97.6565639971496
97.6157957230198
97.5087246560998
97.5254185788008
97.5758659935586
97.5940955246443
97.6248800835087
97.5629003216561
97.4818189204553
97.5237284614413
97.6186674707168
97.6443681580892
97.6639540722256
97.5763260426275
97.5100375126256
97.4996830176656
97.530593538621
97.5889539807768
97.5560604425959
97.5499821615982
97.5649104408625
97.5194066583049
97.4985292952229
97.4679291245237
97.5727247879447
97.6874788361336
97.6999393262893
97.603218118211
97.501903048781
97.4904584923979
97.4321362202476
97.3762044874385
97.4447589640398
97.5203360013915
97.6305914623512
97.6370698642818
97.6757978912536
97.6146491052873
97.5197041990295
97.5524281319803
97.5779256475785
97.5741099857134
97.5985488937985
97.5864222818027
97.5609661441281
97.6321117364588
97.7125739180658
97.5457030570675
97.4361999877048
97.4267201421746
97.4024774751726
97.5510404072474
97.7259335404643
97.6745500271292
97.6377247538186
97.6380976123535
97.6509807880409
97.3870412106862
97.0981896271563
97.2859401680931
97.7972725432007
97.987480943022
97.7416604812513
97.4696362859985
97.5045857808526
97.4730568435245
97.3741809034731
97.4417033580564
97.5749146576228
97.6554248249735
97.6705038861924
97.6343040052739
97.6648279564223
97.6911743902848
97.622439175534
97.4512134632473
97.4606967986363
97.5821435095947
97.5869013868159
97.6619835441339
97.7675225038115
97.649189005342
97.5552715948792
97.6006396262997
97.6188402110758
97.539420002581
97.55212828196
97.4794291924587
97.4527347515935
97.6327787016267
97.7149620557983
97.5719249419281
97.4806683583697
97.4904955397373
97.5084194125355
97.5890049213317
97.6679681597028
97.5796859000521
97.5494118738567
97.6509617399999
97.6571148481121
97.542383421917
97.4822887767175
97.5205862303314
97.6507397309578
97.6453098547265
97.5947441437058
97.5863409226164
97.5760494757024
97.6352466047545
97.6393550330428
97.4750061961416
97.2677163569755
97.3111746032546
97.7445849899974
97.9046146603093
97.5867075327894
97.5193737785
97.7584489111084
97.7605966618744
97.4851063460885
97.141744850143
97.1229074040028
97.5183734410359
97.766759682736
97.675974279709
97.5910265589569
97.5104252608367
97.4601951325123
97.6152999938739
97.7050162761764
97.667163341029
97.601027289802
97.4496637841153
97.4224207306642
97.521432098816
97.6800063598835
97.7895776894433
97.8204839248872
97.6264610711625
97.4600899266726
97.44202585571
97.5005715904191
97.5845395804731
97.4859336513367
97.3530834463522
97.4531501028158
97.5990204186804
97.764929993737
97.756998860081
97.6343276029057
97.5441451676011
97.4469124744927
97.374478111835
97.4167293750883
97.5041301168162
97.4211720032984
97.4535708761157
97.6639481387008
97.6280366560162
97.5445002027965
97.5482900302855
97.498856935991
97.4228978684705
97.5092351460511
97.5539591437571
97.4190885087687
97.1981270907251
97.1992145671682
97.2805967429836
97.3862693992138
97.2711560353517
97.1257537829038
97.1823960294896
97.2170403091299
97.1719430396639
97.2025060614186
97.2387470631501
97.1024379855917
96.9730005983014
97.1985510392514
97.2870667979259
97.0791946121525
96.8579574764277
96.7043568435627
96.6651293478282
96.7165969013076
96.7093034644094
96.691667019653
96.597483305557
96.5569470262854
96.5348438158205
96.481807358344
96.5290692903588
96.5647899147322
96.4931699202673
96.4421817093056
96.3064351332999
96.2546809390233
96.2563646447675
96.1264994381457
96.0474717949486
96.1922803806919
96.2710638185497
96.1867329959557
96.0756347959777
96.08402234879
96.0955135417876
95.8458589258661
95.7280280998649
95.7822232184867
95.6924734885787
95.5506051203077
95.6277099701113
95.8258659017207
95.7617099550098
95.6114676428826
95.5036382663967
95.3812093016173
95.2627831658452
95.3097711676385
95.3921005900863
95.3800049789918
95.20845360979
95.2278076884734
95.3338094951894
95.2596467551442
95.0956855330764
95.0661613770319
95.04781804205
95.0109214070858
94.9661509583343
94.8806922607954
94.8457139665463
94.7589873226101
94.5883256742994
94.5728891205764
94.6795723666277
94.70518963139
94.6325451464509
94.6001345404822
94.4838560259976
94.3694024555541
94.2809945951327
94.3460774817074
94.3582558611211
94.2741783294391
94.1854890188894
94.1780884269387
94.1239446412568
94.0282185294368
93.9876562371753
93.9629174037859
93.9123460661986
93.9056452677268
93.8587027007438
93.8682097406375
93.7882707103619
93.5293749126325
93.3550306026841
93.3756956162102
93.314618709643
93.3477098508912
93.3691404672935
93.2514859462156
93.1541717394489
93.0903838316119
92.9301657893435
92.7896503240108
92.7787146807916
92.8851520440706
92.8271891403246
92.6829213093527
92.57248121125
92.5158904913473
92.481126179455
92.3438797008344
92.2071783332699
92.2003060205264
92.1710747323428
92.1166331719296
92.0131089224838
91.8288081289343
91.6901662018295
91.6739660921057
91.6427833538731
91.56509131587
91.438958003001
91.3665941982523
91.2810294400972
91.2084712597456
91.0970039182119
91.067784844102
91.0358130240861
90.930750587618
90.7864498526561
90.6642088762571
90.5534767582472
90.5457096883318
90.4335090637187
90.3345222300579
90.2909275547118
90.1583654270039
90.0587981362127
90.0516653880237
89.9854348918393
89.9357817093845
89.9799104868924
90.0224962313026
89.8527279792432
89.7968232715
89.8439261050733
89.8868485978225
89.8691973836591
89.8678698193558
89.9347574456471
89.9015991407929
89.8134974753635
89.840118807641
89.8398349520737
89.8988984398327
89.9576591978864
90.005881524664
90.051351944149
90.1005844481839
90.0643688493692
90.1349758688363
90.1641500357629
90.1430509379394
90.2488453349562
90.4279252554596
90.4496654223947
90.4657090919496
90.4421300954802
90.3720792733175
90.402000123437
90.4735481982563
90.4117982450948
90.4116050313135
90.4072004166211
90.4932812785456
90.5494569122163
90.6376500637471
90.6864388606061
90.7195390523303
90.7094236531688
90.7347097985581
90.7846486199609
90.7658906410345
90.7095473040431
90.7369615059993
90.8217624214369
90.8612632303712
90.8574995403007
90.8518451371989
90.9176705305887
90.9661751983567
90.9243923760583
90.9753358887549
91.0139728034594
90.9742988375948
91.0231387224393
91.2594007129251
91.3618483819994
91.2631349206954
91.1962910034752
91.2277501980995
91.2987886075592
91.3133990653
91.3488678226776
91.4313130607831
91.4202537746782
91.4313558580323
91.4585409730029
91.4707679708327
91.4816770796406
91.5469309749362
91.6893320668841
91.7968923462431
91.7158959464014
91.6220074916171
91.6412327048222
91.6600152610175
91.6207424425367
91.6344883511224
91.698276745225
91.6270324531336
91.5783722366916
91.6498431907759
91.7347442025043
91.8425183421093
91.8200420104176
91.8593750770709
91.9515870015556
91.9916454931878
92.0259532192131
92.1172713893304
92.1765909718307
92.2320758642739
92.1977578850946
92.1835824463504
92.2706522854203
92.365816725809
92.4826145067607
92.5098287402114
92.4911742036529
92.5724625050204
92.6015744400487
92.6406130809502
92.6857877186219
92.7138812421283
92.7690329834804
92.8383639848355
92.8672972011908
92.9397926145444
93.0145897804583
93.008604030661
92.9827347475347
93.0588415160489
93.1075164600605
93.1763388651276
93.2619001782625
93.2775229080348
93.2953943818198
93.3770434400594
93.4593528240018
93.5018792495253
93.4966835683243
93.486170048452
93.529954822159
93.633879224012
93.6046926123036
93.6389199651265
93.7315525917095
93.7095040148109
93.685822434796
93.7656529333032
93.8275258424737
93.8361210259955
93.8926205992813
93.9939604899129
94.028556856315
94.008344749283
94.0555672146372
94.1295762624772
94.1432562199326
94.2235834555871
94.2329543297574
94.1886581465281
94.1271721003215
94.174724044472
94.2673188112571
94.3619654111323
94.3853721739238
94.4011335015722
94.434108656387
94.5134277857607
94.528253740577
94.5594856350344
94.5838346457809
94.5764861282194
94.6143278110039
94.665140540974
94.6447251455859
94.7251852597131
94.8017914202839
94.8323314068098
94.8412737787756
94.874269827365
94.929775705644
94.9306433997319
94.9469905277782
95.0147319172246
94.9973656577517
95.0035984419469
95.0017160917538
95.0138848215175
95.0890080783062
95.1468998251778
95.1204772713767
95.1445885072476
95.2517115722073
95.27486754206
95.2726054873354
95.2954258237072
95.3439025645623
95.3616185722565
95.3402441919105
95.4086323880168
95.4443374919542
95.4460363600337
95.4401594345959
95.4550654929153
95.5130258713436
95.5553118917421
95.5211679746557
95.4684176086047
95.5622601719167
95.6490247961994
95.6543937099537
95.6846423140265
95.6348088574667
95.6187103236784
95.6581389075507
95.6986358198355
95.6947972965433
95.7404963393921
95.7706332925628
95.7711870737076
95.7903296951023
95.7877784729312
95.807800153699
95.7986623656893
95.8075121531401
95.8793652438795
95.9741810708563
96.006935395413
95.9724444352516
95.9263968734473
95.9477414710161
96.0349782411874
96.1023794789526
96.0343044746883
96.0050885094617
96.0629363797173
96.0723278168225
96.0997586656541
96.11706167762
96.1180409637458
96.1020788479006
96.1306948443176
96.139032717837
96.1785182660022
96.189090988008
96.2203628135852
96.2624094772837
96.269801593559
96.2597324965176
96.2790075294783
96.300096466954
96.3420699601668
96.3760019751616
96.3701545167028
96.4171415794657
96.4756907306555
96.4259969724766
96.3939594364983
96.4057040410179
96.4132696809494
96.4369480886719
96.5195754394561
96.4531449268181
96.4067607049859
96.4924363656146
96.5253001989199
96.5327111752627
96.5789820611664
96.6179571408237
96.6714464070571
96.7528332303449
96.7279526827667
96.6177171216722
96.6212347528936
96.618372350909
96.5852954087474
96.614342267299
96.6248856361454
96.6630391106328
96.7075216145889
96.631231700078
96.6098316362063
96.6410135270408
96.6169420655662
96.5796283311479
96.5397646127996
96.5803587980651
96.6143596356315
96.6085248067157
96.6165690977617
96.6607418372909
96.6555782875697
96.5814447805794
96.5576752797543
96.5997188453212
96.6360873505621
96.6807954988544
96.7386877773519
96.71921706248
96.6383468664536
96.621606956031
96.7035992946602
96.7115852717283
96.6869425367208
96.7270454280715
96.7701540700027
96.7605765283035
96.7724254425594
96.7951981905855
96.7664599171595
96.7004818570869
96.6934059621435
96.6667036950933
96.6225802851876
96.6877290404022
96.7338481711754
96.7114796360297
96.6928634549086
96.6728099849649
96.6614419436942
96.6553399255536
96.6459542985111
96.6332700814205
96.6855510557626
96.709483194358
96.7454896472614
96.7462435493243
96.6355490128452
96.5799344367776
96.6069296661043
96.6400128035599
96.6322993237588
96.6264890097005
96.6089729769024
96.572691504519
96.5544875992246
96.5183546446305
96.5002023643723
96.5034687275535
96.4925855350275
96.4796957868418
96.4454293747011
96.4535165582062
96.4476369028663
96.335283377181
96.2599786043222
96.2619743477445
96.2650365147731
96.2963419482017
96.3429968273396
96.3728103304058
96.3863695918742
96.3882641744315
96.3748741797643
96.3949192371203
96.4172250530019
96.3969875704064
96.394655364533
96.3976128350992
96.3628734281226
96.3167556173982
96.2889788423294
96.2857165011488
96.2988235296883
96.3446794162964
96.3405767415276
96.2891784979736
96.2251228863593
96.1810104293708
96.1618267644413
96.1006171452129
96.0739351334961
96.0819540568668
96.0309814519701
96.0681667221855
96.1903542530664
96.297005305937
96.3466050306069
96.3587506138396
96.4027552577912
96.4325353098746
96.4951861609499
96.580494191677
96.6192894404718
96.6549942634323
96.6578071223554
96.6757845012551
96.7028492983179
96.6779442126965
96.6709492582376
96.7501385365584
96.7919283580177
96.784719805036
96.8196215709256
96.8342706899601
96.8298858481401
96.8448117653772
96.8770850705854
96.8605092480103
96.8508243030832
96.8923374798742
96.908172418093
96.9439020533875
96.9692693652594
96.9420430965395
96.9304259695806
96.9545688521334
96.972996200369
96.9863524435002
96.9709902825872
96.9331144705826
96.9149033986917
96.9169799890822
96.8912929018039
96.8835983211586
96.9171324605142
96.9613593639339
96.9906535350761
97.004793464719
96.9820768154317
96.9817721067473
97.0216496818842
97.0829184245836
97.1180030009894
97.0985190723875
97.0713676865818
97.0662656464517
97.0807021013554
97.151739818573
97.1818046965669
97.1416641656816
97.1866558046342
97.2032816509206
97.1947818770861
97.1678796124983
97.168932099547
97.2603437473193
97.3572635525904
97.3469390667982
97.3065609890024
97.31010227209
97.3111532430831
97.2492583466938
97.2329472695284
97.2994398373815
97.3596295181378
97.3525842058147
97.3175416961538
97.3296765993488
97.3828264663805
97.3867139297078
97.3843297356763
97.3475885971922
97.3853627399623
97.4517175589477
97.473092041886
97.480274999106
97.4681989661029
97.4618628322842
97.4644088793365
97.4554639317404
97.4797082560016
97.5553780068847
97.5195065690049
97.4593892196224
97.4474780127972
97.420363427126
97.4565974466334
97.6067752083606
97.6259687642988
97.4840555693598
97.470182809005
97.5436859365189
97.5643098024877
97.5922071409957
97.5626553853078
97.5777224970991
97.5971390444128
97.5903616803174
97.5901235533871
97.6180632431347
97.5842114350124
97.6163643304771
97.563201109075
97.5388471467893
97.6425258667892
97.6896976311657
97.6367949764936
97.5702437273336
97.592091147714
97.6346805330693
97.5824927541386
97.5570029852356
97.6210275722324
97.5934557003108
97.5170283415266
97.5551397358436
97.5160552212226
97.4787487772079
97.575207600768
97.4861793612098
97.2218675030002
97.1540483639521
97.2921250914016
97.3262669643746
97.2542138146168
97.2093769000135
97.2167744021228
97.2470956326828
97.224165503055
97.2193861395433
97.2783649704938
97.2162080256022
97.1435073394996
97.201505085118
97.2095889494206
97.2298509805964
97.2420853298788
97.2040471408582
97.1763671283434
97.166378561347
97.1981449210211
97.2724255704972
97.2264300518637
97.1760521638262
97.1357115656674
97.101362819515
97.1071490949188
97.136668828657
97.2107756559691
97.1663576461254
97.0659652537193
96.9379013201157
96.8403429539382
96.7461756185534
96.6077234018699
96.5454703322647
96.5838071552659
96.623306394908
96.5828709375607
96.5259091158629
96.5333521033907
96.5323865904218
96.4728152829714
96.3701247613118
96.4374829456558
96.5202228420376
96.3775022894109
96.1197159194116
95.8320616930427
95.4939810854516
95.086259355496
94.6290159606615
94.3492648385598
94.4002389225005
94.5907343005592
94.8006754604979
95.0887892552829
95.4256187366534
95.7694501633956
96.0690588225114
96.4075640955948
96.6051076302242
96.683917302424
96.8492096764051
96.9608646046103
97.0160012947977
97.0803615945716
97.137309621071
97.248214215807
97.2737191585059
97.1907471155149
97.2004096119626
97.2755428871386
97.3698749417951
97.4359389010143
97.4166696319223
97.3049184537767
97.1695355058791
97.097904872063
97.1457525856348
97.2667653914807
97.3238480706699
97.311543954649
97.3112871651839
97.2632135515249
97.2670619423126
97.2610182846154
97.2909574383872
97.2783452825294
97.1543138846264
97.0302160994876
97.0604545593591
97.1555314043611
97.2074625284514
97.2567404716357
97.192462279402
97.2057878319093
97.2800764264062
97.3403660438168
97.3836554571288
97.3795328815536
97.3489776192264
97.3882711831047
97.4143063848354
97.3796325794876
97.3962001051421
97.3629264377294
97.311922582967
97.3387550377109
97.3902344028837
97.4633536677206
97.5620838882826
97.5240174943738
97.4789874221647
97.5678690370962
97.6880251476233
97.80165092299
97.9146894954509
97.9736990252302
97.9745297007626
97.7966001222489
97.7579531213589
97.9995123538467
98.0566134228085
97.9874155945373
98.0049111473318
97.9602724486802
98.0836513831973
98.3261128182191
98.4412309513654
98.4160135701056
98.397630614307
98.2528747835099
98.1819567627735
98.3048618523642
98.3236343072458
98.3715934334774
98.3989858714846
98.4610653576518
98.5897971454742
98.6715442629266
98.5669516981453
98.4750332303991
98.6746357052229
98.7655550462383
98.7034942642102
98.7481983794466
98.7867960304265
98.6281972193465
98.7228689316605
98.9632081327283
98.9396121009067
98.8236636610018
98.7680616354862
98.7696166734871
98.8901076398411
99.2519984264706
99.2895247905649
98.9764665278514
99.0898130908011
99.2202139072876
98.9949941842939
99.1554822447836
99.5249470566684
99.6525141210823
99.7218222167043
99.6863931218334
99.5028796980385
99.2658574624938
99.2057626462221
99.2107062721138
99.646165228552
99.7141225454903
99.2266293702148
99.0763786806402
99.4932194921246
99.9499857660841
100.388194510171
100.396997784407
100.247025307924
100.112556764755
99.990822302425
99.6016527506064
99.0988787184309
98.8231772123163
98.9094108455228
98.8132299542242
98.978053595497
99.1083874341817
98.9265654169672
98.6936135094161
98.7360939662193
98.7257874958138
98.6976422148997
98.5906302535995
98.2905394716769
98.0692864289041
98.0280327452311
98.0211623003038
98.0134363497883
98.0902743943636
98.0903773179014
98.0902050885882
98.0883276835638
98.1886898227836
98.2433084056392
98.1239831022186
98.002331954419
97.8982932649607
97.9936958927656
98.1117530205345
98.0717999528855
98.1157537621889
98.2238925901121
98.1021055447738
98.0340857821084
98.1731940924873
98.1758032629243
97.9123626060416
97.8728413026984
98.1146656582378
98.2908633730219
98.1989488022251
97.9910107865261
98.1062748042177
98.2163629446493
98.0792134311694
97.9107518787211
97.9461786354019
98.1166713095818
98.2342163382172
98.3126069020458
98.2106270110395
98.2929323747566
98.5461579356354
98.4848594233933
98.537971293723
98.9021249678682
99.1664304658316
99.2941567803208
99.3723841284471
99.4395395215914
99.3950550783412
99.1383094351318
99.0783577743504
99.6256947061851
100.112038404937
100.138900922566
99.567733632406
99.622297503815
99.8995916683344
99.839640313401
99.5171097275658
99.4747569750663
99.7622099892791
99.6248399132769
99.4369115834716
99.6676240697957
99.6176816902934
99.6129810452509
99.7632665895637
99.902646878587
99.6629528664501
99.7276103485589
99.5555977260091
99.115246513231
99.1143212323315
99.3244301393254
99.4024217200569
99.3707979893962
99.089567605076
99.0364058505366
99.389386832432
99.3892445236747
99.4166877732612
99.3052675747588
99.1456446853213
99.1434437320692
99.3109679487133
99.64090063357
99.6057199138248
99.4418889791718
99.4002892497181
99.5047044569563
99.510155084539
99.4953057918624
99.4112833214886
99.23979248804
99.071915598238
98.7662747009385
98.5788532999471
98.7688539368928
98.9533683239865
98.8825387208583
98.6610881110918
98.8204377367441
98.9884989453071
98.8968141191449
98.682593289694
98.7032852566139
98.7206357599633
98.6454814522884
98.5935090836811
98.6589626275638
98.5536923554558
98.4021383480197
98.4203231109649
98.464940813825
98.4733503125049
98.4580533814518
98.4119552297922
98.417931542256
98.408860790287
98.4305936892232
98.3901753434623
98.3136997382083
98.2820177954792
98.2585883288969
98.3499540722303
98.4385117675776
98.3903069248849
98.3569214492889
98.3314288661737
98.313928939346
98.3911039478715
98.3717885898827
98.2953858426701
98.2410221548481
98.1816542426439
98.1771589765036
98.1842785553502
98.1646881586718
98.1641197031273
98.1482549351398
98.1769112871014
98.3191095652699
98.2539260673882
98.1850504417074
98.2286289028127
98.2603770532884
98.2307290021855
98.1870628020334
98.1826698066978
98.1903879411734
98.1761332242157
98.1570317575299
98.1418332612117
98.1876440232468
98.3115053211462
98.3535675205688
98.2904850251921
98.2350641188905
98.1986139345631
98.1937103496167
98.1348644051723
98.1056851701915
98.21595376308
98.1984010872809
98.1712424310299
98.1826320822672
98.166016995427
98.1774963138364
98.2387759878463
98.2922285321535
98.2184749379073
98.1547569877379
98.197849696933
98.2072333784522
98.1707077531295
98.1856596142799
98.1796255092683
98.2125528097374
98.2058772429312
98.1033515100643
98.0580085484323
98.068411110442
98.1805951199799
98.2184117212754
98.1180974699976
98.0614808386531
98.1411406576454
98.1440368435519
98.1247070758943
98.0831156295962
98.0243935020157
97.9594039753478
98.055513519069
98.2067084842056
98.0969791801413
97.4374345590141
95.4386345509295
93.1380879283368
93.3915334813412
95.0319592048518
96.0990055048488
96.855839913665
97.1921075375975
97.3513304218633
97.5964446828868
97.8017855215757
97.8183313235691
97.7814575446546
97.821555091501
97.8458041392237
97.8549088542103
97.7478102603747
97.6359311361929
97.8696825788339
97.9150553953482
97.8588622322725
97.7606481157337
97.7033749540299
97.6954306452542
97.6552046755704
97.4952328230844
97.4733111067754
97.6879475386794
97.8284635729249
97.7850867350672
97.6369542802976
97.5429223627339
97.4409855713867
97.3722874537345
97.3048206206802
97.1252158079798
97.278834194939
97.2777664048046
97.2185839986163
97.251758603093
97.0695178039851
96.8576578669045
96.6589982001928
96.4681747929134
96.4452958272743
96.7232218660364
96.5921265955852
96.3921730159139
96.1204096043872
95.9842546281918
95.9890868897609
95.8667344552679
95.8213467153328
95.87469489858
95.7607583756336
95.5855378323933
95.5695887002556
95.5186417054059
95.2552365118733
94.9533461513774
94.6823331276529
94.8483783916733
94.9171366810114
94.4727998753139
94.0641874233748
93.8600255109203
93.601983671779
93.204892006372
92.7734665790313
92.3724171983583
92.326701422136
92.9016069166941
93.2082301804174
93.2803796381926
93.3401470225423
93.5657930448773
93.7682853241863
93.9988647374962
94.1621610909072
94.0895204163366
94.0739368692706
94.4384418902016
94.6585134966451
94.654152974792
94.6511649028938
94.671724976743
94.7642757652816
94.8493278985892
94.9355667428379
94.9947704250162
95.0417496569859
95.0717129510357
95.128233889483
95.2083695249843
95.3066630291514
95.3797449891532
95.4066486707142
95.454348816101
95.5539843890291
95.6058181641788
95.6149099044365
95.579770614062
95.6641794807684
95.9388892895176
95.9416221995284
95.8728561304101
96.0668987777914
96.2236033911526
96.1657329363045
96.1244521749544
95.9507648680063
95.8539418143607
96.3986564846691
96.6326247712886
96.6440028854999
96.6213759061708
96.5424641752749
96.6538558516058
96.6452883853095
96.5506955190061
96.4650271486859
96.5624720512916
96.9256480800219
97.0376006257348
96.84113727975
96.7353014840591
96.8048559141107
96.8223357978448
96.7694890280348
96.6790888095823
96.6844654203218
96.5961861427067
96.6794292774338
96.6690138911296
96.5858294511461
96.5947637448287
96.4122769292655
96.1903768743076
95.9702420912505
95.8817566431458
96.2054917428674
96.2843222745526
96.0403512605328
95.7733629751132
95.6379530099459
95.7111359593455
95.7700521853337
95.6002147643727
95.3938462142894
95.383678749842
95.4192128531103
95.3806904351468
95.2580004252045
95.1493898598082
95.0258011541685
94.8487562452676
94.7103342412824
94.5784594009228
94.5312126283166
94.4725193707807
94.2083722071347
93.9046394524231
93.6879336889227
93.5754027738921
93.3129854152642
92.9981323958202
92.7924102829401
92.7644178991037
92.3454333119543
91.5740283418434
90.5316152261885
89.4228519590661
88.3100336031276
87.2685805558209
86.2641720245713
85.2931305348902
84.40376585841
83.5665725492651
82.5286985809105
81.2795606094142
80.6704247707234
80.9683093101469
81.1217083040314
80.6536069980932
79.9781636735909
79.2302752890765
78.5138584851133
77.8837053392364
77.151225536229
76.345215047459
75.5322142768229
74.7193882760751
73.9410512482002
73.1346800606568
72.3371985438963
71.4828561070955
70.5916895387184
69.7007529152006
68.838829697617
67.9173343705951
67.0031576901999
65.8683602637622
64.6315689186878
63.3461355932783
61.9924392793512
60.4565857358428
58.8419478847293
57.1756464728816
55.529933379768
53.9254347972068
52.5628247554573
51.7293146275923
51.3221815602256
51.1559924685822
51.2594110446184
51.4291118437998
51.6223202119069
52.0222864778681
52.4816644539567
52.7797132155823
53.0411178619991
53.3020397519442
53.5916910990707
53.8564864766963
54.198342174731
54.5828831447332
54.9532358913058
55.2981654841114
55.6359059694343
56.0840808848854
56.6527557802835
57.0972320664282
57.4569131227877
57.8136057133501
58.2574382002931
58.6756393077493
59.0934392441479
59.512847701385
59.9588547791785
60.3717292629761
60.8208552936201
61.3146982779951
61.7792573518055
62.1712797045771
62.5972895146371
63.0039373114581
63.4100453597097
63.8065904537888
64.2232228773177
64.6196435623324
65.0206016545584
65.4137248937665
65.7923395107289
66.1727240759923
66.5782813760392
66.9539526876112
67.3289625184541
67.6986851486099
68.0904778256983
68.4659244728549
68.8481211768674
69.1881651607369
69.523516008041
69.8665375290378
70.2237776310648
70.5480809102857
70.8636311169833
71.1749948986195
71.4931913080702
71.798626301231
72.1102485352372
72.4007782744096
72.714006494727
73.0128766324587
73.2902369032355
73.5660949686277
73.8377313697179
74.094029592427
74.3491481551965
74.6033987436444
74.8714040344427
75.1499985784484
75.4218815777944
75.6711524953156
75.9104838408817
76.1326270938634
76.3681350735393
76.60350635794
76.8035232890119
76.9818309020625
77.1777161578169
77.3482765276048
77.5057425698045
77.6347586096547
77.7354097539846
77.7944149095902
77.8190505316438
77.7891895296375
77.7383350461858
77.6516542285954
77.5521685371005
77.4078070954049
77.2106861217359
76.9864105516046
76.7720503810436
76.528984289593
76.2661788042746
76.0127066521177
75.8628638729167
75.8109576202479
75.8831364799604
76.0955790584667
76.3871317750106
76.6873719983534
76.9517141223383
77.1539254061304
77.2834810887284
77.2914568419216
77.2059302905439
77.0506646786512
76.870983139625
76.6483833947373
76.3756688409308
76.0787143647382
75.7779530545478
75.4622316026512
75.1490824753259
74.8451484914971
74.558046641108
74.2495023635607
73.9660067285823
73.6890655240483
73.406039739063
73.0775972488979
72.7624029185342
72.470472703802
72.2227898743874
72.0176827208722
71.8896397861381
71.8693383711578
71.8912274656478
71.8488838797164
71.7467830950047
71.5622290406672
71.3026791797995
71.046831896237
70.9411002182725
70.9593925147207
71.0270678115568
71.128684110382
71.2749495523066
71.3789268846548
71.453082011577
71.5009231059588
71.5521314753985
71.5938599700473
71.6221488952498
71.63272295323
71.655879138674
71.6908554129074
71.7835331837873
71.9158313595599
72.1225351098769
72.3762886931295
72.6529797625347
72.9563245939278
73.2941282054959
73.6437473545965
74.0448335379534
74.4587021952287
74.8880745416198
75.3110028181417
75.7652222293811
76.2340449479466
76.7059444058438
77.1517832646253
77.6034550714387
78.0566355647174
78.464180812063
78.8402443497218
79.1975880613732
79.5811698620905
79.9636989127634
80.2022788467805
80.1666149723763
80.2374081306742
80.730294405333
81.2592906023639
81.6604967777714
81.9733331822025
82.2712401333533
82.5684069572314
82.8657626816762
83.1244585672268
83.3624763418519
83.5474740111229
83.7797210974016
84.0408743934058
84.2511490802071
84.4476014041677
84.6401880910131
84.8160520646961
84.9867954541299
85.1477839494754
85.2974993209194
85.4298921251016
85.5906296567688
85.7064499260242
85.7709516688744
85.7861871869048
85.80037175898
85.8613928043201
86.0014152271196
86.142548098706
86.2395598087118
86.3605467997052
86.4911990599212
86.6172225023126
86.757636250041
86.843452641019
86.8493184377427
86.8216523380521
86.9056333921732
87.0888112335316
87.2768881461801
87.4381390686321
87.5783978448763
87.6997289664881
87.8069376078559
87.9122216499668
88.0521112503756
88.1706192922783
88.2467253821121
88.3447151808933
88.4440742379707
88.5031796443623
88.587493935096
88.6616892188643
88.7263767882788
88.7980406155368
88.8872909427803
88.9400000199257
88.9716578916003
89.0456707441982
89.1370848188416
89.2103270276156
89.274954462921
89.3238742110628
89.3723027110304
89.462394286791
89.5481281686188
89.5948581856001
89.6259533404302
89.6475779176448
89.6949172931661
89.7856027433308
89.8615941104726
89.8796310369684
89.891179044228
89.9436473594061
90.0189224060024
90.0592573770886
90.0971505926983
90.1510419640043
90.2292890250286
90.2744928198697
90.2774215417742
90.2956459718363
90.3507981180919
90.3883457002355
90.4228439907818
90.4678844964384
90.5027009900957
90.505056389494
90.5369665061043
90.6251811377683
90.670519056981
90.6524795160902
90.6548929577765
90.6552179647277
90.6487711454231
90.6817715351807
90.7023311815512
90.708922846123
90.7234711931048
90.7279066070164
90.7021005124038
90.6898421521133
90.6587414294112
90.651411717008
90.6709211640318
90.6574810591227
90.6077205295046
90.556413829866
90.5308149657529
90.4659625452773
90.3576413312422
90.2915846143137
90.2765527213106
90.1088578163284
89.8221974664551
89.3976831284989
88.4510778448039
85.5442439291749
78.715134160497
69.570940105371
65.0402554806923
68.7963713394285
75.9952121226309
81.537516950665
84.7967683735802
86.6415288778453
87.489919017849
87.8412556657528
88.373089833535
88.8843606160106
89.1724573927333
89.3486282127566
89.467468341174
89.4882655881946
89.4574576641083
89.4641668975279
89.4702441362405
89.4330309266828
89.3995026351749
89.3862639695675
89.3675208171465
89.3661833716952
89.3350993746094
89.2618816551523
89.1939755941905
89.100942779516
89.0263006847347
88.9242056906479
88.7774133928601
88.6299462014072
88.4927623204137
88.3641148957303
88.2531279759653
88.08328956564
87.9299335165178
87.8131349057077
87.6768868325165
87.5758532455337
87.5258133609284
87.4202766668847
87.3597100624539
87.3402931090379
87.3532364895024
87.3880543324026
87.4464621679218
87.4890231311057
87.519878774157
87.5929044048488
87.670989845314
87.6785624544443
87.6332632341187
87.6595622065424
87.750412873966
87.7624489788746
87.7679475919928
87.7588712661045
87.7904992697884
87.6927349529877
87.4232974315745
87.3952436292942
87.6002777287022
87.6766773607174
87.6687069767828
87.652857901047
87.6221866038603
87.5809783306856
87.5280823034444
87.4716146621596
87.4496489834829
87.4152235517121
87.3731681997476
87.3306414225607
87.3306429292137
87.3458719922613
87.3393246206816
87.2620250804225
87.1591645891236
87.0499023739036
86.966336604125
86.841977614322
86.6488452425676
86.3489077658809
85.9935574940774
85.5965545670466
85.5644493791907
85.3094204476589
84.7225024238593
83.8765122745296
82.7093510328276
81.7251971089247
81.5124976915996
82.194083756535
83.1624918763622
83.8077125427851
