1798
3999.43349933624
650.420452594757
1
128
4
93.4693880556149
93.5245064931331
93.5533963720735
93.4624196837712
93.3255815379783
93.3812595948182
93.5315139377324
93.5411021010586
93.482467945844
93.586919371907
93.5624497663749
93.459293932498
93.4848309496648
93.5487478084072
93.546247478383
93.4682117371147
93.424318329309
93.4705717719257
93.5012885469825
93.5001533165563
93.4742030594745
93.4544124050848
93.4127144818675
93.4786218861092
93.5892964384927
93.5726767508799
93.5046512345383
93.5094301996703
93.4585860801005
93.4399455773378
93.4583898618753
93.4903693586803
93.5145020756741
93.6416466643172
93.6521111728637
93.580286235651
93.5534407942112
93.5768485070709
93.5145563134497
93.5330163688049
93.6417071350733
93.641865526322
93.5999374314426
93.5459271117012
93.4486295345804
93.4529076324724
93.4695680696951
93.6116272307512
93.8157390519187
93.8949577788132
93.7930893387105
93.6876005469943
93.5453885358261
93.349124723667
93.3243838166694
93.4826588191969
93.6117331849009
93.7401365522038
93.7126703068564
93.6334004420441
93.7114749693706
93.796078275605
93.6815106823868
93.6135426343403
93.5861840899564
93.6310139278979
93.7590868278718
93.8479229687209
93.7369409637657
93.644927873772
93.6217777738707
93.6675620491754
93.631502838735
93.6382894123128
93.7747000795609
93.9480835609048
94.0690717030651
93.9967622216153
93.5821321099385
93.3124010762425
93.3760113661221
93.6504261499491
93.9422188545996
94.05935073008
94.071056310508
94.0329113107501
93.8695280545584
93.7900341452486
93.7531144060961
93.7223051090887
93.64053806762
93.7022823660452
93.939765660706
94.0456754354418
94.0206582178842
94.0101626256356
93.8519038699122
93.7241968893389
93.6859754335876
93.677746591449
93.8236342351801
93.9386909875546
93.9809177012943
94.0622537028054
93.9851146042381
93.9350924875501
93.8248827623432
93.7360761505361
93.753629282296
93.8188722202593
93.8614528288008
93.926382803483
93.995361461959
94.0587197097829
94.1068896182763
94.0737014752571
94.0200267679395
94.0517303965965
93.9976369115765
94.0094396786319
94.0435351469776
94.0817582431579
94.1003072349325
94.0417528850935
93.9045029280416
93.9482303204733
94.0813984620698
94.1559621766171
94.0477989653276
94.0102938737349
94.1486621554175
94.3169746597662
94.281417584731
94.1995348585222
94.2338624989013
94.0149535289552
93.7047342130798
93.8245556139595
94.0375219490616
94.1084802042991
94.2270049471509
94.3780154409181
94.0810479120359
93.7231645750388
93.7885064203926
94.118798019571
94.3546563993354
94.3634444636567
94.2376395985842
94.2630695898757
94.2915632766012
94.303323036982
94.4048950092736
94.4034523057038
94.1668928051124
94.1049509211477
94.1510980353468
94.167586223856
94.24640650368
94.3639967167932
94.3327785840966
94.3023008145161
94.3764487008068
94.5604911711885
94.676877612652
94.6050512778633
94.2754581441811
94.0375388164524
94.0217562554364
94.1554905525724
94.339889441768
94.6114930868407
94.7002739704813
94.5516113753738
94.2268933490466
94.0617590207064
94.0508192511322
94.0466673042169
93.9775504225881
93.9657796457577
94.1363333263847
94.3181272693199
94.273854338835
94.2763485348129
94.3441376245092
94.3714137711571
94.2954362067815
94.0301778445318
93.7477651873463
93.5561758900773
93.4291256993713
93.541478659396
93.6317549053289
93.6321517217508
93.6116266767198
93.7885102040285
93.8988892492597
93.7405983718181
93.461746411727
93.1499320256871
92.9898335882704
93.062127171439
93.2404884050796
93.3955709235239
93.2366975574774
93.0250268035151
92.8621227603732
92.7453639076749
92.7391146400005
92.6538587704455
92.522625343634
92.4656771156505
92.3427997615379
92.4139205077585
92.5484285502769
92.375647594786
92.0697325884907
92.0134593749213
92.1158426308756
92.0896140199041
91.8860624862044
91.82038223614
91.7170814791886
91.6523697657115
91.7019570570432
91.7175014396154
91.5695282199555
91.4532110866448
91.3926374598223
91.3633727040865
91.3338222485896
91.2234540403093
91.0877797439117
90.895927447891
90.655049674628
90.6317749259106
90.7367461214435
90.8076158278516
90.6449911407622
90.5687171960803
90.5464862656377
90.3248895239618
90.0828042912126
90.0530277640297
90.0679726718193
90.0899848930154
89.9710078878651
89.8197781212122
89.7085635785555
89.656896804763
89.6311413805995
89.6110575828595
89.4968645173008
89.322781771532
89.1977660407779
89.2409241845404
89.1759306365003
88.9440471488822
88.7503722294997
88.7997999665824
88.9146948429741
88.9196786145615
88.73709199426
88.6253186835915
88.5505834388632
88.5285518315544
88.4447095470928
88.3484114724415
88.1743362129639
88.1108416329803
88.0522694488702
88.0036952768398
87.9121289002572
87.8459435965142
87.8746396236623
87.7376101912265
87.4905977778991
87.4721664796105
87.4180775223211
87.3141550574137
87.2516970180746
87.2216633539806
87.1234208987376
87.108888446124
87.0447760385264
86.9382049697656
86.8596066871721
86.8001439760096
86.721314934361
86.6637499512078
86.5758591055198
86.5282564411569
86.5140725549524
86.4085970441369
86.2686341281836
86.2010214125468
86.084349778602
85.9776039541615
85.8767603025145
85.9156012322461
85.9039596143329
85.7567376739447
85.6361117704182
85.6300547510108
85.5850542542014
85.5066221695614
85.4139499330463
85.293649405322
85.2581630988005
85.32507468305
85.2652299779138
85.0881204240268
84.9455692525297
84.923226719452
84.8632158017565
84.8637226690033
84.8196032436365
84.719642310938
84.6400654777758
84.5916695041142
84.4796771895969
84.3690893094319
84.3297619551707
84.2978858981588
84.1807168568049
84.1714038337022
84.1561194856153
84.0748278084962
83.9916024807485
84.0347644108094
84.0116095104235
83.9563584068963
83.9041611896375
83.8520420882103
83.7096621486876
83.6173791786589
83.646213370525
83.6468004939042
83.4809593401016
83.4251609456009
83.4252818141585
83.4012522272835
83.3163574923675
83.2512345243876
83.2638563837729
83.3429096012052
83.3208457506994
83.2012035571565
83.109334974838
83.1223825441845
83.1336064907997
83.1495152744344
83.0449400464967
82.9335884129252
82.936131792914
82.9622252755104
82.8421832289116
82.7787733405719
82.835698004584
82.8293542415929
82.6997547408192
82.7215014894893
82.6968173170614
82.6599016523738
82.6412178532448
82.6028310539204
82.5654261616932
82.5670276190216
82.5759199782886
82.6349058659879
82.5780309652933
82.4525728613476
82.3822514988559
82.3764799301594
82.3475862669947
82.3727700265495
82.3437006024049
82.2569819784306
82.2548984007525
82.3277492492806
82.3182915124221
82.2648177208708
82.1800325337377
82.1523239274484
82.1904044676778
82.1558876694518
82.1205649627304
82.2502918579031
82.2632258489161
82.2140992599038
82.2641072671558
82.2921231662608
82.2134475820716
82.2028636988495
82.1717745737714
82.2095775458137
82.2225342260563
82.161890150031
82.1745040288311
82.2960585854055
82.3003659089857
82.3039554961842
82.3076582591057
82.3502174884549
82.2886148538372
82.2785407014759
82.3431681156332
82.4306575837166
82.4218227277036
82.3717820744543
82.3960864208195
82.4777558483284
82.4829668585847
82.4846150345021
82.4657998997743
82.4414470970797
82.4775497980979
82.5622114671162
82.5442270795725
82.5795172382768
82.6192339527875
82.5816317083798
82.633427777897
82.7238140408713
82.6558196387767
82.724564950423
82.8230474672233
82.8355286830876
82.8249223615879
82.8493830906217
82.7872042704657
82.779631558264
82.8802993240115
82.9682532346598
83.0112973981848
83.0737110745382
83.0500879510617
83.0905325781516
83.251178289926
83.3700417465014
83.3350211521811
83.3245605638244
83.3457158180934
83.3385748541872
83.3293418961263
83.4760889730485
83.5411625738237
83.5667322059853
83.704245682832
83.7934340723969
83.7567702912095
83.7446823648534
83.8172014749389
83.885210918078
83.9407213317681
84.0808614930071
84.1281614844431
84.1261282649946
84.186537871813
84.2235391028637
84.2680112060865
84.3930416411504
84.4121200224263
84.3614725461137
84.308460099467
84.4164531432332
84.5717779841437
84.5978271446006
84.5447751673205
84.5736345904372
84.6937329094973
84.8618922817883
84.9601868639426
84.9902532520535
85.0049977990442
85.0688578919949
85.0599365301892
85.0835186509567
85.1251078978795
85.1198495249599
85.0780175575556
85.1596270664856
85.2919439492436
85.3292374263679
85.2836044258199
85.3555325596494
85.3615290965224
85.3496789731728
85.3668500443648
85.4574889690744
85.5795578506377
85.6416093385131
85.6418491104856
85.596085515915
85.5591132322065
85.5960914633609
85.5660914643306
85.5917277662746
85.6784337976309
85.7491536340202
85.7899872255889
85.8203705078084
85.8086279600937
85.8449175299179
85.9262367608852
85.9976133036735
86.0334550668629
86.1290374110284
86.1630296923266
86.1693163347447
86.1390303876223
86.155652985286
86.2763499735644
86.4293641867939
86.4842685488274
86.4325427381944
86.4378408283052
86.4757394756918
86.4948095814488
86.5802105902688
86.647407350142
86.6679031552862
86.694122689469
86.7465536322202
86.7394021962791
86.8374860016532
86.9053633137061
86.9072153341156
86.9581936763646
87.0075838758865
87.0569342829045
87.1033431652159
87.1064688079422
87.0990418774775
87.0949910124218
87.0937229756747
87.0610751886795
87.1595900691005
87.2081949785255
87.1636776917319
87.1974789307284
87.2525871147442
87.2128644971258
87.102259837749
87.0242168304398
87.014532650772
87.0701520301732
87.1168893477965
87.050371510084
87.0059385972713
86.9877014336652
86.9127621384396
86.825639488761
86.8638556735328
86.8918970232989
86.7796834710554
86.7169022496231
86.7796411875192
86.7391304579186
86.6573103115953
86.6775490389493
86.6951687013254
86.6421961634842
86.677406627842
86.6546868220874
86.5870442719038
86.5379329381543
86.5197872347165
86.4915464190279
86.411425827584
86.3104891742083
86.3181430118356
86.2937669170616
86.2348407052665
86.206096380156
86.215511853225
86.178086909952
86.1288425456113
86.1365603381153
86.2234939245828
86.2646463638933
86.276692768065
86.3370963980477
86.5122367128658
86.591479966944
86.6505283261866
86.7528862845877
86.8724243466365
86.8953569326426
86.9113551507763
86.9397376891982
87.023418581683
87.166452410069
87.2267389437113
87.1798841396947
87.1801713893951
87.3028585197315
87.4094051716515
87.3485352968952
87.3114058721381
87.3910519799637
87.4795976450549
87.4597849780513
87.4769594037599
87.5387913596489
87.578895921008
87.5830784130896
87.5929325738322
87.617827939932
87.6593869915772
87.6806256738421
87.7535185610628
87.8052938712966
87.7673851565882
87.773706032066
87.8460092240743
87.8136407862683
87.8107222557805
87.9266212099389
88.0294188903527
88.0526271768872
88.1384730133357
88.2361027538332
88.3313904835543
88.4086072404026
88.503274059916
88.5243073394434
88.5182113818137
88.5178677457476
88.5736323866293
88.6802176879912
88.7420380865608
88.7986020312458
88.8473698301029
88.8823701032297
88.859355966637
88.8598566858787
88.9357989784633
89.0006422978179
89.0471991313632
89.0611647298986
89.0965645224621
89.139986956331
89.1716162750276
89.2080296968812
89.2804099224778
89.265749847059
89.2629781298217
89.3136923938305
89.3457811430004
89.3779695621559
89.3997267758076
89.3819418275706
89.3980124149911
89.4659931322714
89.5233490973351
89.5155513986376
89.5465605569694
89.5726717752528
89.5509517585168
89.5532310009901
89.5972343666773
89.6561128664536
89.698854802181
89.6749117603404
89.6422068626401
89.7037294434257
89.7326405340895
89.7012993494429
89.7900290777577
89.8533762489201
89.8645448181487
89.9075818190397
89.9091745606381
89.8948672735834
89.8918777845338
89.9061366114401
89.9705527745644
89.9906291261246
89.9729602346057
89.9424433931767
89.9464799252502
90.0073983045347
90.0532661420443
90.0501378656634
90.0870088559267
90.1632202589626
90.1592829182568
90.1018616285962
90.1141158259589
90.1578663992737
90.2126488767894
90.2319166588748
90.1977978311351
90.216339640308
90.2442228920316
90.2414502762294
90.3000056448187
90.3525170760597
90.3683002338104
90.3850318054954
90.3949633100742
90.4006728713629
90.4068591950293
90.3785870028166
90.3851727564424
90.4465675849958
90.4747442508587
90.4805460823136
90.5170096956714
90.5405707377947
90.548569653362
90.5344705049389
90.5500213503627
90.5809739239761
90.5577814470246
90.5340867231327
90.5382105435657
90.5937161571993
90.6490915167204
90.6027935587656
90.6055077719935
90.6852917584823
90.6885660367197
90.6429128672682
90.660179672564
90.6602184408853
90.6977468688251
90.7412712762329
90.7511294466991
90.7449050225309
90.7851793191777
90.7926620853694
90.8445288441744
90.8885787898902
90.8647441787367
90.9568681167706
91.0324106521328
90.9593489644446
90.9991968322292
91.0956838597322
91.1165167880889
91.0918146045139
91.1199642335642
91.1773791531553
91.2116882979274
91.2376650436741
91.2216369069592
91.2618141314497
91.3554431265468
91.3458998460873
91.3262574424454
91.4037586507728
91.3750616288826
91.3123452197982
91.3759136092408
91.4350896591327
91.4649543248353
91.4835906726029
91.4849411896966
91.5237968166027
91.5580822727518
91.5107955520587
91.4934109202732
91.5935899295473
91.6680851918029
91.7285176791953
91.7577642817129
91.6932778571989
91.728752242921
91.7656859710667
91.7649741682955
91.7346728416287
91.7940471793599
91.8961429089188
91.920224530061
91.904653643061
91.8721835754497
91.844361893295
91.88656127799
91.8605350739159
91.9029411393743
92.0646511656558
92.0340161652642
91.98421393622
92.0280370770216
92.0087814212994
92.0631581107254
92.0943819413431
91.9927976518248
91.9116538106218
91.9565614728987
91.9659599101979
91.9767667835818
92.1237476278078
92.1496645919749
92.142309355666
92.1340368974638
92.0251315101952
92.0127950443464
92.1033534926178
92.1591738784881
92.2722650987561
92.2997017300205
92.1845873765815
92.0804583899848
92.1123701904344
92.2211196361999
92.187377756059
92.1658173396662
92.2144395990066
92.2137277119576
92.1752888425609
92.2616685207892
92.3699847182689
92.272999041212
92.2315632939576
92.2902883052736
92.3336193175841
92.3714695726868
92.3554032381818
92.2956340701379
92.3045259982632
92.2563012620039
92.223650929802
92.2730635378835
92.3165582887479
92.2941843258013
92.2796664939498
92.2924871600296
92.3534820574493
92.4107435928576
92.4446977317358
92.3801698419463
92.2854676725243
92.2947722972609
92.3825995591355
92.4488953642819
92.4906100679831
92.421076801763
92.3205463143434
92.4113977724452
92.5830163900823
92.5964668729422
92.4911451909794
92.456082737319
92.4729459627748
92.4995020058388
92.5599527833228
92.5703856248128
92.5379284892142
92.5039252974914
92.5695339417894
92.6018683293876
92.5083370951292
92.5068412581788
92.6621762595491
92.6665522593229
92.5462605978647
92.4718211914876
92.4712777699545
92.5522508344162
92.5544160114673
92.5411003324869
92.5583976892599
92.5439338372661
92.5577834177409
92.5267332101505
92.4990877120901
92.5445013697582
92.6279314119741
92.6019420990044
92.5886044920611
92.6279462152322
92.6515420359633
92.653634120304
92.7161324404003
92.7952012262777
92.8645735853052
92.796684822137
92.6169837985154
92.5924833974137
92.5763293934566
92.53854228839
92.6139664764461
92.6701706642465
92.6007508149286
92.5763044358836
92.6601941431589
92.6764756489531
92.6818719441595
92.6417889138205
92.6030170423118
92.656854076091
92.6856137988221
92.6849399746102
92.6969259448717
92.6569782963645
92.5729093852602
92.476015273132
92.5082117683031
92.5966600139428
92.5803056215517
92.5818348914902
92.6849041748893
92.7477501025541
92.7288344389285
92.7675623614691
92.8433041103886
92.8379738527283
92.7508856075255
92.6604650413668
92.63700224836
92.7321232017913
92.8297883380363
92.8727786792987
92.8582961742025
92.9291517413313
92.9752899687816
92.967720733508
93.0524780607023
93.0486879304435
93.0348206416866
93.1415499160207
93.3101363064178
93.4970571808337
93.5266502227077
93.3533444466961
93.3765712067409
93.5334585599787
93.6471090059712
93.8091205746746
93.8309218363057
93.7702481703321
93.9035732328923
93.8960625017026
93.8986249706997
94.0428406330853
94.0469674836096
93.9202993259209
94.0024761687773
94.2897723230313
94.2813244160686
94.2217597133981
94.2430429413112
94.0949293458605
94.2261850418029
94.5073118970158
94.4497924662079
94.4327212158673
94.6610974499005
94.7583917437443
94.7049292924266
94.7122390657075
94.6861332328052
94.6328811994631
94.8287755763957
95.0597132310646
95.1917421252434
94.9847980966742
95.0077269502422
95.1324045089533
95.0997974624208
95.0891931624513
95.2278985736601
95.1962230693813
95.2051186844802
95.3007161792541
95.4328945481517
95.6898725333831
95.9374463951353
95.7559774283747
95.4960170774713
95.5855769599336
95.9846695455262
96.3065006313618
96.1281954439139
95.8316370588475
95.9516392161539
96.084327674061
96.3998214869671
96.5569012392308
96.3200028956518
96.3713233005196
96.8198692720282
96.9873417002891
97.0208095983722
97.6087596562913
97.7279887204593
97.2777318902169
97.1817427828702
96.8902600665523
96.3688298012338
96.3475277982696
96.3358885356766
95.9154497905331
95.8276739794383
95.7797546372351
95.7169800770661
95.7010901263016
95.3943800062896
95.0964037039509
95.0025180718475
94.9371122798865
94.9296016607751
94.7526152473966
94.6510850240714
94.6703343634175
94.6705617767873
94.6518400961712
94.6949244411108
94.6624322399342
94.8526026906768
94.7672118390368
94.4142430636809
94.3695606293237
94.5496409905172
94.538855859912
94.6363511865821
94.7723428405769
94.7137818181762
94.7094259496087
94.8082269435196
94.7731494494608
94.7257607986926
94.7478260558712
94.7804858891867
94.7686453252224
94.7328798257351
94.800773454937
94.9792663894236
94.9943801190438
94.995373442543
95.0819578815174
95.2540294811871
95.2460784193893
95.1532501296784
95.3020488917279
95.3885609402117
95.2178020074011
95.2548835969503
95.2269234226656
95.4809802180934
95.9052791087892
95.9216339129463
95.655981346376
95.8943925799554
96.1826606234421
96.1670252676058
96.3832668719815
96.7369849939991
96.7556577736209
97.0749252758718
97.2987269751414
97.4164567744003
97.2162518158603
97.1999135050126
97.5902951556498
97.9694128763499
97.8661801045937
97.4670257173462
97.0340124734823
96.949440995131
96.968824998189
97.1909511921064
97.098473020928
97.1316832568926
97.1988249085314
97.0115007346207
96.8146535457539
96.829948694808
96.8106766161479
96.7285610463026
96.533280313377
96.5305042760331
96.67808749357
96.6710965878188
96.5119136892895
96.4956997218704
96.3417467241667
96.5139201736798
96.5856180935275
96.7081596043981
96.9640966944287
97.0557551558495
97.2226159071413
97.3240623205997
97.1790426482905
97.0613073887624
97.0998182605585
96.911741577662
96.5954953077738
96.840732924261
96.8142317736111
96.5118181797621
96.2173594165423
96.2473485229883
96.0356169817403
95.9367175209503
95.9918597977354
95.9459717628024
95.9200474672087
95.889288624426
95.8041737376496
95.5807776568154
95.3297803669966
95.3735391573509
95.3812222481211
95.279065508962
95.3531341053052
95.5317573716508
95.502414697683
95.3966167134814
95.2560224704074
95.2809037066027
95.3089637018817
95.2673661944327
95.2507929532764
95.1732627932718
95.0939573570881
95.1123820897229
95.1095647215575
95.0952227923782
94.9494406073803
94.9738579678884
95.0613311843255
95.1112396188336
95.1203851527264
95.1136311886309
95.0859764800765
95.0415230984014
94.9831298693951
94.969659032054
94.9484821466248
94.977456249625
94.9243505445555
94.9107490485765
94.9364030975997
94.9511563378488
94.9546194095592
94.9968244532222
95.0104945064667
95.0159560416449
94.9721396431646
94.9981006172589
95.0028178693748
94.9597518833016
94.9283781283972
94.9673112894832
94.9302274563805
94.9135421774285
94.9427907555191
94.9404857331795
94.9363671582222
95.0167063181725
95.0392842128851
94.9630042418443
94.872958217233
94.8475467749813
94.8399593804415
94.9322908038445
95.029372841771
95.0555080082177
95.0465525545789
95.006258767651
94.9612011640498
94.9402835344669
94.9522043697764
95.0014284278069
95.0142019419189
95.0445703490293
95.0736659560775
95.1000172759929
95.0083111854291
94.9508809115386
94.983535895903
94.9818246423689
94.9638009455039
94.9491234273181
94.9113579048592
94.9033141719738
94.91242552646
94.9149144718437
94.8408751991253
94.7117183106411
94.6802559405849
94.7093185543979
94.6890109031828
94.6869256440735
94.6379588729252
94.527906755737
94.483157547074
94.5092667855058
94.4604991070765
94.3686870674515
94.2002884262046
94.1069221976599
93.9464133005562
93.9119173030843
93.8918677162932
93.797566387759
93.6980387336551
93.5996374954467
93.4003309270332
93.3509524111683
93.2880974180138
93.1023427310818
92.8715504994075
92.6426262880541
92.4305654172243
92.2835057249217
92.1427568400989
92.057102495369
91.9781125774569
91.7992509753682
91.4095207374945
91.2083586366006
91.021618703795
90.8337869096722
90.7268402163381
90.6333618644531
90.5537111312523
90.5380905848263
90.3744465028045
90.0918562485706
89.9207592696145
89.8800815113157
89.8276290143743
89.7409455639467
89.6179384868742
89.5227160992172
89.4398751700808
89.332486027176
89.0131835847498
88.7065018099636
88.3123457541409
87.8243548614067
87.6552731117131
87.3942731818214
87.0798712545153
86.8056341632038
86.3300779064191
85.631298222843
85.2897861999232
84.953468813834
84.5211485514612
84.0487602529335
83.5619018004477
83.1790569555765
82.5627103310032
81.9524175494535
81.6506392496357
81.2283313141345
80.5998557134243
80.086149395826
79.7941438035316
79.4455569063162
78.8640478912502
78.0396032392987
77.7784176317229
78.059129931079
77.4560793754303
76.8337646434938
76.8627245971168
76.8458339595432
76.5924550403451
76.2961588803834
75.8247095248993
75.4274195820488
75.7623583799569
75.8790340973991
75.6217281087433
75.4300434797558
75.442321518957
75.3174564110083
75.3308188135742
75.5989372087882
75.4009933477958
75.0100733931499
75.2256490470508
75.4401854452615
75.2495155843045
75.1107511990559
75.0661907503959
75.0388914847814
74.9046278168686
74.7549907746576
74.6511957031328
74.6019313107581
74.5173346735318
74.4617000408434
74.4563914910332
74.4676741279253
74.4546225514763
74.5154746738305
74.5977916088652
74.7092416291937
74.8820015828954
75.0358357000824
74.8415335825151
74.7708160069182
75.5391151159237
75.765201041494
75.4258122484004
75.5752588507323
75.9670656102043
76.0375117160758
76.0973112735141
75.6723722355523
74.8336232410949
75.7929318346362
76.5215803660715
76.3785543621019
76.3566653361704
76.3195456603979
76.4342277763771
76.3657781695605
76.2300451574763
76.1650296809666
75.9573768644506
76.6890341919287
77.5335143552307
77.3103438976247
77.1132612609822
77.69022284209
77.8978144465386
77.8704572136526
78.0623731438018
78.2829499978358
78.1703962481885
78.5508550945031
78.9135984963777
78.8640235685977
79.20645618413
79.4458551392394
79.5706325784842
79.4050701330593
78.9581190300641
79.9231208865073
80.8936049513595
80.9308207549813
80.8472807070658
80.9311340606672
81.409145214016
82.0676585622917
82.2364407598614
82.1486587423332
82.5496806012043
83.1263996105014
83.4906643758096
83.6595821271495
83.8219438589483
84.0467498314816
84.0734023512202
83.927816780779
83.6752548370858
83.4842825932299
83.5180309358703
83.1810890131918
82.6565791398813
82.3624577949662
82.382045559191
82.0821772643977
81.4932875650376
81.0770619235083
81.377933798079
81.3377746880317
81.0715589987383
80.8523793215763
80.752444089928
80.8185833349549
80.7901383852604
80.7441956625018
80.7048706128329
80.4404100805741
80.1998321329618
80.3663372850899
80.1880769962609
79.7914200364717
79.5536136115941
79.3912131821179
79.0497688446996
78.7604848831398
78.4770325858195
77.9652366809199
77.9085001236304
78.0163998708238
77.8019155144501
77.6248214766029
77.5832332532838
77.5645570174423
77.4661671939754
77.4299798037252
77.5595019969374
77.5332867801752
77.4561306274229
77.5545847221922
77.4994732445691
77.6723409928808
77.8839603419502
77.740454167351
77.5507174124263
77.6763227510305
77.8202124526497
77.7632943671215
77.7404638322335
77.7583358447488
77.7443678293067
77.6501406735299
77.7679341608462
77.9772368718974
78.0310848348802
78.1769527895303
78.3507780662536
78.3601808085895
78.5559107637675
78.9072840935979
79.075255376102
79.1799229574253
79.3119544588183
79.4456488676051
79.5321340729511
79.6106366953772
79.7304875408003
79.865848915749
79.9861034002127
80.0063497033747
79.9997041130008
80.1516523312848
80.3275670759486
80.4094489534967
80.4659016749938
80.5555070408673
80.6371264313554
80.7175205467947
80.7853601047614
80.8485369754745
80.9011207836357
80.9553228830511
81.0438657244299
81.1125850506148
81.1577755810852
81.2418067531967
81.3383328725171
81.4141431047364
81.4783304424716
81.5412073239803
81.5982008361923
81.6386775969886
81.664808178374
81.7148909075588
81.7695088683963
81.7940109039208
81.8158346868634
81.8347027386484
81.8416761039345
81.8217942970503
81.7948173929625
81.7417558314803
81.6581143715143
81.5824089136636
81.4896308927774
81.3695112135784
81.242149838654
81.1147968526933
80.9666543109687
80.8071340523413
80.6604098036395
80.5269539219924
80.3836061685858
80.2562539648926
80.1654472193798
80.0761283352663
79.9913245540455
79.8823255902596
79.7484707285658
79.6663355007259
79.5864614369658
79.485753945619
79.4363156294003
79.4134501063686
79.3720203092917
79.3424506959443
79.3415872581763
79.3776682674635
79.4322265881777
79.4901227823293
79.5788519763009
79.6775400618342
79.7957038280856
79.9252981319005
80.0672751229732
80.2102649982421
80.3410647910762
80.4840781045256
80.619972841739
80.7534158106317
80.8941834817233
81.0034032117745
81.0937596747678
81.1954739615353
81.3146479809313
81.4701994807841
81.5927238744275
81.6941932543445
81.8130239414397
81.9046380952159
81.9747626939999
82.0099270592484
81.9743174642358
81.8918457356709
81.7796943820278
81.6465994004183
81.5193602719291
81.3851055863957
81.2286763213249
81.0871803143093
80.9953693311375
80.8624210209062
80.7310685032683
80.618377487086
80.4752990961899
80.3215937235591
80.1473235519137
79.9648856054556
79.7865047879361
79.6214760325783
79.4961797461305
79.3834053911594
79.2500285600632
79.1047927136158
78.9467374154573
78.7774941043535
78.5902249597664
78.3751957587949
78.1049361923188
77.7786198804714
77.4037636710203
77.0228748851356
76.6512592307083
76.2752580463669
75.947368146084
75.6898941445603
75.4734719488114
75.3038300077176
75.1724749985707
75.0896921509411
74.9967970091974
74.8669408745502
74.7531039236278
74.6847200424229
74.5644586271027
74.4053305302075
74.2254023135949
74.0387453821364
73.8086868347761
73.5530837344706
73.2864455806617
72.9743108105668
72.6281794461659
72.2820338630639
71.9221073433779
71.5645964203112
71.2007764618787
70.8301243137486
70.4617314864494
70.1512389184904
69.9053854252345
69.6459159735853
69.4065616280109
69.2422465999081
69.094471042456
68.9609705515693
68.8450445362656
68.7395002671663
68.643168666154
68.5461706858176
68.4556469581633
68.3469225157287
68.2099040974724
68.0744435465529
67.9106394299265
67.7573418453798
67.6089270812245
67.4921633278965
67.3768242337882
67.2521153741044
67.1510411031332
67.0883168844607
67.0329652013968
67.0144073339088
67.0370997003007
67.0817310999433
67.147421380101
67.2380854155301
67.3387468034725
67.4744470786054
67.6423459780312
67.8311501969399
68.0147987184391
68.2428965972335
68.5027349090652
68.7771565578013
69.0791640961769
69.4129858166022
69.7590074751745
70.1122191198399
70.4373121721645
70.7673510612261
71.087932721932
71.4417762745865
71.7770948772032
72.1074157651368
72.4236569536082
72.735867091622
73.0758309884826
73.4041641736657
73.6804403525526
73.9563732238687
74.2372223855449
74.4924040648189
74.7319135549024
74.9758070182552
75.2161198519096
75.4729513655769
75.7352269329372
76.0229535877942
76.3205439889395
76.6078360978129
76.8586863950336
77.1312728127577
77.4005312773381
77.6305213992044
77.8730715882886
78.0734304060082
78.2277138727687
78.4567998079452
78.6929759295972
78.8937784355317
79.0932595640292
79.2872921249672
79.5075400034403
79.7446612009628
79.9266875443061
80.1191599504083
80.3055602046079
80.4604057223901
80.6123826359776
80.7766209346031
80.9344908881948
81.0541739804398
81.1589502450181
81.2671026540394
81.350983374185
81.428290213921
81.5282781380959
81.6345165317161
81.7076910893753
81.785711253828
81.8861283140951
81.9890800396488
82.0290901763583
82.0714094229637
82.1392280012099
82.2049125368922
82.2525145649494
82.2688835711666
82.2628090722438
82.3034865204675
82.3766397054279
82.4268126203046
82.4367399972239
82.4131359319919
82.3995997211748
82.4100586646076
82.4054722875661
82.3975587262438
82.4178659830611
82.4270792439633
82.4183449169956
82.3897204549821
82.3642020045034
82.3573619459448
82.3624656647646
82.3250146568527
82.25451290785
82.2232069504902
82.2024586872098
82.1631709951849
82.0921537861735
82.0374620955384
81.974655794381
81.9223381395694
81.8500967998602
81.7496686100354
81.6415239156182
81.538832926037
81.4558246059965
81.4442483874356
81.4232213302934
81.3403142267033
81.2105290708122
81.130478286269
81.0474366794051
80.9725812762846
80.9072357158855
80.8280601741468
80.7501023047773
80.7120767700382
80.6457529090624
80.576572674024
80.5191951382097
80.4942833417301
80.4350589406852
80.3568179568949
80.2820193382521
80.2118977023588
80.1593656997564
80.0649029230674
79.9707945847189
79.9826298859863
79.8938773536717
79.7922505885196
79.7177770347494
79.6738400141611
79.6330474676272
79.5653595493963
79.4659876409632
79.3799315522799
79.3035525370544
79.2386390939322
79.1867476439915
79.1270852130407
79.0743347411397
79.008206061346
78.8887720138086
78.7856754943188
78.7227318795875
78.6367893705813
78.5456991174914
78.4936380309338
78.3969834694511
78.3123239034073
78.2044864769345
78.0558977646016
77.9267597296166
77.8575276878868
77.8121819373533
77.7337191437596
77.6272104061523
77.5203389504974
77.3926240693309
77.299065380044
77.210354597297
77.0981895489579
76.9718890300754
76.8337980836211
76.6755645767956
76.5755114348132
76.4751837548648
76.3495715740256
76.2529475297994
76.1486973001444
75.9458839675117
75.7561286249111
75.6287522783262
75.5314239131163
75.3474725975944
75.1487206455992
74.9517486245285
74.7771852595341
74.6390576546272
74.5444374434879
74.423907763379
74.3172551564009
74.1850406632971
74.0760581914921
73.9637391274339
73.8760938961304
73.7736988540346
73.6641859906966
73.5309275109676
73.396230654453
73.2872571907482
73.2285143812521
73.1425862973491
72.9733038836729
72.6924814126582
72.8232684215896
72.7424538362933
72.5043377276803
72.3895602419915
72.2489706882715
72.0999010268629
71.9838603874265
71.8731843771938
71.736481710405
71.5633065642909
