1798
3999.43349933624
650.420452594757
1
128
4
96.2571381135869
96.2217069859061
96.3157782488102
96.3572588176287
96.3421738868439
96.2712428859414
96.2920294020686
96.3912842905517
96.4142862533047
96.3169058867072
96.2036137043209
96.0986350566737
95.9900032388223
96.0627792551783
96.2793424389754
96.2813901214691
96.2544071489685
96.2726935324978
96.3417834377719
96.3383935971052
96.3555085983962
96.374659160644
96.3381496507708
96.2814646580278
96.2841261954154
96.1891111215673
96.0997674280352
96.1737027142467
96.2327181692795
96.2826247646239
96.3591003493547
96.351517380968
96.2903757746843
96.1842690123532
96.1311845293853
96.2392248721579
96.3837748780351
96.2676310741259
96.1783964296231
96.2815573975093
96.3875044093862
96.3290108555029
96.2312147660387
96.2922118782189
96.3954196652948
96.3819442971939
96.3699607148176
96.3683907953855
96.3044688567392
96.3579149996244
96.1966789962485
96.0638246139129
96.3699271411588
96.4264715883355
96.4160469379712
96.5618989234485
96.4964759096053
96.1512100167609
96.1133054030134
96.3406067049754
96.264819335627
95.9844055456391
96.0882062334805
96.401108211825
96.2839405801019
96.121354020023
96.2771487455473
96.5036235929321
96.4600532767528
96.295138855416
96.2859999875125
96.3651649398784
96.4394382523315
96.3976375899533
96.3151172323358
96.0143569274064
95.8234664870248
96.0657524576421
96.4306437190731
96.0669822063048
96.077096504754
96.4149429370719
96.4087263106751
96.2813846409166
96.0604592863596
96.0361008912501
96.1233330863954
96.3098480110274
96.4011768667074
96.2664247075688
95.9575100003593
95.9758423514465
96.3446529593714
96.5013768954159
96.3388691094083
96.205732911914
96.3163938491069
96.2151940149087
96.2265115163174
96.5932649773087
96.506474479182
96.0957986898961
96.0887910688072
96.2593060530792
96.2269630175394
96.2519841229022
96.2502403296439
96.1176457044062
96.3481665483485
96.3765055837201
96.335197750365
96.3607999250532
96.4720603387644
96.5771677134594
96.4043080281204
96.2813254469769
96.3461861283304
96.3367388065047
96.2591820668773
96.2620783669743
96.3799604444334
96.3880782707497
96.2972923499172
96.3884628159478
96.4012526696154
96.3564308975337
96.3749038209985
96.4225523825676
96.4620317200741
96.4557488888255
96.3243641104371
96.2644785559864
96.4602823310159
96.4789152487368
96.3339513951287
96.3210432330134
96.3333366991061
96.4594972934415
96.5040526767799
96.3123664554319
96.1387134994081
96.0989753960918
96.2051500464624
96.4334161801154
96.4606748430696
96.3500519134218
96.3587722452897
96.3980434913091
96.5455059836184
96.597963640513
96.5198624972928
96.460902446097
96.3663493582042
96.2688879023988
96.2170219535015
96.3331266374723
96.5151419188871
96.5864903039447
96.4927853928465
96.3799900122549
96.3900533511008
96.4300785309866
96.4855734879467
96.3894284793739
96.2878611431101
96.3207092682961
96.3700809386868
96.4731290049905
96.5264511054085
96.4276291760529
96.2407200690961
96.2627040263299
96.3408100322437
96.3755487053882
96.4004144237692
96.4065951125364
96.3435748498453
96.2921072549242
96.3156334952009
96.3779639081662
96.3998642645103
96.3903130746392
96.4772058221192
96.5040783230224
96.4022805896747
96.2785459713011
96.1913502599829
96.1191676153782
96.1521729849221
96.3301263874179
96.3741402343273
96.3501510665748
96.2952053222932
96.2560352878333
96.2701512647317
96.2615129446934
96.2115224500381
96.1058082533161
96.0751898096513
96.1853787284453
96.270743765699
96.1622484567888
96.0691482707562
96.0221928735225
95.9684821286387
96.0370100385617
96.0817310014522
96.0437555396864
96.0050195824068
95.9280606314706
95.9684375493283
96.1004286995737
96.1062382673629
95.9129621306661
95.8161897783302
95.8557308826912
95.8353657991873
95.7960474781792
95.8442615212703
95.8485348342448
95.746543222141
95.6924504947085
95.7731563628376
95.8034597600509
95.7779653782402
95.7842263959719
95.7903412333407
95.7732794358702
95.6420543335094
95.4321224053793
95.4896951761625
95.6090371062876
95.6131217881008
95.5911432456933
95.5449177272911
95.4914799139199
95.4618793322875
95.3520270700903
95.4407744631778
95.5457354444599
95.5225267859039
95.5254878532992
95.4695507551235
95.3748714899769
95.3072241040724
95.2544307042002
95.2562072845338
95.3165868727244
95.2815232836714
95.2345996511174
95.2456140879755
95.1828689287411
95.0617746398458
95.0443439819873
95.1108835232809
95.0373211729525
94.9969665863461
95.0652269405184
95.0465214576907
94.9566406184874
94.9410597398475
95.0819231908852
95.209280155985
94.979862413966
94.7879904747067
94.9176939041603
95.034115491296
95.0292601323466
94.9823263382455
94.8024248279096
94.6946903259297
94.7217430959648
94.7774543067712
94.7696168107
94.7191951910638
94.5937636194142
94.5765456587372
94.6650304039541
94.6549392112877
94.5254118900809
94.4812602309171
94.441137039237
94.4584330169937
94.5032235728443
94.4805494695582
94.3703000963973
94.3357949361829
94.3872334900349
94.500819635552
94.4447928582281
94.2823097981938
94.2239113731496
94.2418024149114
94.2804489135512
94.2091419376873
94.1827615517763
94.2820778649451
94.2315713209274
94.1547663500851
94.1155198483292
94.1255940485763
94.1681984013917
94.1154609287279
93.9880742669087
94.00106321164
94.011743203454
93.9739035488055
93.9474183997696
93.9615687654771
93.9046569139612
93.8350079588544
93.8323068845345
93.8137566104609
93.8363756980488
93.8708323009785
93.8478761379922
93.7473372959729
93.7893605837546
93.8978481125446
93.8464184517964
93.8116034643808
93.8263982938302
93.7711403692409
93.7582212005376
93.6818078671523
93.7239076205862
93.8573662690103
93.8197975373933
93.5729075679032
93.4655009439178
93.589613186521
93.6411732477248
93.5587033796557
93.550981549471
93.607263363538
93.5946695083136
93.5181531412998
93.4329412344438
93.447766803092
93.5305736473765
93.5646805861849
93.5836878889866
93.5863068030391
93.5745974791873
93.5480319534293
93.4771651736012
93.4158209717774
93.3861536139889
93.4811746663103
93.5369490703487
93.5084051815688
93.510075125345
93.5202021980984
93.4910258407697
93.3650411070575
93.2774627404652
93.3470458608768
93.3947864205138
93.3168265170131
93.3152199498234
93.4114736847913
93.3276879217492
93.3036624516706
93.4076784710156
93.4418776562602
93.3596497369267
93.2515430132487
93.2629265107206
93.3855525646501
93.4279442746241
93.4194956234809
93.4358757368097
93.4456576598763
93.4160818971928
93.3757969392297
93.3460722024007
93.3235864596178
93.2984815658428
93.3071412426533
93.3026014094538
93.3213972067498
93.3230955341351
93.3173442963607
93.3391792292956
93.2483686402419
93.1960617532472
93.2487772647217
93.1674675601948
93.1367895623797
93.2479623321664
93.3332337550558
93.3721117837241
93.3255886383767
93.3187383704695
93.3182879992114
93.2726702480488
93.2621170267823
93.2857278115398
93.2524943469587
93.2691466461907
93.3616676950433
93.3789874767405
93.3272349217691
93.3272163300338
93.3425221284961
93.3090393883302
93.316961058635
93.297430504208
93.2513493859897
93.3001541977503
93.3649823118726
93.349721363571
93.3373879123409
93.3166241646772
93.3162565321202
93.3172922588773
93.3137361978625
93.2708546008459
93.2262024499751
93.2755074389543
93.3341330535252
93.312105015375
93.2794620479907
93.356165216961
93.4385407162071
93.3902924007108
93.3042986607104
93.2771724314461
93.3264938952363
93.359405110017
93.4431864256411
93.4168053369832
93.3063531731179
93.2189287076611
93.2229704477824
93.3229485064262
93.3475765041212
93.3501978490922
93.3600119186257
93.3523316091814
93.3684957906696
93.4118502637932
93.4231337018563
93.4024456446961
93.3426828743192
93.3393653911212
93.3472348224299
93.3569225727588
93.423502364809
93.4600720560916
93.4464042894859
93.4804467645398
93.5156766415411
93.4891635184897
93.4568730904962
93.4405375827563
93.452920014853
93.4637896207487
93.4461157695695
93.4405935864205
93.4803684384064
93.562899864136
93.6376060843475
93.5870396136356
93.5429797155101
93.5542806957763
93.4850658262677
93.4399617922736
93.4435019208695
93.4678579883649
93.5539246671596
93.5585448195421
93.5137824790167
93.5713466350685
93.6422160760603
93.6426426221195
93.6326242696296
93.6201984286516
93.566823459136
93.5117002457022
93.5519249250094
93.6694982526231
93.6938083518259
93.61219322929
93.5553334137513
93.5848377344259
93.6420989832267
93.7021458692778
93.6952062506015
93.6352179066888
93.6493705891647
93.7051783155551
93.7642892668584
93.7257056319356
93.6445306936239
93.7177544939846
93.7642213803594
93.7350185720241
93.7166579283901
93.6464930330784
93.6159970059576
93.6787593683806
93.7114954998177
93.7206087750474
93.7321291814974
93.7324521214267
93.7688853841311
93.8270811689989
93.8141140657793
93.7241829709815
93.6800948527686
93.7492485147486
93.8120132711586
93.8563517028545
93.8966848060368
93.8971442958948
93.797693703079
93.7550299134158
93.825129840971
93.8262004272055
93.8124249919975
93.9001754655946
93.9022720411694
93.8129550894826
93.8065313674225
93.9290154304166
93.9870646350352
93.9730447861878
93.9809526447209
93.9858954220255
93.9778757066242
93.9393899788198
93.9337205064959
93.9995517213572
93.9972900328635
93.9485056424119
93.8888232274622
93.9452558777295
94.0192748391334
94.0251722695379
94.0119666640161
93.9743333534604
93.9210362080962
93.8764135201407
93.8741396168293
93.9069392212927
93.9171161806233
93.8869684521401
93.8357554675661
93.8405545095599
93.9401101997782
93.9506689675067
93.8533154868242
93.8614957124475
93.8996293673617
93.8994714974864
93.8775864873085
93.8742260939376
93.8686927429479
93.8349040391018
93.8450214458133
93.9147279661525
93.8842978722112
93.8530206510764
93.9007547440863
93.8714999971891
93.8866380059075
93.9246030403916
93.9049495431573
93.8513812488986
93.7955942455838
93.810424387569
93.8676903438651
93.9469657640107
93.9949063224052
93.981418929464
93.9535717514662
93.9570611948313
93.9501242613394
93.9236006407122
93.9517885498949
93.9918265213032
94.0292358987348
94.070193285568
94.0385952607272
94.0059425711088
94.0422320924687
94.0845145085836
94.0587893705691
94.0476103238639
94.029632149302
94.0458300679283
94.1377139215299
94.0870438919146
94.0153391963015
94.0887877399681
94.1506548754307
94.1312903690169
94.0786899957408
94.0707043901276
94.0969636491225
94.1708983107604
94.2222057045363
94.2363509021797
94.2923895173433
94.3332297626063
94.2970973485636
94.2544180387042
94.2195991943339
94.2495725790833
94.3287826103558
94.3643530878126
94.3284851739324
94.324076029416
94.3692172824045
94.4163681347956
94.4143847298571
94.4174389661345
94.4467646104933
94.4741157641605
94.4851302101709
94.5007598292969
94.5221204376536
94.546974171537
94.5349274925257
94.5629567438881
94.5455242187511
94.5373881667459
94.6100710800596
94.6311578466251
94.6302629957727
94.630019436166
94.6201074495416
94.6575730892017
94.7109525451773
94.7351406077578
94.7045135313826
94.6824300769869
94.6573717166987
94.6789625812411
94.7225591837567
94.7263572020653
94.7226340956637
94.759974993862
94.8034693881051
94.8239385469193
94.7776520879696
94.7724984784608
94.8304573277397
94.8718829158733
94.8855795183747
94.9148203480689
94.9272743157093
94.8919566258429
94.8177000194756
94.77283031567
94.8069236971569
94.8975533793487
94.925106458941
94.899921374192
94.8812462006299
94.9287630640223
94.9571332347627
94.9370952828334
94.9047195609746
94.9018160398184
94.9181402363115
94.9125819260153
94.9035701206451
94.9102911907578
94.9331661904237
94.9596592756727
94.9766538903343
95.0047070601896
95.0033120364132
94.9877170227041
94.9659846658527
94.9720611318838
94.9959532222402
94.9707977139459
94.9401061750868
94.9473591470864
94.9378996210876
94.9654788381474
95.0144919989684
95.0064849976838
94.9837461583348
94.9890926450991
94.9870096739155
94.9812754783333
94.9804796733413
95.0033921080894
94.9999304899801
94.9760815277042
94.9380109463153
94.943417887746
94.9656781502905
94.9845466595753
94.9824948483945
94.9659071896174
94.9471065612674
94.9775075910696
94.9901645163603
94.9619876050136
94.9147029712041
94.8985970288437
94.9043493576816
94.8946486512534
94.8866487010375
94.9088278859385
94.9178327329535
94.9281333393051
94.9290729020429
94.8927613824425
94.8566139023213
94.8670026627561
94.8825133186763
94.852565943844
94.8140959538391
94.8101787693832
94.8046903490703
94.8118603402653
94.8519296919174
94.8687448988893
94.8412988248029
94.8275823836786
94.8182143885328
94.8550298070793
94.8990018283416
94.8319470534157
94.7988958244844
94.8649917248846
94.880031634661
94.8757545293223
94.8868543532905
94.8880757888494
94.8477319869173
94.8347098080315
94.8261203655845
94.8347268913512
94.8750964522171
94.8921079343128
94.9618891403172
95.0157501151886
94.9645655209379
94.8418515735825
94.8485758851959
95.0011156203582
95.017327033248
94.9203359565571
94.8995915003346
94.9729958732145
94.9891266863848
95.0076479584746
95.0595248755809
95.0416658107997
95.004077429521
95.0683024301177
95.0635843842612
95.0215982635977
94.9994946527196
94.9709680463024
94.995447027051
95.0811010180385
95.0633220174236
95.0766867787469
95.1441605979495
95.1219489609225
95.0792358915637
95.053263864973
95.0588343329757
95.0828162324242
95.0895235611121
95.1262881607031
95.1426078451836
95.1368049565862
95.1083066827709
95.0890092674762
95.0531775180046
95.11039107271
95.2432303185134
95.315891025018
95.2791906635302
95.1717404062271
95.1101661845368
95.1378487998286
95.1853347601146
95.174480550085
95.178714584822
95.2014915108061
95.1366505798095
95.1366302071728
95.2529992071592
95.3044650068424
95.1904754378688
95.1841426486442
95.2602158591123
95.3214863267612
95.3751191883237
95.3238174966417
95.2327875649432
95.2591757722626
95.3142207403596
95.3424977474277
95.29078467468
95.2556198130832
95.2781531193502
95.3465946303111
95.3957268798315
95.4074961145269
95.3914446276776
95.346580109077
95.309444958884
95.3067199846305
95.3716797869199
95.42350845506
95.3724045441783
95.3621570513253
95.4513395625504
95.4617296547457
95.3089625864015
95.2432096772523
95.2928146368763
95.3188977297546
95.2900910957291
95.2891848713766
95.3453305501794
95.371649133079
95.4251475157035
95.5279304253562
95.513351181227
95.4436819843731
95.451860678472
95.5004267822833
95.5400939314043
95.58265586805
95.5678744983254
95.546339746821
95.5378441544019
95.515469962475
95.4853997752278
95.4760186158041
95.474383364403
95.4897843331669
95.5505215383651
95.6245346234575
95.6022324942775
95.5796023687435
95.5342139257657
95.504520287962
95.6021146126075
95.6772706396615
95.6396207599173
95.547713120691
95.4857314687534
95.5003476629402
95.5315907076586
95.5171934577276
95.4978133546429
95.564192820624
95.6496256826512
95.6542138130287
95.601178835037
95.6094519932362
95.6615712250561
95.6232257569473
95.5309447248357
95.5952416888543
95.7015235653617
95.674121634472
95.5976120312468
95.6397845629034
95.7563230164235
95.7806648150128
95.7349268525097
95.7246625312229
95.7596625091505
95.8134764032352
95.8062798246761
95.7055973938336
95.6184838816947
95.6961824669051
95.814031913422
95.8588838424648
95.7972771852263
95.6931055900905
95.6467910143745
95.60975601261
95.5882205586082
95.6449354754363
95.6602874839914
95.6328510174169
95.6321604595811
95.6503879126113
95.6946632655619
95.7917537265817
95.8154827503217
95.782318096543
95.7547750338616
95.6962696887444
95.6437914558824
95.6850682449734
95.782617251164
95.8221765672503
95.8355093714019
95.8676959514906
95.8419932096021
95.7925660433222
95.7779406473872
95.8402108124628
95.9291790651565
95.9814199213976
96.01431323839
96.0791015792126
96.1064499134036
96.035676375087
95.9562997888102
96.004422824222
96.1170674773371
96.1304326204288
96.099352651634
96.2344215887866
96.3649808974981
96.3678726293939
96.32178393041
96.3263705375945
96.4466996995943
96.5523754480286
96.4835613714702
96.4643919176707
96.5459600514977
96.5804372333146
96.6417387164524
96.786416909574
96.7181757334448
96.6790114640713
96.8085979519106
96.8577903187697
96.777231438049
96.773009372842
96.9777891044944
97.2105339540886
97.1266108743329
96.828856681164
96.8353573155638
97.0038272548157
96.9895381767712
97.0709845035491
97.1044286540909
97.200922881473
97.3626956659125
97.3350188030892
97.3243211116005
97.298309790944
97.1191917011378
97.1975167686795
97.4739240511235
97.4840009539431
97.4733149608987
97.5929125994549
97.5433742389539
97.6528598524414
97.7977771417116
97.7003407032471
97.7724256988432
97.9428468973978
97.7220425054383
97.5501741771867
97.6856568572908
97.8334718816333
97.9806806141901
98.1298230753555
98.1722668116901
97.9995844836628
97.6465243233298
97.721859710513
98.0704320030607
98.3047207403505
98.0955594969178
98.2889494380362
98.6393217926721
98.3329905621754
98.1151899056621
98.1195017703091
98.3080523229094
98.7905163229101
99.0111595979076
99.0848865053512
98.936235376815
98.6929597864528
98.5402542051001
98.2750111610155
97.9931923112613
97.9874915877274
98.1134063924266
98.0008040597838
97.7976195892648
97.6339843245058
97.4278749338393
97.5262434112958
97.7573938464544
97.72963322769
97.5181224985164
97.2687291585172
97.019985250816
96.8769066492721
96.7618663540241
96.8352280831666
96.8808749213684
96.7876717272304
96.8719587692876
96.9594853930299
96.7237960558838
96.534182897807
96.7558372337852
96.9957775214582
96.9609085685442
96.9001063776742
96.8056793722649
96.7368205017212
96.6850598515786
96.7652250831147
96.9504918675996
96.9387735864809
96.8888939579006
96.8956539085934
96.7321820266181
96.628103615898
96.7074133546351
96.8909543426112
97.131518864222
97.1350948803471
97.0246466827973
97.0847608646827
97.0996785973469
97.0965861932572
97.1141998335405
97.0701840667673
97.0133839138347
97.0304847228628
97.1828481281663
97.3731691042903
97.3718018736209
97.3967971210214
97.4663948659284
97.4905465261161
97.3608153077097
97.3872557074485
97.7980136007553
98.1429141628897
98.1441286510152
97.8620130426296
97.73359265869
97.9910754504293
98.1738048987343
98.3412564257841
98.4226386047621
98.4949213550789
98.5291065997395
98.4279551646796
98.5616049316837
98.6206181174106
98.2750327678126
98.1916667941196
98.3574892257688
98.397199710404
98.3202887372734
98.20432619067
97.9262052056663
97.887127243857
98.3165386457592
98.5277160905574
97.9903895628607
97.4998493134643
97.5725432288969
97.6259366922323
97.5355338675795
97.5270373183585
97.6765620483108
98.0028706586091
97.8540026730108
97.6062864479748
97.8163154708389
98.0964501429288
97.9940741280065
97.9457397340435
97.9862496317419
97.9469505427319
97.9991812412859
98.2526976471052
98.2257114576743
97.823554714113
97.5943463269554
97.52635011893
97.511386439579
97.4684991113435
97.3599083372758
97.3612210096791
97.3095442465549
97.2824448336293
97.3330134286878
97.1361288013762
96.891302045931
96.8549579714715
96.8577960530112
96.851709440152
96.7731668466309
96.6513316000478
96.5689389070273
96.6236585378295
96.6174269869074
96.5825528828819
96.504891105071
96.4094365118442
96.4299116320458
96.3712519055479
96.2556407102595
96.3334873733712
96.3943784499792
96.3790584284798
96.3333194443037
96.2670669858378
96.3144745715041
96.3337839439233
96.214554956527
96.1067361627407
96.1504725026644
96.262245132165
96.282804105691
96.280645039686
96.2220192542532
96.182173010262
96.1161203800479
96.1621545557663
96.2754795430655
96.238022732963
96.1978922840679
96.2789990928328
96.3134257035547
96.2524107407037
96.1974396185317
96.1873896866653
96.1360138551082
96.11800302149
96.1659593113024
96.1669655899565
96.1186353168727
96.089760920183
96.1083670459791
96.1621839676552
96.1639006029681
96.1726339427233
96.1739119999246
96.1283464159863
96.0283354176089
96.0020340216523
96.044519916591
96.0628700692738
96.1011656570418
96.1091597115277
96.0490938227089
95.9858980081212
95.9816509841164
95.9939089936434
95.9396892775243
95.9450882720369
96.023924844277
96.0591223651652
96.0132152805428
95.9591254988732
95.95138824074
95.9372761369849
95.9558996438624
95.9635024933722
95.9459019699981
95.9218633771667
95.902339776389
95.8694887163949
95.8244046495244
95.8014303646375
95.8143133571163
95.8271625265316
95.8110919846233
95.7677365273912
95.7367362729321
95.8226027772832
95.8733463730854
95.7852543189241
95.7262824378766
95.7181311127158
95.7056256988675
95.704219341267
95.7225086612413
95.6454017463549
95.5860590140896
95.5628528928751
95.6292081559036
95.6427921341262
95.6021630846378
95.528906754068
95.441779276619
95.4830621960824
95.5330350954927
95.4535695449553
95.3800438473045
95.2913327652659
95.1538761924031
95.1351509986119
95.1114192298088
95.0380163295217
94.9428694038776
94.8509521361689
94.764086112144
94.6196708472007
94.4586262482947
94.2737168891733
94.2972793519861
94.328674989085
94.1633571334071
94.0258334861577
93.878256592508
93.6975301555845
93.4568547998656
93.2049594207289
92.9450501320946
92.8416112304563
92.7542398102109
92.5525928128359
92.2227080980512
91.9063280966332
91.6084853053118
91.2421203957832
90.9173867813955
90.5481643788702
90.2210387717007
90.1662918154455
89.8989896842995
89.7107788949925
89.5023789886998
89.2066091507001
88.8812461886661
88.5702102097588
88.311506874828
88.3716763199403
88.3172487709699
88.0015134729491
87.680577844924
87.4044226324506
87.339067462251
87.1994751167838
87.0183530386218
86.9665340285843
86.8885843395385
86.6907251658756
86.5892221488771
86.6362985936488
86.5798838952383
86.3487212397623
86.064861381567
86.1694242629848
86.7351968557303
86.7420051158471
86.5056887088014
86.6217727833216
86.8426917078138
86.8225089054802
86.6698513808516
86.5099770951107
86.4533982934607
86.7308504602869
86.9428272538448
86.8371873884963
86.6756690502667
86.6367812645287
86.6633507726344
86.7126178589694
86.8407777639056
86.8110565795317
86.7378273312854
86.9282129255166
87.1883067080275
87.2025836188441
87.1803796599025
87.2250558843683
87.3377724407583
87.4224979776896
87.4501794353965
87.4244547460392
87.3941567876907
87.338273916721
87.2876743714803
87.2623474983397
87.2229028491683
87.1436587580489
87.046572331846
86.9614661475956
86.8995774325495
86.801824039953
86.6180425140868
86.4204176641612
86.2955431770428
86.4131041131515
86.414978908484
86.1967094534071
86.1041398206487
86.1869213314568
86.1052320920252
85.9233707576212
85.6486022775172
85.3156230670113
85.6811671091652
86.0808125844518
86.0055948146073
85.8907200234616
85.7775087521669
85.7245304510059
85.6148053354988
85.3674794949683
85.2088669991316
85.128341343862
85.3266417312763
85.5262934327047
85.3789441203857
85.0895043886978
85.0759105792994
85.0342655103212
84.8670331712141
84.699399847648
84.6012617171795
84.4610430800234
84.4332184621841
84.5111622836282
84.4381748071134
84.4356743734812
84.3347233884471
84.0910164985677
83.841209037797
83.6836986451807
84.0130512893821
84.3236434447226
84.1663469975978
83.8840453192755
83.7509089397591
83.8237622749197
83.9458229547024
83.8727955257019
83.6547775898472
83.6343318514819
83.7664117190235
83.8213776473683
83.7672185311733
83.6617543892685
83.5891896190424
83.4638171470948
83.3031698308649
83.2044365055787
83.1971263812375
83.2976786468333
83.1837705903975
82.9375933544716
82.7608514174493
82.7099950553213
82.4817727249405
82.0768144663178
81.8582284516045
82.0448590161438
82.0226239191464
81.7416003183628
81.479945965131
81.2973388039536
81.2726217063425
81.1916625648178
81.0336560430517
80.8214839788121
80.5792710986671
80.3967386835454
80.4719171491445
80.3847927724638
80.1192984926918
79.8762660146737
79.715391444321
79.4883821859201
79.1947439711188
78.9128224261314
78.6128283417755
78.4979156088068
78.4311852743456
78.1683963859568
77.8716418773181
77.5815854004456
77.3301714860012
77.078498647391
76.848064642044
76.6713590007155
76.4804404902414
76.2322997507444
76.1367897885967
76.0821610733395
76.1261595224933
76.2175419011315
76.1740846451839
76.1153722017047
76.2113902880498
76.3633077434873
76.4519698064108
76.5411172146798
76.634603128029
76.7192169733659
76.8017506760023
76.9684874925996
77.1745211174573
77.3059834098242
77.4513408918607
77.5635427630858
77.627396915182
77.7898431323125
78.0529498708758
78.2419057576803
78.3598833528016
78.4933585040185
78.6827778248834
78.8836932238203
79.0883939415269
79.2990819700581
79.5176540320741
79.6855728728015
79.8065136805821
79.9545349772743
80.1949421905521
80.4071685083566
80.5804142461663
80.7158565656852
80.8378914624472
80.9887839621457
81.1633528080253
81.3049906057851
81.4247987877909
81.561713457871
81.7068212428884
81.8547041446197
82.0267977140053
82.1759447818609
82.3271404394261
82.4524744069363
82.5568040082284
82.7024288570019
82.8738370383335
83.0331783775857
83.1847201530727
83.3441992657072
83.5162921902208
83.6858745361646
83.8485137946005
84.0074098302696
84.1759922690027
84.3536327201269
84.5435098832081
84.7310022469604
84.911847721926
85.0973411931753
85.2969448153342
85.4874434311449
85.6627768103632
85.8312582479379
86.0328153991457
86.2193246691361
86.3676918999714
86.5235707894137
86.7005825529653
86.8507180009367
87.0012613531607
87.15272041684
87.2898036760387
87.4227566088522
87.563367051024
87.6869172455337
87.7797745485374
87.8782764612392
88.0011378752996
88.1166446553004
88.2326560647091
88.316775018521
88.3767287742651
88.4612081465704
88.5412128847061
88.5876746617667
88.6296800585268
88.6633320649828
88.6893189764886
88.6800647273785
88.6549478363012
88.6372250577586
88.5920964620621
88.525236567048
88.4663761363655
88.3922279589074
88.2884409137281
88.154772375071
88.0053962513415
87.8536409473335
87.6988714681078
87.5209971384514
87.3332168521
87.1327897881942
86.9265500774206
86.7084361732336
86.5017542924605
86.3117327433281
86.1530968772408
85.9697072685102
85.7858683416738
85.6261451131107
85.4846510058098
85.3610027339645
85.2433911223747
85.1400921959635
85.0251483983517
84.9184119254231
84.8452569057233
84.7933276447289
84.7357753606781
84.643452591349
84.5273296256386
84.3968277273257
84.2384630143889
84.0320929579262
83.8403239108805
83.6394070750442
83.4115209009337
83.1769886803844
82.9335221330103
82.6895480757138
82.4699805062748
82.2028682884995
81.9149964774328
81.638121614967
81.3498148180373
81.0575234989948
80.7496386528303
80.4202340878192
80.1041837278983
79.8027651840476
79.5348756107345
79.2955617745424
79.1004190791578
78.9353987564777
78.7812433389528
78.6295151970564
78.5258322482706
78.4544874811396
78.3802340089143
78.3196633250135
78.319303716399
78.3536298548676
78.4359490663581
78.576477631835
78.7413254557358
78.9433358158196
79.2366543944363
79.5913789012282
79.983485985582
80.3779104703476
80.8050246120116
81.2442483752263
81.6466153726247
81.9956859709147
82.32919174769
82.66115205939
82.958697855282
83.2570509559657
83.5829418580292
83.8782857821158
84.1336700029433
84.3700300338429
84.6079922657124
84.7908912433773
84.9334794387673
85.0560525737008
85.1514718374243
85.2345100854047
85.3149548469133
85.3569561608715
85.4045217663231
85.4336063768477
85.4508522162773
85.545182311413
85.6837128179306
85.7983782124802
85.901766269351
85.9618262245457
85.9413089108554
85.8575317908062
85.8230383828665
85.8828362039089
85.9966381066867
86.0952756584853
86.1488345647108
86.1839847547927
86.2245813835331
86.2457540978824
86.2400194941492
86.2440090038005
86.2883119304451
86.3180308350191
86.3135374411703
86.324187961436
86.3429454465141
86.3614553517593
86.3779798976329
86.4141625323386
86.4483098709837
86.4276319130721
86.3698200161694
86.2418003575758
86.1319832897923
86.2023360549084
86.443374699046
86.6854806782427
86.9006685819625
87.1115013161079
87.3183625515687
87.5017394159764
87.6654379244455
87.8056490377997
87.9800965386006
88.128964290131
88.2334938048873
88.330762713067
88.4408713872657
88.5599506782364
88.6809362502188
88.7893914789947
88.8888288085386
88.9787973427817
89.0619754337757
89.1270607683525
89.1716996020914
89.2478925618209
89.328947587907
89.3850682830706
89.4423406996347
89.4860799001276
89.5244040163141
89.5688029099044
89.6183728625843
89.6878418224448
89.7457401308759
89.7621247083687
89.7754324454858
89.829774908539
89.8653165311414
89.8671732382038
89.8942008387929
89.9005637401701
89.9296531488541
89.98408357034
90.0270770269663
90.033979243081
90.0284031953154
90.0623032259867
90.1046864418819
90.1129449294623
90.1046909799935
90.1156381273264
90.1277288457821
90.1130038763478
90.0707379399002
89.9904518414885
89.8622020156118
89.7210090395518
89.5620718783973
89.3211360058593
89.0212632928643
88.7062806150336
88.3433428817293
87.9676915202857
87.5692911302285
87.1553012200427
86.7814964673309
86.4087046575538
86.1096342402422
85.8928874389338
85.7741420490603
85.732741909194
85.7754801625297
85.9050653463649
86.0741928162599
86.2384316344924
86.4200872187227
86.5362836698934
86.5414976057924
86.447678463195
86.2564795488643
85.8928266002594
85.4093874508388
84.8024775071928
84.0943821958246
83.3645817471477
82.8118658305257
82.6986118393626
83.2545595141863
84.2403992934885
85.304701265085
86.200446099328
86.8639278991409
87.3620926335991
87.7510724472157
88.0267263439537
88.2256404365211
88.3335229060383
88.4055169212816
88.4737345495375
88.5662335001872
88.6752533556221
88.7636565918007
88.7916785247504
88.8020816784328
88.8658390604655
88.9034586301755
88.8405302297331
88.7998124216972
88.8146893937614
88.8534705255692
88.8660883479381
88.8913536922699
88.9008310800918
88.9159130269124
88.9180640863661
88.9133368955463
88.9804247019631
89.0708235078303
89.0827801553677
89.1047938620016
89.1339792582908
89.09845833241
89.0573391519873
89.0927605098227
89.1393649696163
89.1733012360251
89.2133075073911
89.2377109250328
89.2072570883375
89.1872365061873
89.189373915936
89.1957980296441
89.2223140042278
89.2798972304539
89.277073495538
89.2668428811705
89.2907088348095
89.3311632333363
89.2968993525561
89.2522185116984
89.2601571912959
89.2337107060126
89.1875523297851
89.1705323317664
89.103046147059
88.9648266273698
88.770891944431
88.4984715141418
88.0790814456995
87.6055974873706
87.0828428161358
86.5635387293755
86.0107510581326
85.3914532071188
84.8270592707965
84.4587145205749
84.1871561192638
83.8785743005282
83.6086367145989
83.3994748005262
83.2085075510623
83.1686407518579
83.1288115627187
83.0742900718176
83.0979579570664
83.1657537920464
83.2495582714744
83.4412173354083
83.5843220473728
83.7193073870809
83.8839896901473
84.0325808806441
84.1508116278999
84.2767343420211
84.318929950283
84.8750675001597
85.2172434369689
85.208338815623
85.1691323078931
84.9316986999022
84.7893335732066
84.8934075372624
85.0026102636536
85.0249498073431
84.9860824243621
