1798
3999.43349933624
650.420452594757
1
128
4
96.4071832832348
96.3711528619832
96.3294643952477
96.4197582597716
96.5196655395991
96.5273909155076
96.3765864862803
96.3605320002824
96.4533325342245
96.4720359194785
96.3464087005592
96.3688288271866
96.3420577834942
96.2634311189815
96.2995332419263
96.4406241925103
96.4108092211697
96.2780894465551
96.3058387231441
96.4131402697251
96.3769990146764
96.3568674331768
96.3250207931411
96.3719797215247
96.446345573912
96.5322345814915
96.4333002339134
96.2926941966844
96.2839447489
96.3930644194033
96.4413186236134
96.4330056180354
96.356367129863
96.3917955399803
96.4170713739876
96.3657790793965
96.2371521869873
96.2955672045494
96.3869554842208
96.3219022005374
96.2656708594649
96.36152572851
96.339896022385
96.2868068151728
96.2741560522063
96.3132461981379
96.3673825816666
96.4824166198858
96.4795982838896
96.4376697820885
96.3235133344463
96.3000653327564
96.307799159209
96.3078665765017
96.2056459420178
96.2416900267183
96.375083107077
96.4016826618913
96.3519891146291
96.4398446931335
96.3690628083426
96.230800975125
96.2356139348589
96.3167168805316
96.2234246016006
96.3078538183074
96.428876149016
96.450838040849
96.3815261996612
96.3159670160742
96.2414587176025
96.3222283015922
96.2916379424986
96.2095865464287
96.1583561049573
96.3229531043821
96.5075796557132
96.4726713831583
96.234701351913
96.1358360720889
96.3197580310964
96.5383069206634
96.5068705308253
96.4722320813904
96.3821168853351
96.2442599224168
96.1518165750758
96.2242669716549
96.4439608783214
96.5460572758871
96.393427072198
96.3951553924131
96.4268995356669
96.4706319630314
96.4969938334901
96.3631383152957
96.1696476762212
96.2571228245983
96.4545708270066
96.5629698629184
96.479174412368
96.4611741787995
96.4604327742043
96.4539524819978
96.4519144472513
96.4954581284858
96.3774570930763
96.3896364702356
96.4282459075779
96.4895799496722
96.5082241783397
96.4898377075504
96.5036839118849
96.5458848295289
96.5093357416893
96.4872099521641
96.4720538879165
96.5109442810218
96.4710750698069
96.4940432434225
96.4813193861098
96.4990694144764
96.4340150840164
96.4426561387296
96.3917437561404
96.361288482052
96.3389670831943
96.4179110544684
96.4639221145527
96.4589652998003
96.4708384075022
96.4056744270813
96.3102401117163
96.2633438071261
96.2588366188243
96.3701068121565
96.3457990243708
96.2851022199087
96.3853875790649
96.6244290500165
96.6440700726147
96.490337053038
96.2321644275464
96.2071064343657
96.4712412261555
96.7019106359031
96.608172142606
96.4979235950536
96.5480907585814
96.7094826009693
96.6101513965869
96.5546687307263
96.6714599539194
96.6515279856011
96.4393876438673
96.3441833374327
96.3425231836019
96.5135466733762
96.6349889793215
96.6391279155398
96.6555534557461
96.6418325406431
96.609253529728
96.6485902270104
96.6076234897904
96.5638695429982
96.4536488436252
96.4674414906137
96.5003760466871
96.5176873191958
96.4920101135267
96.497790782115
96.4846868802428
96.4339091139998
96.2614973779316
96.2739179588109
96.2759718745834
96.3712183609678
96.4243294448366
96.484643272341
96.6223700611375
96.6804333831335
96.487033303534
96.3942035267212
96.3707916023768
96.4722700691882
96.4749694210148
96.3284611735094
96.1141534122463
96.157546429356
96.3185362119016
96.3615348794666
96.3128456379502
96.2288751654599
96.1909074097925
96.3279871185513
96.314409036441
96.282563891701
96.1772983811071
96.0555747158927
96.1029326859224
96.2109837730015
96.1911554219732
96.0583105185
96.0293842568249
96.0968309308238
96.0358349894025
96.0632265546723
96.0030430831268
95.7947911734802
95.6212238857467
95.7637843967374
95.9511399043243
95.9758062039372
95.8269806785838
95.8342792457501
95.7146578440436
95.668074670813
95.7249318739154
95.8018622400405
95.7288776014006
95.6294955562133
95.5599398068917
95.5986724279727
95.5720091277597
95.487763603377
95.5263689946239
95.5051776149054
95.3934016162
95.4224893312802
95.4757459618799
95.3805524796099
95.1128960708661
95.123470157206
95.1937328380348
95.3353316472774
95.3429156829207
95.254061774804
95.239226734777
95.1961751720233
95.12400924726
95.1782336807449
95.044039687397
94.8626607268167
94.8185222238385
94.9548878008077
94.9314426217666
94.8547102825936
94.7957578244742
94.8022256360329
94.8013231819097
94.7726879597497
94.6537190895882
94.6462113745633
94.671374155721
94.6148439557719
94.5717018470888
94.6256448827784
94.5731212940941
94.4711875020231
94.4318712499708
94.4825172146398
94.3947896875107
94.3971895830169
94.4689281760707
94.4380698881503
94.2563936253484
94.1634497864394
94.1574080611108
94.1047395798069
93.9692737687154
93.9322388969018
94.0514448618203
94.2144799615201
94.0517718785135
93.9346403075279
93.9347328091798
93.9639236633156
93.8687661091311
93.8106413402648
93.7525145836405
93.8381719764247
93.8374082529594
93.6891926084257
93.594023358433
93.6234293660478
93.5795557779387
93.5132582884716
93.4862625192144
93.4291179047949
93.3065433581723
93.2905459617708
93.276470216526
93.4395108469879
93.4632287069953
93.2724124413485
93.1787626728305
93.1738160873144
93.0810614712096
93.1072532357789
93.169842101155
93.1155807791981
92.9914859632205
93.0522794158547
93.0271001165743
92.9588693507628
92.8157525106761
92.7769378638804
92.8088192920982
92.8492545362103
92.8016888914721
92.7850643372564
92.7159231202628
92.750085026866
92.8325137891825
92.7144991381007
92.4903301516929
92.4824378675989
92.4767471092011
92.5450567508537
92.544581336402
92.4262695077118
92.3415445090638
92.3677668946365
92.3696707482781
92.353579525037
92.1957349921527
92.1984916323862
92.1954306813464
92.1313078672836
92.1252380661725
92.2036505005628
92.2385687895468
92.1813806606864
92.0905558028108
92.1018629865533
92.1380752541878
92.1266172659966
92.0225426809167
91.9413529573115
91.8850267590352
91.8800634663235
91.8672469844461
91.8770715049954
91.8609000574742
91.854394891319
91.7843480241613
91.6920875423064
91.6862750835059
91.8294136111579
91.787302456511
91.6464150792592
91.6186898837246
91.6667903580819
91.6318613487516
91.6278962664976
91.5625787708052
91.5591820081708
91.6140839887621
91.7062557872292
91.6482629006955
91.5813385212196
91.5137023622792
91.5701418881543
91.5937016020677
91.5567052139045
91.4656897073374
91.3798723038487
91.3616265814354
91.468472325778
91.532708958417
91.5289792965474
91.4792559848947
91.4900137078168
91.3914665111174
91.3538708470057
91.3697511220113
91.4044864383531
91.3624961630983
91.3570072182756
91.3930300832148
91.4407455008137
91.3556419249619
91.3550186938021
91.4093474992996
91.400456528607
91.335184319474
91.3643911902954
91.4059159378143
91.4203044704328
91.3321185807983
91.3026510877739
91.2847905667161
91.2754479827353
91.2356108626578
91.2860760375654
91.3459158077504
91.3763793067254
91.332331965798
91.3127790873233
91.2271940752197
91.2266308993904
91.3894714101225
91.4893955901699
91.3841437616054
91.3406193700629
91.3283939080771
91.3645556538957
91.3435245407572
91.2630945041233
91.2406211462621
91.3661801472186
91.3784333190218
91.2924804599394
91.3319962555656
91.4680876633033
91.4948138988323
91.4425985961186
91.3578757426734
91.4160395388584
91.456599888505
91.4858443097784
91.4387273231762
91.3558304173326
91.3915661496151
91.4378136709357
91.3448552110577
91.3338954739151
91.4337710027609
91.5493039393274
91.5782562380762
91.5344245581179
91.4243838976682
91.4251631151652
91.4739541801278
91.5545080269381
91.54075205157
91.56313980021
91.6231303847774
91.5997855786683
91.6022906267756
91.6228511390687
91.5746049894655
91.5868070234815
91.6065474235796
91.6747414548631
91.6449393390596
91.6961656022605
91.7582499436899
91.7763607556675
91.7974491918226
91.8401114048747
91.7872742375182
91.8386946160185
91.9365524237927
92.0048677356868
91.9091934356053
91.8472268729798
91.9380462054506
92.14697105233
92.2339872728417
92.1882896115199
92.0690903170846
92.0415842026556
92.0956415064985
92.0997744540549
92.0265038647115
92.0449028882711
92.0924548080221
92.1453687192075
92.1901183924522
92.2230037686107
92.1826298212543
92.1959823955121
92.2480669827043
92.3037699376382
92.2733813209803
92.3081710928743
92.3248852337506
92.3175704495132
92.3538955890874
92.380429468258
92.3520012243006
92.3654773933028
92.336405178062
92.3355117781896
92.4024397849529
92.5430778215108
92.5480652996527
92.4956813664307
92.4970790711956
92.4829883406321
92.4242057280878
92.5168288285641
92.595593100191
92.6151765922337
92.5764947544927
92.5758838768091
92.5957917985109
92.6469676691568
92.5486100946105
92.461036308412
92.5788799521522
92.654935444189
92.6233412473911
92.7005698812426
92.7714239006572
92.7510544900667
92.6512777998204
92.6311117430666
92.6329067607695
92.7154692714993
92.8195846276749
92.8748636030746
92.8916936713709
92.8721991639999
92.7959471375822
92.8273113905201
92.8607243745841
92.9061183069919
92.9437688142913
92.9646272411068
92.9381958720447
92.8720252113014
92.8957671773058
92.9785909459328
92.9689560690606
92.9607561871328
92.9770653583152
93.0873644752691
93.1018600500774
93.0561894857811
93.0169371462634
93.0102864113822
93.0441355439003
93.0723296630026
93.0169166504063
93.0208926481126
93.0971865675468
93.1148153736635
93.0407129263094
92.9898641281085
92.9800633911413
93.0523649809267
93.0708333601299
93.0088320959447
92.9366484460214
92.8973476270919
92.8329791147381
92.8177910229633
92.8199046515532
92.8235510374177
92.8392597566338
92.8214294601935
92.6951788067204
92.6685018326375
92.7223639412911
92.7188339509839
92.6717618180261
92.6484862646974
92.5992251365652
92.6223762385349
92.6222112760338
92.6148975274705
92.5973499145749
92.6051790018639
92.5366273725517
92.4663608217828
92.4318171462971
92.3856581753501
92.3484307449294
92.3518287910926
92.3066472880031
92.3156092277697
92.3150391342796
92.2679295417886
92.2722304721409
92.3504538160848
92.3524670302615
92.3524409905795
92.4074201364653
92.4917433131264
92.5160389047377
92.5567843460955
92.5757375926316
92.5516044253963
92.5895225211816
92.6709560500605
92.6499362777447
92.6312127370401
92.6685298876149
92.7154495493947
92.7399643799871
92.7457701990438
92.7576937036371
92.7739242818911
92.7758146002405
92.8370990717164
92.8552690264062
92.859405859748
92.892949030587
92.8842340275786
92.8225606017361
92.8820170985743
92.9218324367258
92.9045759110059
92.9094926233157
92.8923800434526
92.8842097500848
92.9310499656585
92.9708200918749
93.0010637586736
93.0196624270161
93.1070031741353
93.090525521592
93.0571645367756
93.0453286867953
93.0886684139656
93.1513985743374
93.2123521980503
93.2381046050435
93.2191548199781
93.2022596318551
93.3067155477912
93.3857312197941
93.4047788004286
93.4386926855228
93.4804438228667
93.4676005742641
93.4842005707224
93.4756640364092
93.4787279439253
93.5437610132141
93.6280329224854
93.6191403766788
93.5845391419318
93.5891792566845
93.6319190853012
93.6573662406192
93.6615659828726
93.6155626657112
93.6346200816367
93.6601219464731
93.676046001299
93.7358438747542
93.7409251902613
93.7225316248387
93.7527541774289
93.7825046848564
93.8007946236513
93.7983709984117
93.7808462150651
93.8173964550555
93.8042347892732
93.7798396740879
93.8401681024928
93.9044973114564
93.9379779635759
93.9463979781416
93.9531013970314
93.9439049789466
93.9231509436392
93.8624959251099
93.8859073887167
93.9217376967171
93.9110242705202
93.8890167911934
93.9365157870237
93.9904014127118
93.9843189734981
93.9706275954104
94.0057289019285
93.9972004749635
94.0071337740764
94.0297007775851
94.0512662854664
94.0920935313973
94.1078749324746
94.0575653506418
93.9893207295303
93.9968121735204
94.0600680423604
94.0560577941188
94.0584186261329
94.0682910314666
94.0765537926572
94.1174767207053
94.1731385523847
94.1801182272238
94.1672618310874
94.1410492618066
94.1478832082209
94.1342802284037
94.1587397320026
94.1920813462131
94.1729353427727
94.1800325276675
94.2137911115873
94.2066134726132
94.234441677347
94.2658865600763
94.2656706972652
94.248379645725
94.2618575579519
94.2889276012826
94.2673149606469
94.2024363498747
94.2447356508168
94.2973015266745
94.3053259814348
94.3133278697528
94.3178962043717
94.328371010038
94.3402105494505
94.2980455919737
94.2965255437259
94.3259602421154
94.3137842958504
94.2895981534995
94.289839856789
94.3028899686153
94.33764240357
94.3318561609895
94.2976852755973
94.3116576236867
94.3456065330915
94.3531099516419
94.3646969633661
94.3946314280269
94.4438698816335
94.4653174468826
94.4227272661949
94.368477527637
94.4223850604665
94.5416118137247
94.5979447066375
94.5639802278094
94.5463810083169
94.5813404759124
94.5753845532349
94.552074334999
94.5664601141233
94.6009112744533
94.6303391751332
94.6246157623901
94.6784049403511
94.7508458459809
94.7736031446262
94.6965708165232
94.6622300221319
94.7030651629834
94.738767666409
94.7568742171797
94.7757741549075
94.7359718032813
94.7231458119214
94.7608622882192
94.7999039891875
94.8488730531999
94.7838005624771
94.7987377459502
94.8901627218228
94.8537727316599
94.8518718582162
94.8765744530444
94.8870223025139
94.8732176680877
94.8514778962856
94.9045530493896
95.0169158326197
95.0285691487493
95.0273053186228
95.0723378835291
95.0144696818796
94.9035891578718
94.9434664902482
95.0345602615988
95.0168219264234
94.9893401234497
94.9846393881468
95.0348227192807
95.0718473720812
95.0883833779201
95.1157625667828
95.1325259155942
95.1066437617963
95.0552320078056
95.0110187918023
95.0623364443581
95.0884949512382
95.0330235413692
95.0411667874503
95.153136512987
95.1761423706738
95.075626345531
94.9721981007122
95.0069289315985
95.0940666156884
95.1639224353961
95.2162148837089
95.1761253331482
95.1147368185716
95.1438806499258
95.1462899052842
95.1449181632313
95.1828782730405
95.1771908468392
95.1699502155018
95.1609147312082
95.1116367752265
95.1290652336559
95.2580576125055
95.3026370780207
95.2286169888267
95.1903984144116
95.1823519623487
95.1471404899051
95.1700888827052
95.264390066312
95.2579848248244
95.1776541834616
95.1998904456522
95.2140240236454
95.1485690926906
95.1928846865295
95.2568978361487
95.3149478843617
95.2906039569035
95.220410260739
95.2232669041965
95.1949573924256
95.208597161708
95.3531590149567
95.3459812532308
95.2324882277905
95.27943067609
95.3286005085145
95.242116494983
95.1504412646401
95.1738489287639
95.2916678420975
95.3666438555227
95.4233444917377
95.4023608039993
95.3078569789506
95.2765049521073
95.249760729226
95.2788131258104
95.2848748801359
95.2791540211954
95.2913576072561
95.236517009709
95.258185837833
95.2584227642391
95.277230714219
95.3309314551311
95.3485270253966
95.337165178005
95.2939986942007
95.2821368708062
95.2564770983685
95.2515157099952
95.269040847725
95.3461841215284
95.3614717457595
95.2688179727466
95.2366339237177
95.2233957944075
95.1996434844015
95.2179831914365
95.2466878048665
95.1901788114743
95.1509588430776
95.1763267632819
95.2757677586276
95.3676659780479
95.3140687167891
95.3065520195532
95.4161620869593
95.4839102073457
95.5189198929338
95.5172591578219
95.4541888206048
95.4117377638022
95.3767528035782
95.374216067649
95.4205735510323
95.4072012816293
95.3329032435236
95.3156743557049
95.3095516589596
95.3045083995208
95.3139663984707
95.351274403936
95.3395570470035
95.3299384175293
95.3165198005484
95.2989104326781
95.2788302646912
95.2168743076785
95.1792720036782
95.2515622319387
95.3871698711513
95.4005699279155
95.3185607521756
95.2593057573868
95.2852582292125
95.338649149375
95.3645048721361
95.394573453096
95.3399804596821
95.2987343743283
95.3814890784126
95.4803383506677
95.5114949917792
95.4771725087323
95.4551888270589
95.4922699301865
95.6040912654483
95.6597371712419
95.6130430869257
95.5902403208987
95.5436495923496
95.571231749681
95.7110165930428
95.7846433759864
95.7693306743541
95.7759229795235
95.9279647223374
96.1149628575076
96.1742701137129
96.1319042774156
96.0911520503362
96.1155444255154
96.2077276625653
96.0835712076651
96.0198258248956
96.1480607117073
96.3523846612794
96.3729357616319
96.2670592642128
96.1787716202553
96.1788366522597
96.2666310135055
96.4079435939162
96.3194808668494
96.4497369809473
96.7512360067696
96.8834130117496
96.7874190106661
96.7043177022372
96.5737817305749
96.5125040368119
96.5774920211068
96.7908989784768
96.9289518340573
96.9674158418762
96.9198460079776
96.7996002611965
96.7089533168156
96.65496203651
96.8466413343345
97.0565008147027
97.0089311697434
97.1189615198298
97.2685206670926
96.9219866439043
96.8735029022473
97.092115412074
97.2639038309136
97.2463231176424
97.2496338007364
97.507707724366
97.3888332850236
97.3603726526819
97.5602256377473
97.5632737090327
97.4401077011092
97.7259308219075
97.8411713760602
97.5025584551276
97.5372326549871
98.1177816831956
98.315232438788
98.1772647107714
97.9631046199661
98.02243532529
98.3481238163774
98.4776935621431
97.9766137098951
97.7762263435652
97.7989549304372
97.8505212453039
97.6167639787823
97.4223411477538
97.6335589460789
97.5916583147863
97.1784735088127
96.9652031818159
96.9790430904262
97.2485924294993
97.1836439662022
96.7930086044526
96.6267332286254
96.6934733173866
96.6958494712773
96.5207563774021
96.5773792809364
96.6001923892149
96.4652751883174
96.4382255146806
96.398239903374
96.4409235942245
96.4144353901962
96.4800624562923
96.5975150582304
96.5724249516121
96.4284360361895
96.4304585628819
96.5438013800024
96.6339319334732
96.5144131150169
96.5524110882781
96.5580017260419
96.5815362834413
96.6375016975559
96.5953794579726
96.5713127347565
96.7043827033376
96.6214638556832
96.5284770486874
96.6348530954099
96.6607634993477
96.5730666508788
96.5378459794205
96.7972583545042
97.0398012920055
97.0395671470136
97.0197504265898
97.0341400911978
97.0704905595608
97.0739862233086
97.1571452576342
97.1467585009792
97.4062082070764
97.491652877402
97.546349573782
97.596600080285
97.4115558386721
97.4353356372385
97.8692613685843
97.9224703452514
97.9391317738513
97.9563816408818
98.074408101807
98.2142665594149
98.29729128807
98.0805726666487
98.1270674353327
98.1180810700813
98.1973698932645
98.2660491330325
98.2760056228936
98.2177954906803
98.3281851197562
98.3263709466829
98.1124715437592
98.0391544781217
98.2608132699048
98.1791606775329
97.8074890533154
97.710178119994
97.7307255524011
97.5793878128619
97.6019878998353
97.7645616695075
97.6919657346481
97.56366455122
97.4985267169787
97.5084575307247
97.740927027779
97.950960319381
97.9493977467922
97.9081145664877
98.2326138999183
98.4094877794378
98.4650085503985
98.2826191506828
97.8474331225348
97.6244438288621
97.7805330795416
97.9932025253159
97.8850355765299
97.830083395589
97.7339515367194
97.7182464409286
97.7330573988451
97.4350508234006
97.2888130158194
97.3023446154147
97.2954942568151
97.244259540788
97.1461905345943
97.1801877345259
97.2439120142952
97.0218574703562
96.9965247446621
97.0169790943427
96.9550764055799
96.7883430656685
96.7362719515621
96.7263978126895
96.8009206276723
96.8188119471475
96.8425873472969
96.774286242891
96.6448837367374
96.5938600977985
96.6282560443512
96.6554049429987
96.7741188822832
96.7998646247076
96.713494567965
96.5826571489833
96.6210960529869
96.6673266766041
96.5862996325493
96.524932901258
96.5725410237644
96.5182740738178
96.5481688674109
96.6444235657809
96.5964773803397
96.5722104187716
96.565955414454
96.5554194099552
96.5808708947774
96.5189582155799
96.4514051290946
96.4721425010998
96.5474897211549
96.5965675547626
96.5658485429249
96.4668479448096
96.450588999141
96.4676334651759
96.5201993970201
96.559887059297
96.5487736190444
96.527417537265
96.5127207685111
96.506738489861
96.5070217068468
96.4515679641284
96.4584724636624
96.5255642766183
96.4374476508298
96.4278118187394
96.5087883256009
96.5182491739025
96.5233195151848
96.5026734637471
96.5353129098591
96.5485610116374
96.4491607857804
96.4312238137106
96.4081492821067
96.4675606957096
96.5426534605172
96.5513230929622
96.5563524248355
96.5448418993745
96.5752127999084
96.5428187012033
96.4964360003484
96.4943502928387
96.4769529439718
96.4698014197289
96.5305855316124
96.4938432833175
96.456595687014
96.4816295784091
96.4665526533093
96.4244162530856
96.3344743582758
96.3505635269526
96.3876407160771
96.4026444866073
96.3665932114923
96.3836789661746
96.328681346057
96.2805687473217
96.3049233705498
96.2928995932907
96.1832653512034
96.0428363339699
96.056593202903
96.0019624107153
96.0801288649985
96.1102840375282
95.9581007129215
95.8336936836855
95.8907430333092
95.8163324496406
95.8015784668616
95.7743813176456
95.6128801344814
95.4759631642383
95.4502318676687
95.4775525853139
95.4484724588839
95.4025331781931
95.2606080859489
95.1940739921368
95.2484341325869
94.9297461831357
94.8080094611701
94.8489996829817
94.8641798361487
94.9019279184346
94.8071876474879
94.6093212392778
94.5280788760223
94.4029157593718
94.0838265554047
93.9106290667487
93.8819992663125
93.9118406054391
93.8962585664277
93.7956372888034
93.5475178182722
93.3014541470121
93.2706179590261
92.9388484031617
92.7223852481683
92.6599089578309
92.3629983935852
92.4182709836425
92.3528176014941
92.0993488281856
91.886605719472
91.6874973104607
91.0928697746695
90.9008374720474
90.8807810733437
90.8179492079674
90.6200310122791
90.193811700604
89.9831201520997
89.7631128700124
89.4215227311891
89.294288532899
89.2311189563004
88.9557652334415
88.6030308594506
88.4237737619489
88.2908293960087
88.1872292524219
87.7588599372276
86.9431596373403
87.1254414232883
87.347297806626
87.0369907393194
86.7978484246067
86.844333418411
86.7816270970892
86.6692760904376
86.4491471899698
85.9076170728246
85.7768121177802
86.0005677127214
86.0185321137964
85.8265474316789
85.6752970963356
85.539351652259
85.2958178936856
85.29866308151
85.3150845828317
84.9944718212296
84.7685485438261
84.8826337857767
84.8720364024597
84.7369142271676
84.5393315630131
84.4489393642597
84.3608595200541
84.2382795296565
84.1351313752961
84.069523647843
83.9607432939013
83.8644077524609
83.8128432510941
83.7942595061426
83.7483620224404
83.697097679245
83.6638144370549
83.6267308937779
83.5767807900175
83.6383842243066
83.6072673825443
83.3366914821351
83.4231158560042
83.7022072230649
83.6361264612677
83.5146375789136
83.6775218272533
83.7400924410244
83.8636583116072
83.8309999961581
83.1555326453398
83.163920238407
83.8793384779848
84.1739945462149
84.3608702830882
84.3532170264402
84.464263741718
84.5673649038787
84.5427256733959
84.5833757424799
84.4513132208477
84.665348048184
85.4393024649834
85.7126102440801
85.6078668993002
85.8383734258427
86.0761964020177
86.1629706675535
86.1875056235987
86.341790679314
86.3182386670583
86.4637955186913
86.7929770721227
86.8688742247597
87.0987602381642
87.2563879724717
87.3485347837991
87.3246038406887
87.0637349625038
87.3394764058667
88.0300087397882
88.3313440982668
88.3985247356378
88.3492518149452
88.3972768340911
88.7923735810736
89.0077276594046
88.9122325500177
88.9765917101344
89.228821928105
89.5145645336041
89.6588987448636
89.6814790701891
89.7467087685429
89.7024266207503
89.6029416622999
89.4056650495391
89.2104732048712
89.3628511000544
89.3706514359619
89.1500341273152
88.8046973273497
88.7557259545298
88.7061764768183
88.4023789211228
87.8292195360196
87.8946527865579
88.1012507276349
88.0835955579583
87.9638095932302
87.764552051832
87.6962623907507
87.6875139371856
87.6213528422629
87.5783897834401
87.3888833031951
87.0337794642487
87.1190608730587
87.2021748636271
87.0205881944391
86.7918720672004
86.6706077098508
86.4584571957901
86.2202976288744
86.0922243144681
85.6935484929789
85.4186607378456
85.4561505743888
85.4111929763662
85.2577243610886
85.0885632898173
84.974343740904
84.8305049120076
84.6695638235001
84.6375206818369
84.6026857925971
84.4499072297468
84.4530108491762
84.418594438193
84.4223808323044
84.5565990959611
84.6054804778864
84.5087416520422
84.4696375362569
84.5829696423111
84.6558846557592
84.6981133681036
84.7031012297816
84.7218073856627
84.6865498878203
84.7411116860965
84.8936462425456
84.9648344743653
85.0568684732171
85.1701392413252
85.1754168960999
85.2265980034132
85.4501311600923
85.6512538311448
85.7647113258846
85.8555144311893
85.9348968970999
86.0148659451724
86.1092420990048
86.1958549001523
86.2776719738089
86.380076103652
86.4285089605481
86.4266308204672
86.5215870955685
86.6544741503626
86.7816946217003
86.8400617904634
86.8905968979925
86.9500923342871
86.9963694972342
87.0310863985343
87.0720665804376
87.1131902423004
87.1119717721835
87.1443248082682
87.2015213334298
87.243972227203
87.2737223622398
87.3035013412964
87.3419814294693
87.4035461199252
87.4794895014758
87.5215155302136
87.5591809438152
87.6068752374532
87.6465105254654
87.6650559135633
87.7152442259715
87.7928062406108
87.8378720609032
87.8601585384038
87.9008587012065
87.9216157262855
87.9132803892132
87.9239947708969
87.9202801402159
87.8894124834871
87.8547715734811
87.825145364374
87.7977664172414
87.773677290764
87.7387413185223
87.7030866926514
87.65601693422
87.6121694504896
87.5855252023211
87.5676855288242
87.5289581624891
87.4833905860546
87.4518549550758
87.4126194109361
87.352733078263
87.3218925111767
87.3093154602495
87.2669127366936
87.2218105658106
87.2129802772242
87.2061883041045
87.1877671945994
87.1739313572202
87.1863492712041
87.2157801948766
87.239304384702
87.2452753418406
87.2444195647582
87.272033875055
87.3446072670416
87.3933974516254
87.4544977821851
87.5187931484366
87.5505817277282
87.5806462875873
87.6540988021889
87.7376770932895
87.7959203948483
87.8477925467118
87.899061491942
87.9699229059406
88.0380375238922
88.088849948533
88.1537776552102
88.2293712614406
88.2679272109974
88.2739493207768
88.2727400685173
88.2733979989927
88.2715757772717
88.2443105455812
88.1769855965162
88.1230239709801
88.0822767726394
88.0182947166291
87.9465631522892
87.8856121289567
87.8195093340303
87.746723485152
87.687221483069
87.62139606815
87.514814512948
87.4018822414351
87.3341754351085
87.2530360921094
87.1389187460277
87.0239768233113
86.9343631260735
86.8436940947284
86.724478340421
86.6043420559066
86.4870022607981
86.3719725653558
86.2171529392146
86.0488190388693
85.8601380545764
85.6671647248636
85.4775512457295
85.2918039121273
85.1057197349545
84.9333533417324
84.8155954404629
84.7098895743209
84.5769741634141
84.4803901321611
84.4168536238971
84.3423302071243
84.2231541306818
84.1089194987003
84.0159882828269
83.888539930313
83.7470117168993
83.6204715194162
83.4664183664678
83.2786507571962
83.0862493790567
82.9146449253319
82.7532716986013
82.583864278864
82.3907407718222
82.2064623119387
82.0190916961007
81.8231163596498
81.6411460049648
81.4703590019028
81.3109369440511
81.1714908671564
81.0244717595462
80.8941879683937
80.746729207755
80.586969275563
80.471985190849
80.3474855649611
80.2278777800672
80.1348959328276
80.0005288046405
79.8737455712331
79.7507160271093
79.649572765699
79.5451240261535
79.4349606955987
79.3358760560594
79.2487239255988
79.1573082325611
79.0940668351812
79.0387112973757
78.9749492638818
78.9153331558022
78.87939186375
78.8797654588525
78.9182362790505
78.9279524527113
78.9412780153148
78.9816541072326
79.0118500164322
79.0726882229905
79.1808298581999
79.2949086288587
79.4048005362431
79.5098953638957
79.6547552030247
79.8234863024714
79.9914355538162
80.1485774406595
80.3131117166824
80.4922855365478
80.6748444370941
80.8336590316061
80.9781033449819
81.1338968495047
81.3014451329877
81.4714823570225
81.6658016371039
81.8190670279617
81.9214679794889
82.023410365153
82.1559201085836
82.2842654869048
82.3875031131075
82.496198641529
82.6126534454067
82.7215728413748
82.8454505550801
82.989261793788
83.1108971778128
83.2302858764079
83.3677540766383
83.5102926363095
83.6621796279434
83.7789253702812
83.8764472063915
83.9816664187073
84.1380815323906
84.2869862650369
84.387635301957
84.4891089023268
84.5943958061925
84.710150074062
84.8274343023803
84.9666841708236
85.0795449609662
85.185938817269
85.3322993581608
85.429921999798
85.5138648816909
85.582001867551
85.6435549202615
85.7112669492485
85.7960719960774
85.8688854060626
85.9178072369844
85.9855704568358
86.0606886083174
86.1194674707974
86.173119656887
86.2769365010226
86.3708350842394
86.4338865833089
86.4815218100247
86.5344013938182
86.5870175600811
86.6117118074017
86.6562760495441
86.6853399547851
86.7212992721956
86.7882631566676
86.8483123988929
86.8710328042648
86.9031442863836
86.9028697018573
86.9114898486263
86.9264472579868
86.9427920284112
87.0089429148494
87.036759781007
87.0214626354432
87.0660414863296
87.0859508077591
87.1077573632358
87.1175498390152
87.1181449954365
87.1248612249905
87.0751051724949
87.0631171842944
87.1049739111293
87.1062445284581
87.0638692301207
87.0225259731536
87.0251732770857
87.0267210503674
86.9770894527607
86.9014101078137
86.8803608779926
86.8530788270634
86.8051918133528
86.7932502705674
86.7623695329065
86.7198132295959
86.6828748147695
86.6403859753095
86.6278660515549
86.6091672542784
86.5882393932746
86.5958306237799
86.557430863004
86.4593846486711
86.4072901760028
86.3529967271219
86.2963315561291
86.2452464001392
86.1738077729994
86.1319332117599
86.1249428679805
86.1297418444247
86.1513851440595
86.1266541375579
86.0835048062176
86.045437567786
86.0036965652592
85.9895040972106
85.9982127574627
85.9721657599935
85.9104550642665
85.8641939532646
85.8450911997257
85.8444400411423
85.8205221368571
85.835441195256
85.8715244107644
85.8364194276574
85.7852859229249
85.7608118668912
85.7516373256232
85.7294557228206
85.7403532988073
85.7420442883251
85.7074313242734
85.6632083636999
85.6383682191917
85.6261484720062
85.6087663147579
85.5521537604194
85.5073161402644
85.4996508991275
85.485116920293
85.4172467758332
85.380845856113
85.3868776826023
85.3587183891202
85.3014547400637
85.260832449434
85.2052563013278
85.1834730448139
85.144648574442
85.0880192239487
84.9811443787046
84.8663278730545
84.7952668300096
84.7643582287203
84.7114476736098
84.6282665554588
84.5578149736078
84.5163165834559
84.4431361089515
84.3022469719488
84.2029817978203
84.1165326892963
84.0182492174156
83.9548963441014
83.8140127900547
83.6739123998208
83.6747644183707
83.7248857115436
83.7022607686023
83.6814056105387
83.604563687187
83.4721548976743
83.4012775144161
83.3658164664405
83.2572022818946
83.1910354965749
83.1168897326612
83.0195549954014
82.9463703448419
82.9658215932986
82.7843859138817
82.7873765591876
82.7875119113986
82.6446506859191
82.5085467456757
82.35472268818
82.2999934386724
82.2711153615887
82.249356924248
82.1987289850661
82.1066126708515
