1798
3999.43349933624
650.420452594757
1
128
4
95.5316649122591
95.511348786473
95.4532650459232
95.5081881504094
95.5142693610573
95.4029884329018
95.2682586189675
95.2746174731306
95.3246078077825
95.31919831507
95.3766464368213
95.4228443892395
95.3694870732635
95.3685799750605
95.3949394833476
95.4199432331396
95.4492326294884
95.475440095236
95.4781266548254
95.4898260071557
95.4179762959205
95.359207353277
95.4128889937793
95.4548446713227
95.4212103147668
95.448731302055
95.4921741668244
95.5781746331351
95.4750476067616
95.2682436730939
95.2626532952279
95.3928020617523
95.4477421486139
95.4641501805227
95.4775154744044
95.4670671999378
95.4440373219304
95.4643611005771
95.3995668729595
95.4064768966377
95.4357908733345
95.4012826679358
95.3785595003379
95.4226659178798
95.4868271409342
95.527822410155
95.565322039247
95.5521045609641
95.4895471613991
95.4714735257586
95.4081423394193
95.376618913682
95.3851398227864
95.4734678700579
95.5128462422064
95.4909630025287
95.4905303227907
95.5685227413688
95.5805816290814
95.5412693182501
95.5266193995551
95.5229546831859
95.4798241658324
95.4989010390987
95.5038042604027
95.5199976872274
95.5128576816031
95.5136134142826
95.4762406531286
95.4939303066799
95.528959937407
95.6303329226619
95.6274691105866
95.5976409215953
95.5618274570171
95.4981881722797
95.5090938388012
95.5738791795726
95.615731351803
95.6561698352327
95.6173441451311
95.6669743234578
95.6606227120848
95.5881217170027
95.5431850459068
95.4960480988574
95.5031465086629
95.5981754802709
95.6580784429071
95.7337371053279
95.7449970295213
95.6717523586284
95.6427182782685
95.6103876346435
95.5595201632745
95.5009997294033
95.4667679886441
95.6853113398328
95.8289575012757
95.7301421946499
95.6096505234327
95.6476567414783
95.7111432418296
95.6532911229155
95.4683569732725
95.5603144685126
95.7560418523289
95.7970733615777
95.7884460428019
95.7303104331991
95.6728621450686
95.7403117625046
95.755295294836
95.7094021662071
95.7032496544682
95.715091671126
95.6716862100518
95.6836308579024
95.7151920881368
95.7638162316849
95.7198221078913
95.6157939487772
95.64338365985
95.6464204650857
95.6010287843531
95.684422172009
95.7558751111524
95.7848664017258
95.6758489278246
95.5958638916578
95.6037809715562
95.6836868355472
95.6942584934459
95.6040190905796
95.6553099137965
95.8241404381136
95.928690999232
95.7527072162088
95.602023191608
95.7452729125685
95.8405759293833
95.8464424471309
95.8035515353217
95.8090856289623
95.770075947698
95.731656945406
95.742482329709
95.862171153966
95.9088166998901
95.949249042815
95.9273668945734
95.9253204614813
95.8800448281626
95.7865630370804
95.7457009680316
95.8041184047196
95.8553949776742
95.9669951157194
96.0595773314343
95.9700046619787
95.7633922272649
95.7901436063565
95.9199864766223
95.9167914522899
95.7730878908583
95.7166198692132
95.7390510804734
95.7923245109174
95.9445832308572
96.0467922717012
95.9519360926988
95.8482509282743
95.8012698059035
95.7428324455661
95.699114354338
95.8179445480343
95.8800298301109
95.8540673206933
95.8586645325421
95.8986032101473
95.8336391695815
95.7337922359334
95.6854825498985
95.6916018136447
95.7017424725934
95.6601896248116
95.5599266294845
95.5970864544407
95.6587089991628
95.623696054717
95.6188577618244
95.5644408266893
95.3683900594325
95.4021004260428
95.4683037260943
95.2450981144646
95.1405038439179
95.3024987393734
95.3159907803094
95.1900061192024
95.3081405258132
95.433184326469
95.2963486874368
95.2448270064438
95.22320760296
95.0905126945326
94.9473353537318
94.9330832250323
95.0133706008223
94.9795915296441
94.8132537916832
94.7434787184134
94.668075983226
94.5573085896756
94.5261644039031
94.676285614836
94.6460197175918
94.4644481431851
94.3616366477279
94.3649999299718
94.3270754320506
94.3603857020604
94.3454763855632
94.3914257878222
94.4107275988593
94.2585747273738
94.0778479149702
94.0770055359765
94.1203547862743
94.1073301073535
94.0306601668703
94.012301983642
93.8607872816788
93.7605604460973
93.7298630613405
93.6986792602683
93.7123853648869
93.6974550310996
93.5937874053528
93.5867810784142
93.5127018672665
93.3920294965213
93.312061498643
93.3356122832192
93.3842890881811
93.3456902989845
93.1803891044227
93.1925802048006
93.1558152252083
93.0172700859346
93.0801945453135
93.1037752467222
92.9618814878198
92.9031536417442
92.8262392428064
92.7271242709106
92.6949454614646
92.6885334718413
92.6482307102758
92.6138397390228
92.5465503794219
92.47137652529
92.3715337304933
92.3948972346254
92.3386390943725
92.1831235963158
92.0553153029848
92.0289694284028
92.0282946119348
92.0806802568021
92.0230368870871
91.9109056123279
91.8137329009982
91.7482857722821
91.6298757583993
91.6560973726143
91.7796410982535
91.7366715194862
91.5701983697942
91.4867434098308
91.426831932293
91.4664342381405
91.4820524339174
91.4253885661123
91.3896827652741
91.3302031397054
91.155521696924
91.0429431730752
90.9235764705413
90.9262174386817
91.0304606654452
90.9917053559332
90.8691666127019
90.8363465070573
90.7496197604894
90.6810224215378
90.5850945158446
90.5572180882774
90.5848289399933
90.5558598213457
90.5453091895292
90.4853025245822
90.3205155404808
90.3129460429869
90.3256686660776
90.2621397643688
90.1325683470861
90.0852211901741
90.1066613825838
90.0498203123571
89.9687205118282
90.0060301418206
89.9680265582804
89.8875293654883
89.8269922018154
89.7632746969408
89.6996733870958
89.6118175502825
89.563776031604
89.5974184521854
89.5420046445724
89.5060925870504
89.4072924949982
89.2853550758631
89.3024259922168
89.3990914848305
89.2834364827703
89.185627034638
89.1845083293266
89.2355085743234
89.2166542865351
89.1478025871949
89.023514888702
88.9667576989946
88.9071818489805
88.8894012981502
88.9322960316801
88.9455425963396
88.9163220241297
88.8770663455053
88.8058468093558
88.7517043969394
88.7082727268013
88.646896088745
88.5974726273733
88.6026605652911
88.5631163798156
88.4694703308082
88.4617290585656
88.5083018540297
88.4661320232468
88.4688529625509
88.4056554925866
88.3229871258925
88.329693957979
88.3674437880414
88.3324745725918
88.3811438284186
88.3103473869794
88.2404176489722
88.2730605259036
88.2906509302723
88.1711177382709
88.0919204935615
88.2116041096032
88.3042918463437
88.1994949560632
88.0848344637403
88.066288490948
88.0560122282679
87.9782934287912
88.0735458976264
88.0987178296457
88.0797581460632
87.9983267302372
87.9233378087241
87.9600081585086
88.0064552506519
87.9192765124717
87.8635180224109
87.8628096224305
87.9059543425508
87.9321016354735
87.9361003975054
87.8878134257393
87.873091847947
87.8846525989885
87.9056172101294
87.9234155028113
87.9966773877722
87.956039520017
87.8940303289568
87.8443453102892
87.8760690041511
87.9253923504558
87.9667751756606
87.9393349200278
87.9505861147313
87.9826119804741
87.9216821853407
87.9056619298254
87.9648180033365
87.9347387183539
87.9431743070712
87.9273477200755
87.9796449057793
88.0948533204824
88.0962447819794
87.9810926062467
88.0250956952549
88.0844392642292
88.0344604482159
88.024545298916
88.1780525041596
88.1873005134322
88.0733979464558
88.0600166024721
88.1116298857371
88.1198904420448
88.1738467375111
88.2354624294673
88.2212806370755
88.2199883500333
88.2642073476888
88.2500814161169
88.2279943617084
88.2528684985165
88.318812546723
88.2493618524194
88.2734547370794
88.3567371854815
88.3586313341825
88.3585326806987
88.4190796211793
88.4557533395187
88.4828873319897
88.4834861436498
88.464232966064
88.4348374195446
88.5295066186959
88.6567929451254
88.7006177688013
88.6962177523157
88.7360933842525
88.780032444718
88.8084735090833
88.82824376225
88.8165513337389
88.8025769428148
88.8790523882015
88.9271304371792
88.961267786452
88.9979337996314
89.0762544458635
89.1168971672694
89.1941487836944
89.2952399734303
89.3202814061787
89.2181095249793
89.2153041162939
89.2685421549347
89.3457658913307
89.3826287720348
89.4193738207262
89.4755230791138
89.4884654590358
89.5033291299025
89.5301434948077
89.5361280563387
89.6221013312014
89.7263130796279
89.734492755676
89.6946277677892
89.7384665231373
89.8086596906148
89.860384173527
89.8373710593975
89.8496161004754
89.8556634710877
89.7934942708811
89.7843916543774
89.890560752802
89.9202406192067
89.940630851938
89.9600225730667
89.9487960282062
89.9450683118658
90.0407916421495
90.0805399657778
90.1134777758984
90.1257050302147
90.1487666707089
90.1675008086831
90.1826172866009
90.2095066575144
90.251364290272
90.2526343606585
90.2825987872564
90.2724323216282
90.2941677857715
90.3346636545492
90.3540216922652
90.363951769367
90.3222716394017
90.2557115945768
90.3370692763934
90.4153212584741
90.4617987567781
90.4714669968883
90.4993159759502
90.5892418216924
90.6144784336872
90.5975439399357
90.6371143258559
90.6203219357969
90.6912729683899
90.8151442758811
90.8427336004901
90.8112797158503
90.8318380896298
90.8117067639378
90.8336388598435
90.845531117465
90.8279546772446
90.8201646304126
90.8869550756231
90.934602797428
90.9591132071995
90.9560193624362
91.024156868904
91.0524018219866
91.0157601846897
91.0060737885677
91.0296125744452
91.0358552140945
91.0714933002686
91.099624250425
91.1402850417148
91.15415026029
91.1720914815269
91.1518891306604
91.1131500595071
91.0941508634195
91.0487058119013
91.0074036402891
91.0175308535311
90.9925819531502
90.9568577824406
90.944371433747
90.9580413344096
90.8928603322491
90.7853275613276
90.7107692500931
90.7119399319163
90.7156028855697
90.6895972455152
90.6291449006628
90.6252410984638
90.6273663800772
90.5965480560682
90.5528936791126
90.4887815923279
90.4745811780762
90.5509859585332
90.5389372456222
90.4811389364828
90.4311850225204
90.3634630068998
90.271444995593
90.240724254008
90.1919256260349
90.1497920525167
90.1737186527499
90.1311576875425
90.1002530383921
90.0870411895633
90.0706742759148
90.1052280691543
90.0998973507936
90.0592772284786
90.0486968769308
90.1477666534382
90.2992938835136
90.4074736737237
90.4194944224565
90.4703243227562
90.5134065013712
90.5347070186194
90.5697449497594
90.6240529914735
90.7074795780618
90.7895852971916
90.8268416609836
90.8127186989742
90.7727757400723
90.8273593156741
90.9196321715993
90.9463361498131
90.8857255984397
90.8939803972624
90.9217207382372
90.9278984766907
90.9443224334976
90.9860528114639
90.9957859255252
90.9778061189434
91.0062889738232
91.1004386584645
91.1157614228615
91.1209937245933
91.1591836935556
91.182773364066
91.1834542952122
91.2006012529117
91.1933134756458
91.2340673483452
91.2918907640817
91.3008432412837
91.3309896532271
91.410531264972
91.4413085590931
91.4480085889682
91.5074844172036
91.6212498722194
91.7027976932531
91.7363786951146
91.7183188989011
91.7561753390829
91.8162103809343
91.8615660743548
91.8784016505632
91.9298834791767
91.9971251332137
92.0158241896813
92.036327437926
92.0604556987363
92.0443875697256
92.0924767065933
92.1382526479626
92.151978789822
92.1688498637895
92.1744401871185
92.1963435628157
92.2261560128371
92.2487835127177
92.2961257306946
92.3088001394053
92.3356598366793
92.3712989066421
92.4066118459965
92.4046190832094
92.4074352755921
92.4547415762544
92.5208474386437
92.470999617104
92.4503562529662
92.5315287461235
92.5546746546799
92.5205055293607
92.5049268203854
92.5472951396927
92.6241496970494
92.6336479452717
92.5894594353476
92.5973298472715
92.664190054957
92.6758643445106
92.6335403513883
92.6071953711991
92.6578844573554
92.6953825275198
92.6972202194094
92.6928761876487
92.7001153786855
92.7191758350756
92.7676326297954
92.8363768015942
92.8048852274919
92.7755660899196
92.7864784812296
92.8004055781074
92.8305263392569
92.8160311889882
92.8040267234441
92.8150672950019
92.8466738839376
92.8840007176663
92.9251662646774
92.9427053766963
92.9186820229516
92.8891708714327
92.9143557041394
92.9502572089681
92.9769293265029
92.986402370276
92.9669057910812
92.9969920998009
93.0409172358657
93.0283550051237
93.0392086973407
93.0632660915702
93.0652040027504
93.0330601826578
93.0443889163175
93.0991094501021
93.1240415385552
93.0782132881379
93.0717325061212
93.0934774111737
93.0919436773454
93.1374218490291
93.1924181294313
93.1742043516635
93.1735726769807
93.1831959958207
93.174395028804
93.183596914986
93.2250417688117
93.2373696576427
93.2151813070829
93.1998812340748
93.2213070074605
93.2469197674904
93.2247015274247
93.2022111738714
93.2162462746961
93.2171849187446
93.2582226314578
93.3246827400984
93.3429826209271
93.3521027573102
93.3852995113119
93.3926266744632
93.3655199253479
93.3571392828441
93.3888093032705
93.4400165859826
93.5414172313737
93.5455360309347
93.498086650591
93.5339362505438
93.531874130858
93.4849537158753
93.5127029738903
93.6044373063967
93.6427723098719
93.6612971574559
93.7410322630436
93.7619277872388
93.7479278344942
93.7725093660419
93.7457774436048
93.7308867977944
93.8051186856861
93.8417142861884
93.8582320650014
93.8726808346994
93.8483317088022
93.8930890282492
93.9237594555278
93.8918087456472
93.9418595516552
93.9480594384599
93.9137366972977
93.9735655555959
94.0593145133318
94.056651625042
94.0462134984421
94.0557772088142
94.0168542591448
94.0130201567483
94.063671810677
94.1007576976924
94.1433111057599
94.058321482261
93.9988247150425
94.0804905032859
94.1127369265033
94.1119523771213
94.0602711784228
94.0277950808435
94.0885427830062
94.1487664051622
94.2291872433894
94.2736017873834
94.2675450898206
94.217646925625
94.1603509445941
94.2643062189107
94.2696243286656
94.1744034065036
94.2516741947711
94.3438460479222
94.3193718747465
94.3628276620861
94.3957343385592
94.3598497521843
94.3963726624374
94.4137317008454
94.3823014585661
94.3569881659936
94.3701605795692
94.385323358913
94.3726512960335
94.3153151442564
94.3162005998017
94.3952076914037
94.3926939775964
94.3737973783433
94.3625689245605
94.3288260773095
94.3289403313077
94.3275891812008
94.3629217096973
94.3832338123692
94.3912662121313
94.4405530833588
94.4165403732765
94.368183418584
94.3685928608555
94.4136582149577
94.4140083951417
94.3616630779814
94.4298378227608
94.5097555593237
94.5200486771182
94.4692354660541
94.4655392579584
94.4816790246537
94.4710307216107
94.462883080766
94.4535886251448
94.4832053638545
94.5198470969793
94.5119719598824
94.5185266293898
94.556903473744
94.6228473243724
94.7088476274396
94.6478549448487
94.5788044395319
94.5186141784279
94.4891563321827
94.5170765178796
94.5394838723559
94.5323426334234
94.5192074737833
94.4865088140213
94.4920835462348
94.5420357662538
94.6069829338381
94.5993283832242
94.5818020371898
94.6316694101348
94.598199970687
94.5744363693552
94.6211497577896
94.6217415161951
94.5994356069645
94.5188197358863
94.4785497288854
94.5801441036506
94.6796785986922
94.6237642932613
94.6262127866906
94.6619836591725
94.6179803193463
94.5583744772697
94.5295293219874
94.4967169918387
94.5158452167435
94.5158760143396
94.4511746791215
94.4484648896815
94.5391487345078
94.5904410470975
94.6023275728868
94.5986997044132
94.6761537349339
94.7359965242525
94.7370425864237
94.6793834418028
94.6602254815775
94.706924304556
94.7540887674156
94.7222542564995
94.6035305521645
94.5057023377019
94.4759115277019
94.5549039584372
94.6722424077141
94.6844222841811
94.6146413395468
94.63924646506
94.6473229663704
94.6307080194552
94.6340850084115
94.5585102148373
94.4406736525089
94.4045917859895
94.4344533616277
94.5109952250754
94.6115133965335
94.6569639022626
94.6355588522086
94.6223792610096
94.6889735996048
94.7284861702613
94.7184593993106
94.6798719496247
94.7406422440555
94.826011508879
94.7807001741798
94.7212492617499
94.734466125556
94.7551185705544
94.8027339919862
94.7571469101835
94.69822401826
94.8273075856453
94.9688839741188
94.9445025226089
94.9292422018739
94.9080077489781
95.0211412404456
95.2549797991981
95.3279257048965
95.3207051247527
95.2745745071856
95.326601275679
95.4257675656014
95.3429736162309
95.3098085055803
95.4960352954628
95.6431214685262
95.599180805772
95.6184333448699
95.737606583212
95.7404069900484
95.7572734835636
95.7644608452251
95.6261398908026
95.4987588157613
95.7460275206324
95.9141957150242
95.9036269718262
95.9361085254414
95.97021505846
95.992726262402
96.0038034333249
95.9248203746001
95.9441516610231
96.0762252188725
96.0236331264272
96.0014818758758
96.3319197651714
96.6785237633093
96.6261659125804
96.5025324469878
96.3755573296287
96.2301246971267
96.3007965722751
96.5071467723605
96.6729486306409
96.6807350834246
96.7334611867278
96.5505678658649
96.5006468819743
96.8566010706299
96.9068578209915
96.825582764719
96.9998389521825
97.1613976661115
97.1376938953937
97.2014728161161
97.2927103410655
97.0570133049904
96.725263355585
96.7525868099043
96.8056906041928
97.1726449950282
97.813394625635
97.9209215517971
97.6239619574993
97.4178889386064
97.7575438773499
98.5904741195413
98.8429811294301
98.5333113608521
98.0399298268521
97.7265438000848
97.7452981387432
97.6536944363605
97.4813854175838
97.2473805027343
96.844047166457
96.7974716209205
96.9265707209862
96.7637009964466
96.6417800675236
96.8292555509158
96.880306842892
96.7447278486741
96.5038405739242
96.3149860345529
96.2601091581143
96.1207470314782
95.9365330461936
95.8376333544363
95.8360027305894
95.9019080533986
95.9775995634771
95.9751166439117
95.908990509112
96.0911419444356
96.3069778236365
96.1770894978651
95.9426427332629
95.8643519753407
95.9331970615021
96.0740681624055
96.0391498406549
95.9510600910608
96.0232734629177
96.1073397328056
95.9622802900061
95.9536657010021
96.0314173964755
96.0065931955664
96.0261965628689
96.2190271405997
96.2990763562153
96.2842039503992
96.316962413848
96.4875284983287
96.5525744373317
96.532661348897
96.5608437175961
96.6486092062585
96.6983148955064
96.6096203560703
96.5754773513666
96.8834936857803
97.0803455320408
96.9608180127241
96.6682306552589
96.7741860900669
97.2124401035107
97.3745320938081
97.6560752883665
97.7691096174794
97.4329414095303
97.4519984889426
97.7207123379599
98.049516420491
98.3684541278636
98.5249252246213
98.3149188356931
98.3409629554633
98.2038285447428
98.2344122151746
98.0929017727474
97.7438531994998
97.6664012240068
97.7001569578418
97.7615582298763
97.9215087250522
97.7742193640887
97.9127897215097
97.6862417471453
97.3700800195674
97.6280704843255
97.7982153665264
97.5329033736305
97.4546114150025
97.3143305781004
97.1620165741759
97.2568031248997
97.3737736452374
97.3354967323268
97.3573818025685
97.4694408452842
97.6058236946251
97.7882926795823
97.9653073838834
98.0665235791878
98.3488175942863
98.2727465192997
98.0015642973368
98.0245120374098
97.8917347210909
97.4685670341417
97.4581282536008
97.5388587618811
97.4756927169952
97.375755874184
97.3503006371089
97.3145463160536
97.3357756223899
97.1411964898836
96.9460307091794
96.7657907967429
96.7669511101854
96.7520946016708
96.7903710560681
96.796786320451
96.6812101525708
96.6974450557022
96.7337213326936
96.5996998625986
96.4678480791716
96.5145983213233
96.5000429045025
96.464477893894
96.5052328638444
96.4594378492529
96.4177477786973
96.4215884301032
96.325842608262
96.2115658668116
96.259077625696
96.2853721823605
96.3314299815816
96.3057358411161
96.2478131118623
96.2057891029696
96.2383315053182
96.278020553798
96.2432888897482
96.1427612303802
96.0870720809048
96.0574486984119
96.0661976213915
96.1625682555762
96.2096244313117
96.191480595517
96.1440708564246
96.144011501675
96.1134201146974
96.0568108045865
96.1275477137713
96.1341141236622
96.1034999301798
96.0829611825472
96.0880786560155
96.1237532179225
96.1515871887842
96.0558748513998
96.0573142855321
96.1219123412923
96.1064679344133
96.1334648304719
96.1919483405865
96.1833556274193
96.1191935062051
96.0702652159523
96.088259980242
96.1274989979656
96.1316873973166
96.0460920014512
95.9901564494247
96.0388819642904
96.1131876013501
96.0679813874605
96.0212708590298
96.0753906239769
96.070483139733
96.1035595707242
96.1520679519178
96.1301338762248
96.0920772739273
96.1123043029437
96.1297196575473
96.1017434500188
96.0772382923913
96.0507021055461
96.0342485290504
96.0297263727953
96.0599164388059
96.0683855140565
96.0695778553889
96.0801896051473
96.0827796144996
96.0556602876504
96.0314480072365
96.0908126870382
96.1060061912347
96.0535249047687
96.0012468849718
95.9787723178451
95.9752195953926
95.9759802987576
95.9485545362865
95.9217309880777
95.8555081221464
95.7775110072812
95.8504202777508
95.8622974792261
95.8029990678488
95.7391783064102
95.6674023092064
95.6208951060382
95.6275463991889
95.5507963463158
95.4674396140614
95.3701990447158
95.2704852319775
95.2082114206701
95.1690539670288
95.0773864841902
94.9849151311932
94.910305683095
94.7954671254191
94.656963694025
94.6027121038092
94.4905376824111
94.406001699359
94.3556783785471
94.3111278379457
94.2087733944128
94.0667815716247
93.9219448155489
93.8224016604509
93.6753183712435
93.5026905611388
93.465514949408
93.4612152395981
93.4318297315251
93.3137181794246
93.0841539962753
92.874405057611
92.6696283084081
92.5461764340473
92.2753105709
92.0296334536743
91.9967921280679
91.7741281854323
91.5312605033412
91.2954261025581
90.9467944535052
90.6091267998008
90.3036692769961
89.8997414564521
89.6610042529575
89.5352871280494
89.3067631052212
88.9739549155365
88.5130731596367
88.1784689143592
87.9025824009658
87.5713937728976
87.2673349196746
87.020149334705
86.6929872253372
86.3331782876659
86.0282866442376
85.7397440274159
85.4513272358964
85.0285006166528
84.576486417787
84.6871765162298
84.7448698110412
84.4658560052352
84.1488160327396
84.068360271261
83.9469008497872
83.7373287864608
83.4656555192426
83.1756995364565
83.1753227664406
83.3364306963956
83.2926644315671
83.1103763707493
82.9995590480216
82.9502086691621
82.8857767837268
82.9402932780076
82.9400972811991
82.7983751132877
82.7204946675499
82.8242517797742
82.8100987134869
82.6864698966942
82.5592862536821
82.5136621608181
82.4690826486564
82.396325870873
82.3238684855617
82.2823808355219
82.247934786098
82.2019182955447
82.1791082897101
82.2042045102639
82.212374717957
82.2171357123038
82.2252541784403
82.2725509163451
82.295069184911
82.3194322158984
82.2883261243646
82.2022843043775
82.3786839386035
82.6005777051321
82.5328022486591
82.4431330057263
82.5558605546365
82.5800556160086
82.5129775473584
82.3448520125071
81.9729673308417
82.2114026808063
82.7461957547456
82.8612919424816
82.8278452473276
82.7405920835261
82.7385971602016
82.7620339781594
82.6915870495531
82.7076884502972
82.7599135387538
83.0943471003242
83.6255557587165
83.7683783484514
83.6705804801236
83.8193631457209
84.0014049913961
84.057823753392
84.0738045679881
84.2124227553629
84.3052835543098
84.4969917955716
84.7763653912128
84.8670655146372
85.0073048921215
85.0952857299946
85.1315881970731
85.1390955201563
85.0848889461853
85.5046185657483
86.100923556955
86.2852319695781
86.2498631573389
86.2336315637015
86.4190893830645
86.7972080828371
86.9896782661347
87.0156463698212
87.2137421539899
87.5333012387569
87.8130932611363
87.9733327783054
88.044115397252
88.0965206776649
88.0663029176353
88.0068381133567
87.9371680254489
87.8652184114765
87.9023682651947
87.7683374325621
87.4395927745779
87.1014297542676
86.9499657176049
86.8246996766149
86.5271606562617
86.1695654232382
86.2591914077226
86.3699430131855
86.2466549402149
86.0604663636901
85.9224454185717
85.9104058547613
85.8850460317011
85.8183372225697
85.7609419300224
85.6424305010297
85.5161755110155
85.6026838164767
85.6047949192031
85.428431332545
85.22857863128
85.0557392958969
84.8128773130652
84.5540953180478
84.3557233638973
84.0902401376113
83.9551026681649
83.9673617634174
83.8531964809415
83.6501850203585
83.4864830787989
83.415285047244
83.3404300167642
83.2768171145577
83.2760472171428
83.2379962483363
83.1661617268386
83.2172638401062
83.2788396512073
83.3674875589607
83.4874192493337
83.5281164167434
83.4630472522527
83.4623180728416
83.5890551285263
83.6666791872385
83.664078358185
83.6548551070868
83.6417433730082
83.6499920355888
83.7577631159461
83.9027535312384
83.9755172932841
84.0704902531704
84.1845620715007
84.2355165388858
84.3524824011288
84.5513608646783
84.6927249072266
84.7731464320198
84.835335554854
84.9322395538907
85.0412674640909
85.136750500757
85.2162821671863
85.3042046787038
85.3686940751156
85.3995035716126
85.4452818577908
85.5433003052587
85.6585032685863
85.7472879824892
85.7808730330993
85.8072018063175
85.853827994758
85.8895012004358
85.8976224559245
85.9224816336555
85.9531050082021
85.9632452976417
86.0066322398538
86.0693228252483
86.0851323925673
86.080780969446
86.123495483795
86.1673785410782
86.2007095200091
86.2410057687834
86.285790973067
86.3345932581366
86.384169122096
86.4225503447444
86.4596171604467
86.4944876784769
86.5301514022219
86.5704655125408
86.5925264876284
86.5986502902248
86.6034987041516
86.6098087728547
86.6067586395441
86.5813953116491
86.524169321238
86.4539357029065
86.3804352872967
86.3249430652064
86.262890198886
86.1743308313843
86.0814525069657
85.9967631089817
85.9076212528792
85.8211929573219
85.7609068428269
85.7163135703778
85.6535029816076
85.593850886015
85.5270296268924
85.4581039608026
85.4000236099252
85.3448304605142
85.2916084028686
85.2461476607519
85.2018539040557
85.1808633048692
85.1815536447403
85.1992428758644
85.2144517944318
85.2399869411837
85.2850469029547
85.3378323146372
85.3943512474934
85.4391974253928
85.4793603593551
85.5383098952074
85.6309341642719
85.7300971874
85.8127207610529
85.8973723146397
85.9667678830734
86.0490858459733
86.1430686159834
86.2352898821335
86.340462675517
86.4328137897601
86.5268492964657
86.6344814357619
86.7401966680906
86.831700720169
86.8918681757897
86.934501159732
86.927392016335
86.9257214158729
86.939527474464
86.9025650024867
86.8435368806648
86.7776008877216
86.6740430455355
86.5858143947611
86.5277767620869
86.4618831628927
86.40787068993
86.3267532613255
86.2168117594514
86.1070642380583
86.0070928217231
85.9167840648179
85.8216887546148
85.7133019346407
85.5969320052745
85.47008539512
85.367535634536
85.271189954669
85.1417307506595
85.0005617630203
84.8583665000657
84.7007524529944
84.5258111908631
84.3211355596978
84.068714403805
83.8289234161641
83.5665914860506
83.2966887078411
83.0859616540826
82.8900558281491
82.7294120746511
82.5993042507413
82.4701302777416
82.3688214861116
82.2705837872851
82.1569996307641
82.0419530222048
81.9391145267087
81.8487940640839
81.7268153957971
81.5790513435147
81.4230248482361
81.2373022887698
81.0494738111646
80.8671371421624
80.6649889737003
80.4105255244526
80.1498787083948
79.915488506971
79.6757717690135
79.4385819031583
79.2336648196151
79.0107189743486
78.7666001994803
78.5252833483812
78.3232255620105
78.1301225845555
77.9419724512424
77.7669292167807
77.6004642080235
77.4157726108331
77.2659845902216
77.1423715192321
77.003454521833
76.8405425973242
76.6953382545832
76.5649361019435
76.4314698967887
76.282873751991
76.1376162365454
76.0111646772245
75.8919203320216
75.8148447476409
75.7412711022533
75.6335210385693
75.5484749502089
75.4844777250442
75.446233454754
75.4273063947714
75.4201125007799
75.4503016119664
75.4771258368262
75.5110232244146
75.5968662230777
75.692507784726
75.8117505527463
75.9180379683714
76.0575176840293
76.2503610251037
76.4524566062993
76.6379759850538
76.8653679625454
77.1346713403044
77.3822423489342
77.5911692216271
77.8129522086029
78.0595892131701
78.2739494224676
78.4581225562193
78.6907784812382
78.8835593501225
79.070587953047
79.2944849434339
79.4938597792066
79.6561814478427
79.8087388912159
79.9679547950126
80.1190273076483
80.2221310968329
80.3221241404031
80.4467023908029
80.5989509937348
80.742601392347
80.8819040202431
81.0589436429748
81.2381664346786
81.3906738116207
81.5364206694383
81.6740997124006
81.8431349553664
82.0177877489338
82.1889825527455
82.357669369218
82.5196409453018
82.6930518229877
82.8746079687398
83.0266525576163
83.1761228078225
83.3427980624494
83.5071874757334
83.6533864288937
83.8046454136057
83.9317492580195
84.0362626021508
84.1506532740054
84.2659940359623
84.353778826014
84.4251920047103
84.5016797915598
84.5748610788913
84.6527811052511
84.716832204418
84.7565283745647
84.8375601405809
84.9276584404878
85.0086290396131
85.0919132000756
85.1900861429994
85.2825890585783
85.3353613601255
85.3810481233322
85.480191289775
85.5342164045253
85.5692331017678
85.588897691789
85.585188512416
85.6064771739612
85.6509905526252
85.681244850785
85.7263580952128
85.7624980003854
85.8228090078344
85.839264863519
85.8170979100544
85.8280922309101
85.8695617680194
85.870055947388
85.8561288601413
85.8787384028817
85.8814689040186
85.8368407208384
85.864408817759
85.9153328574924
85.9089549104622
85.8402639777124
85.8388400996574
85.8317983890299
85.795347654155
85.7602431162759
85.7274072685362
85.6399550906658
85.5591792240735
85.4824720825563
85.3881819794346
85.3619103347759
85.3510985208708
85.3328806295155
85.3593455157905
85.3557795302173
85.3240479048689
85.2743477043084
85.2011879930831
85.1399705240414
85.1013627941742
85.0395166577116
84.9789778712149
84.9494674284764
84.9048836655247
84.8198167961464
84.7883093123175
84.7436061544364
84.6852099286249
84.6653149372125
84.6493417995549
84.624163829458
84.5953928074895
84.5555896187619
84.5204911263393
84.4582320984637
84.4248057611207
84.4120489373295
84.3729274145375
84.3166393377938
84.2505678021519
84.1879511830192
84.17833950868
84.1854400528078
84.1871864456552
84.1811359761889
84.1385012323088
84.1207067108351
84.1198810831029
84.0986466678743
84.0910195007596
84.0260789203755
83.9921831674425
83.9684203605875
83.8827855821601
83.797741943152
83.7851208537408
83.7601940595632
83.6578531683264
83.6147131688368
83.6102062477583
83.5487802849525
83.5065745696994
83.4550820563372
83.3914297115111
83.3261845300632
83.326565748704
83.2615266496637
83.1421624556971
83.0495995428616
83.0301604512778
82.9771538803087
82.8774278979371
82.7241847155978
82.6592590096344
82.6417498890067
82.5548779709492
82.4397275850622
82.3552668404302
82.2530860021842
82.1514172150233
82.0078834188353
81.9104304561666
81.7885960963041
81.6374647023046
81.5258294867942
81.4700540184746
81.4292227081051
81.3915349483744
81.3389080664813
81.293122423999
81.1844411850396
81.105706306417
81.0373660913766
80.9964450631164
80.9022278547281
80.8555834684639
80.7530197759024
80.6181558152334
80.5271720720415
80.4784632485685
80.2653128115037
80.2957161222734
80.3300226225435
80.1598411832669
80.0577042204426
79.9774931611202
79.9035020511086
79.8286056584482
79.6923110205946
79.6001132146536
79.5218904306061
