1798
3999.43349933624
650.420452594757
1
128
4
98.6280564187001
98.535958979851
98.5186168533832
98.5516113106396
98.5964660930068
98.670942937663
98.7065136595683
98.6545900953939
98.54077450211
98.6093900760318
98.690780521919
98.5006860965028
98.4607293232725
98.5915824876818
98.5614448282681
98.5635179235898
98.6760999833798
98.6523998046069
98.607217106149
98.6152377289792
98.6055757976487
98.626235916647
98.6061450735674
98.640767907841
98.6187380489037
98.5424620842772
98.5881129830467
98.6193722433306
98.49398038953
98.5740528310717
98.6558600913205
98.6963915660699
98.7245782250908
98.6913931292321
98.5602409112047
98.5261558426717
98.6555402913229
98.7008244705853
98.6753272065515
98.6029966483648
98.5131146530417
98.564153821504
98.6181387721028
98.5029587597503
98.4994526827028
98.5622675061527
98.5808181154973
98.6148675927792
98.6131120172931
98.6411101044605
98.588846448474
98.490549075412
98.4562713067384
98.4783181132034
98.5828203654925
98.6859585589947
98.6184107856084
98.6601468535744
98.7299362006178
98.5280006476499
98.3949963054447
98.64450041451
98.7415286213443
98.7584617427795
98.8420856802991
98.7403121037596
98.6047195321187
98.5401293483731
98.4989578130305
98.5779307364836
98.5753083780922
98.5018863426675
98.5675405577572
98.6676713297065
98.6158973761492
98.5242431300696
98.3934059839945
98.3704386956838
98.5165243524256
98.6754574881149
98.7929905062304
98.7346502243607
98.5525587392053
98.5016343792441
98.6104449613146
98.5857701610527
98.6747377695449
98.7464887037542
98.5877940755857
98.5460275987956
98.6143060228352
98.6919420723328
98.6769785568975
98.6021860989357
98.4188197890408
98.4523588878265
98.6192495343481
98.6941496824394
98.6704819136489
98.7549181440646
98.6589823234105
98.4900674148664
98.4837760488827
98.60245491947
98.7098795163501
98.6863813345011
98.5433920452388
98.5379147067997
98.5880504128506
98.6102315723311
98.5464269942071
98.6177260293943
98.700979294021
98.5791444423848
98.5075706828151
98.6258727903867
98.6143224653471
98.590312100665
98.7089561588989
98.7236266702761
98.6412626776452
98.6497707485575
98.6031694396613
98.5437276764015
98.5469211767696
98.5556067567314
98.5933482955887
98.6068732437511
98.5237050452912
98.6055565979512
98.6241848858662
98.5162897902168
98.5182438743277
98.6620079355191
98.7320674950554
98.6927976548202
98.6876421295395
98.8081446479221
98.6511111328422
98.4885257106474
98.4884223609176
98.5440639531775
98.6458938462203
98.7413539227774
98.6000659011037
98.5341273338204
98.5655809970817
98.5750573688252
98.6361305390679
98.7608723639747
98.747087904482
98.69905344247
98.6550863186678
98.5045951328587
98.4813129704668
98.6722884241926
98.680977450217
98.609132573966
98.5604818307916
98.6140529792801
98.6903119474088
98.7140725508447
98.6644844842056
98.5656038186042
98.4899810988241
98.4336139761136
98.4286273929109
98.5159302818945
98.6662077128395
98.7892496572922
98.6750342210344
98.5278015844569
98.6009101343755
98.769126346629
98.6815819710288
98.494312511979
98.5130207950808
98.5949411080112
98.5851335291536
98.5950596699072
98.6360814393278
98.588221564202
98.4952977118319
98.5237508978079
98.5595314316158
98.5050948474593
98.5138334553483
98.6144137381595
98.7420679637497
98.8967945734481
98.7058964438116
98.5689668150311
98.6117822295758
98.5677291821935
98.5258062951727
98.5121867980484
98.4991455777627
98.5292850285198
98.5683737731047
98.6477306037563
98.6297527991371
98.5946330636314
98.4749836212021
98.2952588028138
98.4132616660998
98.5305126631852
98.4514936154451
98.5612454583572
98.6587628080301
98.4935593648117
98.3275939304662
98.2889106814119
98.3712488618573
98.4715243335963
98.4791542990552
98.3262868412115
98.2424232977735
98.3102304409236
98.3095467089602
98.3249341824324
98.3461604674233
98.2830963966798
98.2986873822808
98.2665017442945
98.3322085372985
98.4453587333254
98.3240810016814
98.1791290940521
98.1799790438865
98.2949173530747
98.2824090080972
98.2526610303053
98.2727640107937
98.2356499745455
98.2666557291694
98.2734937588235
98.1628383371294
98.1311167214786
98.1903340799543
98.2520888419584
98.2050738909749
98.0702767736206
98.0041153090231
98.0128272956333
97.9885148637275
98.020293184823
98.1486747514919
98.1540093458105
98.1158596354273
98.1332796681931
98.1181589127253
98.0581842016303
97.973783840419
98.0423633981554
97.9627498890932
97.8744184803173
97.9978830946501
98.1150286542312
98.123953940763
98.1006635882903
98.0429353175493
98.011539368161
97.904822433485
97.8021665148917
97.8723448825936
98.0029347740872
98.1002028982482
98.1612049233182
98.1486623375147
98.0616415020516
97.8998725257991
97.8751536497014
97.9254932322768
98.0060080689874
97.887630092895
97.7439266186108
97.7535784989034
97.7963057698751
97.8295560118561
97.8053397656344
97.7485158705946
97.7380865785182
97.7165327367811
97.7520827362456
97.708534022285
97.6509385069214
97.7130275572224
97.8522742578341
97.7743357881095
97.6636661250991
97.6575349576833
97.6975755028884
97.7031441508981
97.7389055156572
97.7600730941595
97.7155662650449
97.720663428635
97.6657897174079
97.6184189738153
97.6948602157266
97.7144081747398
97.6648098985523
97.5983766309655
97.6298037687709
97.5861202134596
97.5649760559103
97.6398530981027
97.6897514597766
97.5071732022736
97.467897989633
97.6730879557999
97.5756108914842
97.4290809479224
97.520143566334
97.5568294860766
97.5045450590353
97.369440760547
97.3427140676117
97.4538029667681
97.4697089062786
97.4299621160452
97.4659590373485
97.4220521301759
97.4266111504781
97.5273946340238
97.5824514883246
97.5853735187818
97.4900319800916
97.3226655438959
97.3595086894725
97.4060936284236
97.343102147069
97.423799033166
97.5887622031089
97.575797459535
97.373673717197
97.3028556167741
97.3725605919186
97.338144635061
97.3994668155439
97.4866350215309
97.4107745148741
97.392152958865
97.3665852537036
97.3795534675444
97.4466568818001
97.380556213461
97.3895108802692
97.4024190888564
97.3324395928546
97.3158469921379
97.3361884400868
97.3811351999536
97.4678995680415
97.4994595769222
97.454372048213
97.4351452951093
97.424017612455
97.3852856655428
97.3381449330876
97.3812490106401
97.4490383975293
97.3501891864205
97.2445983934011
97.2758647278504
97.3497419886038
97.3615597031826
97.3440051114888
97.3671661387606
97.4287975710016
97.445434365752
97.4134930209096
97.4208428990902
97.387962748992
97.303573572037
97.2737768765707
97.3163888850437
97.4531609139732
97.5500789122502
97.4233687335037
97.3135192229762
97.325822887094
97.3770250810373
97.4341327574717
97.3892668279573
97.3692998787427
97.3332349713919
97.2823476166503
97.2443818457843
97.3582826164625
97.4499047930087
97.433570220295
97.3011071611283
97.2667157894884
97.3905390354683
97.4458307466097
97.3335880209705
97.3352970772491
97.313182821954
97.3423245477386
97.3747660159553
97.3725297336073
97.2835733853706
97.3018516831378
97.3179640524881
97.3541313842856
97.4330554589216
97.4271259807251
97.3927911944081
97.3535715367263
97.4065352371307
97.4263684335448
97.4252161666804
97.4731730981644
97.4311534381982
97.4346421551382
97.4476669658604
97.4628426353178
97.2935666093835
97.2068814715022
97.392956234178
97.4416334738966
97.3158943513628
97.3388568925693
97.5032475239087
97.514712566066
97.4085635215728
97.3930254853969
97.3711795796011
97.3847576210464
97.3788842830581
97.3427125915143
97.3694221445199
97.4144919175369
97.3717600485604
97.4152599256179
97.4872352500325
97.4314490659982
97.3279865944983
97.3745477947253
97.4228395674389
97.4369266072404
97.3888948313943
97.4033984695538
97.4663208304838
97.4635611549775
97.4375764997936
97.3779409232092
97.3404988635676
97.3251460593064
97.4231288659036
97.509231278453
97.4674803996584
97.4289660324188
97.4755764509226
97.4776827794702
97.4138364719785
97.4600298523872
97.5279708387216
97.5618426735792
97.5551589505746
97.5565268218451
97.4945351545295
97.4327540266711
97.4226956722214
97.4676152631093
97.5250630365956
97.4921952730858
97.4170678020559
97.4107783937289
97.4753172823297
97.4875264012994
97.4797979987077
97.5132533897695
97.5731857344831
97.5905617784943
97.5503162213305
97.4975385263158
97.5006222082758
97.6073863257708
97.583417949135
97.4955592636797
97.5058055049597
97.500961015505
97.4652389064648
97.4984505342985
97.4887419822159
97.5198478229055
97.6050425979016
97.5821292201227
97.5669669214367
97.563312834382
97.5749510076166
97.6137752282266
97.557306434329
97.5441085267633
97.5301411005384
97.4891206104028
97.4713649774144
97.5160310523212
97.5568384882972
97.5828596445638
97.5981352518782
97.5853239814747
97.5662126002334
97.5731757017675
97.5625032989452
97.6070400962667
97.6524078434519
97.6259756465514
97.610194434568
97.621876196674
97.6677351801114
97.6650860310148
97.6645989343352
97.6653339961377
97.6752615264226
97.6751034180729
97.6862221327681
97.6658801494445
97.6096099904228
97.5850292967246
97.6090985179103
97.5919952956465
97.5335824346083
97.6407383784591
97.7478703423481
97.6794252310969
97.5827850529576
97.585675161506
97.6870971986803
97.779204045968
97.7703892368143
97.7016554058327
97.6000749565409
97.5576828635095
97.6133866646759
97.6574242881696
97.6006732462701
97.5547925060773
97.5421082705443
97.5773922426114
97.5809258113873
97.5524928121165
97.6543661765453
97.7218890153226
97.6555714571153
97.5886145199517
97.5428299398856
97.5325010466132
97.5864309050626
97.6412756980372
97.6074529536713
97.5382410284477
97.5143807183462
97.5826632532484
97.6096324922248
97.5589996748283
97.5669833489173
97.5833509084753
97.5668458666873
97.5659524752674
97.5731582921562
97.5505990006914
97.52567936657
97.5723143491158
97.5946831647849
97.6473746212618
97.6289978899602
97.5863919825702
97.6235956025428
97.6475633654536
97.5719384943102
97.5113106728079
97.5186096513821
97.5737877265233
97.5907307504439
97.5428077162956
97.5442760967598
97.5984816855592
97.6421662459352
97.6573064247571
97.676697461048
97.6717174254193
97.6478119589573
97.6610701863382
97.6528048775366
97.61707595665
97.6207668354643
97.6405237024132
97.6382310539134
97.6708819904089
97.6773199563481
97.6810334921587
97.6479051393454
97.6410946394892
97.707968803234
97.696767856252
97.6933609677608
97.7219766115156
97.7088092785718
97.7100594383527
97.7462546537292
97.7214900256959
97.6887601041792
97.7070074663328
97.6823403278593
97.6762302656252
97.7413736257473
97.7923112348207
97.7511535146226
97.752022550002
97.7816624696798
97.8275186368093
97.789027675936
97.804550270645
97.8432603982758
97.8206075033873
97.7713987220464
97.7380809512458
97.7919820590638
97.8130751654265
97.8010520297788
97.849364199062
97.9236380193001
97.956072818316
97.9338329943573
97.8422260114339
97.8326096619196
97.8985970815739
97.8848094496822
97.8480079945013
97.8693012305956
97.8864381584119
97.8099776855443
97.8355684231977
97.9013820760988
97.9018349904434
97.9119858707824
97.9312364351193
97.9282923000832
97.9208483376874
97.8630513669965
97.8426247152769
97.9160790042365
97.9626353544592
97.9716410036713
97.9591466968376
97.9632267790131
97.9769270522501
97.9685580843926
97.9848614635304
97.9979334756889
98.0267000792037
98.0083419100201
97.9661144154001
97.9097982013923
97.9319384413781
98.0110643688791
98.0402210662772
97.9626345889786
97.9665894651108
97.981989940774
97.9193594663345
97.9299430050886
97.9615590540346
97.9501545183264
97.9694433303829
98.0078242067884
98.0022478208977
98.0133678040024
97.9967142168324
98.0314376355401
98.0794774814378
98.069498950161
98.0910048835493
98.0624066901432
98.0192200072113
97.9980531479932
98.0060210538929
97.993718954362
97.9745474235603
98.0031554420933
98.043107650196
98.031510181348
97.9980477536129
97.9958405006295
97.9928682400499
98.0245980852729
98.0587949079672
98.0335715051959
97.9944958235382
98.0347003591261
98.0606210779061
98.0263001880021
98.0108142948604
98.036233297822
98.0712425764248
98.027672066859
97.9868265450339
98.0218431712056
98.0700026812093
98.066501997171
98.0355241752909
98.0343043765167
97.9950054719764
97.9391742875534
97.9362783745394
97.9849049070127
98.0361094101075
98.0317338970487
98.0055114246878
97.988429661118
97.988645826292
97.9787900295566
97.9813860493975
98.0188146161312
98.0186619895473
97.989362574695
97.9750052617447
97.9842736869556
97.9534645106599
97.9153390544812
97.8898356495062
97.9111282478967
97.968740334114
97.9790881810915
97.9299065183185
97.8998962987827
97.9220405750803
97.9645894055346
97.9644146571117
97.9221349638599
97.9283056113386
97.955205751973
97.9767959711337
97.9773831009174
97.9825014239786
97.9686730018644
97.9920822604324
98.0305609668761
97.950399179231
97.9026669968223
97.9517769850206
97.9893884646179
97.9881903366351
97.9185454934826
97.8634452856506
97.9423381541246
98.0621961527579
98.0762374462181
98.0415241067346
98.0292778879486
98.0518095435487
98.0415382865245
97.9730101796668
97.9276163501535
97.9042975352968
97.9169313441243
97.9660808423789
98.0750921881467
98.153247312746
98.1327963469349
98.0172728659315
97.9166298222312
97.9638497695107
98.0175304787814
98.1090652100106
98.1394404690847
98.0119953480958
97.9495210028369
97.9904983919658
98.0005060287449
98.0908205648602
98.1037927220338
98.0366714066365
98.013477386415
98.0171066884916
98.0475003617114
98.0220506505704
98.0172412218081
98.053429790249
98.0623223042288
98.1186449226807
98.1180458594975
98.0409127590469
98.0465225708094
98.0298623774418
98.0060731174809
98.0409577055735
98.0942753613707
98.0915513178858
98.0603047921347
98.0607239900014
97.9838324636196
98.002772534176
98.0890220293079
98.0528102038715
98.0214117759779
98.0136923048742
98.0823464204619
98.0749757561997
98.0481053774965
98.075813089834
98.1245007532749
98.1263277856342
98.1640246225824
98.0830194769439
97.9400612199497
97.9576257751933
98.1011858958179
98.0938201532673
98.1017014261848
98.1520326900427
98.0950248063105
98.0436050880909
98.0541973010923
98.015766184824
98.0662119167649
98.0936542624987
98.0574993414136
98.0965923812915
98.0991103810826
98.0109558415236
98.0594756277659
98.1680215592013
98.1701500601161
98.0743976109087
98.0488215875435
98.0906286908861
98.1145764393362
98.0929943758535
98.0319693720974
98.0987497237699
98.0804302234223
98.0463152078462
98.1405317646139
98.1701906365436
98.1318263272003
98.1014343640294
98.0387490156254
98.0432458093453
98.067360049745
98.1716825569107
98.216096474666
98.1129748399459
98.0517020623431
98.0119576164292
98.0734966077287
98.1738697036608
98.127589763721
98.052169440116
98.0826292470147
98.1355715019996
98.1865881869582
98.2112048594732
98.2116728246489
98.1689835545909
98.1554862006579
98.1611618287634
98.1440759175783
98.1342392729042
98.1782327311391
98.195743750891
98.1752670330336
98.1916952774306
98.1852865302111
98.170722355622
98.2210155512631
98.2042126866852
98.1207974507884
98.0454227324099
98.1022346140572
98.170995620076
98.1786193524099
98.2051318198477
98.2435903022401
98.3333945690717
98.2680829832723
98.2674706526826
98.3424847034144
98.2618228915835
98.2046216193904
98.2680290059778
98.271508735617
98.1330188174234
98.0612142479227
98.1401141284538
98.1755666969765
98.1731809373006
98.213560241136
98.1577656447252
98.0955890097047
98.177204501825
98.2454922881705
98.2113185819169
98.1809348205776
98.1575878248264
98.0953074324728
98.1151296339964
98.1938506198244
98.1767569770123
98.1521992863526
98.2059436409763
98.2448022382681
98.2433547482952
98.2469019001221
98.2709376670005
98.2556254853712
98.1925152052005
98.1711125599879
98.1961188571611
98.3216088551617
98.3488716139677
98.2279723159161
98.1639632694271
98.2799219087958
98.3137964601468
98.1851888839238
98.1881739250644
98.3651775367519
98.4099722372176
98.3174964366878
98.1881969133601
98.1883736029282
98.4255382001158
98.5277904351767
98.3844066479057
98.4399189808168
98.5617231416182
98.6236937685601
98.666793429858
98.6917382997347
98.4151420592025
98.3991092931088
98.488410195231
98.4386597742488
98.5970962102213
98.7930018850896
98.7205661286408
98.5357389440319
98.597295850863
98.5523539093242
98.5875842975736
98.6468976518249
98.818469462862
98.8738329849954
98.7803325093792
98.7557517320524
98.5458203019854
98.3925287870355
98.680754285424
99.0028599419132
99.0124843461857
98.8890305223942
98.8856504634656
98.942436381592
98.7941553106231
98.6492065176692
98.6753131168574
98.9335216425916
99.0775264161387
98.8990909208218
98.6783959600062
98.8980798696982
99.0114643966387
98.9079335401462
98.959316093891
99.0910084731293
99.0235665987247
99.0373009624339
98.9867933143012
98.7914560027723
99.062918244063
99.4471704912049
99.4129629222093
99.1850563050304
98.8223626351677
98.8679597308348
99.1750759883596
99.2629002515315
99.2413533510804
99.3462374430219
99.2625307135362
98.9780777534142
98.954475339416
99.0867561093618
99.2340067667031
99.5183601292605
99.5254725677614
99.3311222851386
99.1927915176533
99.1992813995039
99.2935153719349
99.3236496083685
98.9958314279203
98.9496470545643
99.027733504225
98.8534311011466
98.5262979189861
98.6145826853906
98.9036998579337
98.9499441694713
98.8582010245681
98.8055613945062
98.7487284176883
98.7781334496785
98.6449058906306
98.4110326814996
98.5015992207798
98.7114636041139
98.6354576697894
98.5518665181266
98.6358593616826
98.719167476977
98.7582579440216
98.7918264160653
98.6625494891142
98.6032635852435
98.4890900033171
98.4265640571222
98.6189699271619
98.801681511006
98.7736178913352
98.6172445421412
98.6371366382625
98.6174653496142
98.5655281860737
98.5516576635429
98.5035261948129
98.3836558950939
98.4517742568983
98.7260368049842
98.7569083022396
98.7990606537569
98.5946904612853
98.4602850843095
98.5296298272698
98.7138013922876
98.7500626942689
98.7325148724417
98.9033448410319
98.9256227153145
98.900163575949
98.7011989582845
98.7220680526901
98.7792682238068
98.8783902139581
99.2216044077945
99.1948265051674
99.2391339236357
99.2989542727357
99.4136882697005
99.4587785717161
99.1944058687984
98.8781607546967
99.0019755891281
99.0449814209855
98.8904830742159
99.1982180245035
99.5714252774521
99.6654195248546
99.6996776066953
99.1973061194446
98.9777137692373
99.1952874708886
99.2010975570253
98.9090008065822
99.1544742964329
99.3317536280259
99.1254588400882
98.9850057440137
98.8355199092522
98.656604321502
98.6214358255623
98.8785773125922
98.9178273137624
98.6613629855551
98.7834560561515
98.8977823326082
98.9543862578778
99.0630326971004
99.1460947062387
98.7983464385125
98.8565102224037
99.324166112996
99.484837392185
99.114212117118
98.757662091037
98.756848932635
98.9234869902752
98.9563997245121
98.8480050716404
98.8755812393161
99.0874344562585
99.1820583020442
99.0693878993841
99.142063780213
98.9929215922341
98.5934406108315
98.5923468562149
98.5998469652481
98.5403116638157
98.7120351440908
98.7293596368271
98.6186261717663
98.5749811720608
98.5095604015054
98.4204022012546
98.410159512024
98.3888690237377
98.3818763706376
98.3639773116208
98.3733675488841
98.3014893928627
98.2096185719328
98.3491956998082
98.5385329946383
98.4315169579793
98.2775851926452
98.1848198349312
98.1562962458739
98.2537219595952
98.3158075149987
98.3174400906182
98.2749206806533
98.3089212407129
98.2656811305448
98.2679751440201
98.2649086643409
98.2615750031879
98.2833668178647
98.2762176969653
98.2597635485888
98.2832058233691
98.3731399386895
98.4086975843447
98.3488197412497
98.2557632517454
98.1856884520649
98.3237774183924
98.3439896939392
98.1907296858181
98.1748183806349
98.3485044681697
98.3834876162485
98.3163368339616
98.2727486462116
98.2456026681914
98.2471751290829
98.2672166685288
98.2384041349049
98.2580579018534
98.2375268931538
98.1517433130506
98.1299095286455
98.2320258344627
98.3414710547108
98.2875230935639
98.1964092367022
98.2116100002384
98.2272272132664
98.2576866161632
98.3069045489867
98.2938694392896
98.1925337238168
98.1501734637213
98.2613704285789
98.2964916309947
98.2309322043615
98.1514933110577
98.1877466509065
98.2266097311129
98.1716812898242
98.1764661338092
98.1851073414292
98.1480317754632
98.151554537226
98.1156046566209
98.0822342713067
98.1681013712218
98.2212868561496
98.182460225519
98.1044641166222
98.094718355629
98.1493595036812
98.1314125000119
98.0897617243261
98.0681357233593
98.0517255999781
98.0827848010931
98.1205018810488
98.0942251550627
98.0620328987728
98.0405061814271
98.1022658058302
98.1520091361021
98.1120961167626
98.1012286030444
98.0454424640356
97.9858597897432
98.0463682114208
98.0295283850794
97.9737505478816
98.0037059752553
97.9424782968205
97.8942794471416
97.882742428767
97.870781006539
97.8159426239449
97.7701140014369
97.7296305868331
97.7241523657907
97.7521610673732
97.6262308459072
97.5075339091256
97.6166063435235
97.5846840481022
97.5444799866662
97.4757469759557
97.3806174718589
97.3217350772206
97.2936257976867
97.1817428135698
97.1986313691082
97.2395803974183
97.1701664996147
97.071175915518
96.9232799043722
96.7511127725732
96.6260164200741
96.6090727634466
96.4439245971571
96.2232895736941
96.3295396260849
96.1153154371845
96.0265091010306
96.0018068257792
95.8059286637341
95.6814675699643
95.5804291510347
95.3861653559333
95.4425402775731
95.6547607540302
95.4312378431469
95.2623650196765
95.0568673047985
95.0500396931093
95.0855633209866
94.9319184080127
94.9012627088451
94.9172675554086
94.714552324518
94.5363374700219
94.632475166672
94.6586014798436
94.533395744098
94.3529149779967
94.1695165067319
94.7328932893798
94.9790518567703
94.540045828967
94.4510261100724
94.7795919422732
94.7845022846018
94.647202864704
94.5459956103272
94.4072804113705
94.5241627245141
94.8659618503595
94.7223942056334
94.4941875577539
94.422006647533
94.4537237483678
94.3947623809639
94.4899985677207
94.5447016674848
94.3623319302375
94.3318502658907
94.6200692991827
94.6274790025547
94.5600215030136
94.5497289014922
94.5871114987756
94.6336209038622
94.6471342475646
94.6574929807401
94.6711667161255
94.6677104272802
94.6294587914107
94.6413452742114
94.6616835674086
94.6266352001917
94.5688107064969
94.5064813800854
94.4503029943289
94.4432715668442
94.432534547713
94.3434451290094
94.1233349291402
94.1970191527854
94.4602889583816
94.2857360522225
94.0264046749327
94.1643006208476
94.2036025882187
94.0679216092069
93.9951005448176
93.7019347210722
93.6164980264984
94.3754032068897
94.2910486724335
94.0801829732983
93.9629176100182
93.8845874529097
93.9103360816309
93.7383719401012
93.6841497097273
93.7042529129251
93.7006970578881
94.0245645988697
94.0075084807658
93.6327645285023
93.5696459991384
93.7200154470194
93.566820950473
93.4162491034573
93.4221337577442
93.3697074830308
93.2493479318224
93.4797734254219
93.3638335736717
93.2607311123644
93.3101800962389
93.1744883872524
93.0307307545968
92.7941087172226
92.7573476035614
93.3543252611789
93.2873011045776
92.9423693786413
92.7574853550007
92.7407824115134
92.8916482408986
92.9261619332205
92.6996555443352
92.6099211299545
92.7538205818752
92.8195219988086
92.7462464643614
92.5796500446547
92.543825598096
92.5225783113935
92.3781075178494
92.3296350377961
92.29721202251
92.5135841450551
92.5481593298808
92.2755194470625
92.0746397338933
92.1276440670901
92.1835827000873
91.9291519751818
91.642418570305
91.7845078453428
92.0985886138449
91.8447786454076
91.6494152306037
91.474735439333
91.4667727832524
91.5022060586649
91.4117298526737
91.3547973172249
91.2731170670058
91.0465348306723
91.1452043254065
91.35768451157
91.1511394273849
90.9966147611948
90.9914578645456
90.8830995716472
90.6954994751997
90.6642374862861
90.4680684881851
90.2819102659425
90.4987520536766
90.4353350227621
90.1850269423466
89.9995287530302
89.9227290118464
89.8343683426262
89.6746336208552
89.6243460732506
89.6193020768273
89.3997415437421
89.3214917121229
89.3794499430642
89.3343281413144
89.4955578192308
89.5017598475282
89.3391930807669
89.3109240032853
89.5882149484341
89.6777137591588
89.6602685092565
89.6849843040437
89.7099670631143
89.7381129655625
89.7871835056405
90.0126337468893
90.1052475281405
90.1096265834082
90.2109623839879
90.2188992532275
90.21974048695
90.4199401846408
90.5856543444118
90.5841479965156
90.5925199566316
90.6536489139595
90.7237931711248
90.8092357834464
90.9223954421268
91.0177810221737
91.093954240812
91.1576089968113
91.1828545298949
91.265733179185
91.4095430728844
91.5037389565097
91.5583481403404
91.6040745519472
91.671024885337
91.7137804818539
91.748885245056
91.8229236452718
91.8811103651769
91.9026821396586
91.9577867052927
92.0359932026496
92.096223642217
92.1793242295033
92.2644056081284
92.3073546271372
92.3664530711535
92.4393281824894
92.4936946349355
92.5491371371737
92.6124105269035
92.6738736239844
92.7438078927282
92.8202436198016
92.8924423956982
92.9605555818247
93.0395080751852
93.1100079732416
93.1848560022275
93.2793877886485
93.3440345309277
93.412184739684
93.5114808577687
93.5816136102926
93.6306060865803
93.7286369418256
93.8198609135374
93.8850635666251
93.960190783633
94.0280103657153
94.096143652385
94.1636823667911
94.2299082828765
94.2971438852384
94.3493481640554
94.3695262283269
94.398732690291
94.4548983010414
94.5318756858555
94.6044800815528
94.6443789441036
94.6682763958027
94.6841436224529
94.7105735927327
94.7265206756736
94.7572673705295
94.8037448103602
94.813027554424
94.8076547635701
94.8334037760591
94.8535185889377
94.8367882851681
94.8079282947098
94.7842290649013
94.7517495369142
94.7321244959015
94.6965698764536
94.6263066171319
94.5602009850354
94.5001588736243
94.4292592678167
94.3487332432573
94.2716929591247
94.1862032154178
94.0701557784221
93.9590097510306
93.8633124941083
93.7553160499286
93.6570712007176
93.5605187354635
93.4407851117469
93.3458393477222
93.2387259535453
93.1527390361447
93.0934305121007
93.0231160129869
92.9584102171874
92.9180656351697
92.8803616820458
92.8485737251675
92.8418084761045
92.8423990889834
92.8219378728036
92.762459025598
92.7380643211355
92.7114322401719
92.6283357268488
92.5351466119217
92.4635092473183
92.3658830309045
92.242370395712
92.125897497416
92.0179362978053
91.9069196071846
91.8014727094334
91.678912670424
91.5435632854145
91.3906659485753
91.2377714324043
91.0765274409208
90.9238229808815
90.7710227644895
90.6161419002362
90.4670008417384
90.3543295868218
90.2151439692278
90.0896051052108
90.0228832283753
89.9582711207078
89.8809156130693
89.7888738136309
89.7049525482746
89.6781994056642
89.6898622460287
89.6805233987776
89.6799913718145
89.7237128378454
89.7971156943982
89.8787593319131
89.9579107808401
90.0873692580973
90.2746874775111
90.5136117022562
90.721852737773
90.8991108504522
91.1138511972924
91.3230923858773
91.5065959151129
91.6519633619276
91.7704606045826
91.9271621329558
92.0818500991639
92.2180279279429
92.3679274747654
92.5075656399434
92.6035538196893
92.6779395178155
92.7743643576895
92.8591040526491
92.9224055030273
92.9626910612621
93.0172731964179
93.0580923156319
93.0720583985401
93.0726504757819
93.0823277031678
93.0716598264066
93.1075158085498
93.1781977833706
93.2680512917592
93.3397361079283
93.3524566560924
93.3294563597534
93.2735452707586
93.2339476359881
93.2867434311742
93.3496859918162
93.3899963826364
93.4604522738591
93.4845992385138
93.4638133643475
93.4528241130668
93.4737368702555
93.4878752703061
93.46038728809
93.4549582653573
93.4557578221922
93.433399917802
93.4366272380835
93.4538250084514
93.4506578636359
93.4328186340362
93.4417556515204
93.4499165607469
93.4065375411869
93.3146575241177
93.2172692503926
93.1866970825767
93.2748330535513
93.4084598310468
93.5386980796634
93.6585335602417
93.7378796346715
93.8302274827089
93.9295206189136
93.9934555913269
94.0572189515913
94.124639980087
94.1624869336432
94.2304897878311
94.3009675875886
94.3523734343576
94.4064862240472
94.4501525771345
94.4878225980166
94.5373776328893
94.5767666680241
94.5792754922573
94.5712410204936
94.630664619246
94.7235151286952
94.7467225031485
94.7234308422369
94.7296809585976
94.7905799842723
94.8128246258281
94.824308170472
94.8360466281511
94.8815613597671
94.9181268180631
94.9043156252712
94.8967679099099
94.9238639406794
94.9584206760261
94.9706421033449
94.9790441897989
94.9980906265445
95.007712057751
95.0122069204809
94.996127463837
95.0036381568421
95.0089660535732
94.9979080856704
95.0302291389864
95.0627195036061
95.0401482563392
95.0262387982812
95.0378114700986
95.004418639913
94.951860173585
94.9253673405408
94.8689637742857
94.7703086039106
94.6529940512932
94.5443245633575
94.404127187852
94.1889396284579
94.0088309817382
93.8359349915403
93.6335704222747
93.4706731428205
93.3181033946172
93.184061775691
93.1017923619333
93.0621388309484
93.0120420093801
93.0355023273593
93.1233951420849
93.2028549683568
93.2426154669656
93.3072549735142
93.3639162709788
93.3797103411526
93.3883257171467
93.3089596264979
93.144027590632
92.929708178382
92.6075798147939
92.2290857659895
91.8617442660892
91.5574590524542
91.442053202284
91.7620943124308
92.2838407668198
92.7676577352891
93.1876427002163
93.4892661441391
93.6510222787298
93.7592618051984
93.8610286382696
93.9662056019129
94.0306130675322
94.037630911213
94.050103897621
94.0916090550829
94.118369041035
94.1391101068452
94.177367070785
94.1997883896866
94.1936326121862
94.1944431507818
94.1658033967355
94.1144208994985
94.1445521761813
94.1702756434747
94.1927980164303
94.2275706539229
94.180154077491
94.0930662255215
94.1010150980559
94.1514841594324
94.1715239786639
94.205619179594
94.2481420728824
94.2730595758243
94.2616883673121
94.2238145394197
94.2253408314598
94.2700520774197
94.281201062856
94.2819150075733
94.2518543948688
94.2200022222349
94.2561384398999
94.2913938787784
94.2479230083274
94.2325392326044
94.2310428787071
94.2034915169523
94.2236621295173
94.2791004966466
94.2699954410422
94.2622095630125
94.2544945467673
94.2595750397807
94.2166824638517
94.213266106317
94.2386567188632
94.2078340174316
94.1263701452597
94.076986142515
93.9763127482372
93.774359177662
93.5769283426343
93.4132893634546
93.1915380622725
92.8340476277754
92.4787569615346
92.1690118961003
91.9246808110902
91.7059731426467
91.5249461680096
91.4357703771427
91.3212251477668
91.1773422595135
91.042825552241
91.0202305521053
91.0386105915267
91.0480408806526
91.0939777477279
91.1570292108813
91.265089646373
91.3759292997441
91.4293387277151
91.5312872589331
91.6513876454469
91.7694903032664
91.8833943502401
91.812833348144
91.8491139145228
92.2308639935527
92.2419413376063
92.2271327295941
92.1875579736958
91.9939806718259
91.8360865186803
91.8708888734683
92.0164363239041
92.1034275565486
92.112045498198
