1798
3999.43349933624
650.420452594757
1
128
4
94.3381700500988
94.2826211133739
94.2661448370618
94.2964743928161
94.2557345204934
94.2753101027964
94.359190731405
94.4233674597956
94.4714887725162
94.4975595992149
94.2914734647465
94.2183708033042
94.1832338563504
94.2521472965273
94.4136107270262
94.4003326559643
94.3478655399462
94.4271415244051
94.3435418107168
94.3294398864404
94.2920325970438
94.2191677621988
94.2449021389202
94.3223034733361
94.4421115661834
94.4556770136343
94.2881517691506
94.1936456935783
94.2414992724884
94.3860292423931
94.3883099650586
94.3349553690362
94.3208865511009
94.3521562065996
94.2778750704095
94.3459834867934
94.4402970443456
94.4581297808286
94.4243909725305
94.311593819733
94.2093134011422
94.3346876616471
94.4001676703064
94.3944721266694
94.5295337119716
94.5681937777845
94.4450317724032
94.4657151715873
94.4292439990612
94.3145140902231
94.13407673134
94.0682693653835
94.1441305797174
94.3769524614954
94.4943649881
94.5050909050799
94.4598201966898
94.5062839454967
94.4090972607102
94.3945127800112
94.4560842653958
94.4467790374427
94.5143902362102
94.5795890648981
94.4812245741203
94.4567789156572
94.3965146647196
94.4921396144107
94.3880462173191
94.3928638274293
94.4279231532423
94.4836196250484
94.605610546691
94.7708683046007
94.6602408693385
94.4787419539083
94.3401062772852
94.4027611196273
94.4274669718759
94.6048444568625
94.9042462456425
94.9024634654168
94.5925666627778
94.3495496318674
94.3084062948051
94.3061306753347
94.2331179777793
94.4841612057404
94.7283257216691
94.8300394072336
94.6942217180351
94.6140395415311
94.5858513743518
94.5380339212951
94.4136137673999
94.3759238803841
94.3946798001888
94.6491809275331
94.7854909026011
94.7889981790408
94.7490554232589
94.7096433314185
94.5924803250743
94.4593333391201
94.4585326845678
94.5273677423864
94.5171440547889
94.7171995412727
94.8589196853735
94.8675124865014
94.8134497022502
94.7571772657621
94.6967752684858
94.700512213225
94.6940034454757
94.7198873676442
94.6604769517352
94.6883557396795
94.6834756803227
94.766871290669
94.7060494180182
94.6875244371151
94.6901400148101
94.6158020988137
94.6092908256034
94.7206842282052
94.825567021222
94.8161940702207
94.6563763013215
94.6143618947851
94.5655591844284
94.5412982518032
94.4548476133088
94.3751935125721
94.4836410585362
94.8133942791982
94.8636929799725
94.9041144149168
95.0081472418147
94.7877591958367
94.5584499128076
94.4606515199442
94.6026489940268
94.873462317384
95.0740299795921
95.2251899531452
95.0355290843814
94.8220349309945
94.7829095301567
94.797029939034
94.9496155944089
95.0043742091016
94.7519908455098
94.6568629468317
94.7702789923437
94.8739498219441
94.9628561044066
94.9487430186534
94.9317195158082
94.9441193993499
94.8872082626098
94.9428330038787
94.8807381272339
94.7754116194131
94.6685692370592
94.6847249508785
94.7915746450286
94.9990668734551
95.1382092644999
95.0911068925542
94.971587051103
94.8038376160834
94.6831801808926
94.6881901512409
94.5990429626329
94.7192301546558
94.7470876258141
94.7650905820939
94.8588736352633
94.9807616186746
94.9014383621907
94.6956322389801
94.5864446184473
94.4694863431046
94.3809879584124
94.3956429572235
94.285552966942
94.193183533057
94.3569247903866
94.5414596071388
94.5504038956496
94.5104974410463
94.4327320481022
94.3525684696061
94.1932903592957
94.055722787785
93.8944020603892
93.8205646982673
93.696766380395
93.6832305412787
93.8971781793129
93.9121444183961
93.5825414193383
93.4534397347326
93.4484645616832
93.4951889469683
93.4085315463506
93.2634285164209
93.1704794002259
93.2312567265929
93.1877334819976
93.2199888999501
93.244170499922
93.1998860220475
92.9884938735306
92.9236877806144
92.8334411050853
92.680943747212
92.6833972794549
92.7314349134909
92.5467235893191
92.4701668251692
92.5587740400685
92.5687144582333
92.3940837678736
92.3852836725933
92.441393269305
92.3509749991623
92.087778202517
91.8935311254387
91.8557140697293
91.7500869019332
91.5551514723883
91.6171370204791
91.7391550237009
91.7626539362896
91.6983152059049
91.6364290678924
91.4703126335104
91.2601356006481
91.2100260944224
91.3207459985098
91.2196175228488
91.0923652252528
90.9389832299917
90.9521126992371
90.9931146349639
91.0271611479269
90.9395064105405
90.7286974465865
90.5335317032389
90.5606890819027
90.525467323144
90.3036884074648
90.1910052095039
90.2872664788455
90.1759594613325
90.1150929353908
90.147112719254
90.1237150516606
89.9456516122931
89.8851983444997
89.8361642637063
89.821095657524
89.7904019262055
89.7144822881352
89.5235491891114
89.5312684576442
89.5573533703804
89.504903215705
89.3429456868181
89.2800751496669
89.2782731274709
89.1232872442031
88.991066575386
89.0657621264458
89.0384800532835
88.9622184505667
88.8411178526669
88.7723610401502
88.6291792376365
88.5517370381711
88.6559931444639
88.7350656137839
88.602134008761
88.5285883196416
88.4007743913059
88.300552810175
88.214466733151
88.1780921063509
88.109123446014
87.9765043837136
87.9051441057652
87.9412626095322
87.9061031386007
87.8479128087784
87.7213091792155
87.7006159409461
87.582236276337
87.516608287673
87.4423418802745
87.4472525398371
87.3596729945689
87.3269659727953
87.2960306144597
87.3039397588136
87.2236476510874
87.1616095980663
87.1587444857423
87.1807147183689
86.9904580845137
86.908825744916
86.9156397122201
86.8542162346464
86.7834958951166
86.7374961628181
86.6569966680931
86.6348687291147
86.6012278101224
86.5843245004704
86.4768752102408
86.4328841061606
86.4357262424103
86.3334662121392
86.1357283057974
86.1088623151987
86.1370842118747
86.2276205462454
86.255850464762
86.1464444375964
85.9980685704008
85.992841999893
85.9365670864981
85.9400084189715
85.905662205616
85.8602573996203
85.7633379221604
85.7882078639461
85.6517070951029
85.52662106304
85.5023494333794
85.5207969388405
85.5620320798715
85.6370061730142
85.5614669406023
85.4858860153608
85.4395421823796
85.4303270582835
85.4590444675602
85.4139074896808
85.3412018166056
85.356813307125
85.271532112413
85.2795307212587
85.3081517098974
85.2910000417661
85.1460093369041
85.0184160701855
85.0108057283697
85.1338320687584
85.2060300105718
85.2174242003912
85.1036848413179
84.9779822016816
84.8683951177992
84.9221228285996
84.9512229002585
85.0273880117721
85.0457459926071
85.0411097669464
85.040927666334
85.0548854798193
84.9442241691906
84.9510237682157
84.9354442908153
84.9323806409775
84.8764949672122
84.8542866608297
84.7956334698908
84.7234278463693
84.7666517588695
84.8262147731391
84.7480361194278
84.7207286205156
84.7341615974528
84.7406164853998
84.7230464710721
84.6814341931935
84.5857003602452
84.6805827211075
84.740042831066
84.687466783342
84.6364360525337
84.7171321196591
84.6964482668751
84.6460560671889
84.5984790235166
84.6344933734188
84.6196692851289
84.590574038439
84.6013244338131
84.696780785371
84.6729738347192
84.6263481636318
84.6043381934975
84.631228032905
84.5906550849269
84.564764506903
84.5594298313064
84.6300787249315
84.6592155537656
84.6498533067693
84.5543229615507
84.5954253608638
84.5999698136388
84.5543670962304
84.5768131395601
84.6734533986945
84.6138969452157
84.5638866522652
84.5888487080477
84.6291583274755
84.6714507268808
84.7151425354974
84.6348326291419
84.6354529345081
84.6979249410313
84.7206519411728
84.6734530714983
84.6046084000977
84.5511014269048
84.6888753623372
84.7589090272454
84.7667142874036
84.7051780762461
84.7445375936648
84.8148511760286
84.9029592899578
84.9087615249416
84.9027542734005
84.9334258284848
84.8957853662009
84.8932974632801
85.0253220900284
85.0337254553496
84.9860484990487
84.9367577693503
84.9304323838068
84.9552750849012
85.1424913156519
85.2412226017374
85.2201819462879
85.1917823780434
85.3124527141903
85.3754805377087
85.4249585576976
85.4268439597231
85.4148137361936
85.3284433713047
85.3695971895496
85.4300510674607
85.5351372959363
85.5882696713532
85.5709194714749
85.5440429990475
85.6503168580572
85.6875782789942
85.7464738807434
85.7095218618347
85.6638650396853
85.6938278014071
85.8748666431808
85.9497313032748
85.9422558180085
85.9429252126668
85.9372856461727
85.8693975879447
85.9557172603447
86.0686292084256
86.0340647469575
85.9977619912417
86.0473731908296
86.0326203389895
86.0457334976969
86.0311959110829
86.022772976522
86.0981075188644
86.2063252638222
86.2197256382664
86.3117226908064
86.3675761045014
86.3961577399681
86.4017630802311
86.4328265687234
86.4532221657656
86.4261442538852
86.4397393703146
86.4744182353524
86.4410719021862
86.5024255816342
86.5100250083292
86.4832723561542
86.5201036137603
86.6554336754502
86.6999313492107
86.758927314664
86.7957334933403
86.7325139900582
86.6276317717374
86.7641526176622
86.8657811035259
86.8972144308696
86.9517193496364
87.0338292139606
87.0884180546955
87.1199106411267
87.1230567706867
87.1816707420743
87.2106383688229
87.2516166705309
87.2383979408544
87.2144648622964
87.2075332522229
87.2762347036725
87.2982892327999
87.3536105684335
87.3450154712021
87.3383343354497
87.403767672883
87.5671580637283
87.6562791441423
87.6810722344581
87.5830495396064
87.5091767517855
87.5092068295865
87.5776048162466
87.6014475976699
87.5762236004123
87.5714260461861
87.5817339129762
87.6032275014759
87.6028966175359
87.5472399096323
87.5766089897024
87.5440176616371
87.4604655750685
87.4796902947363
87.5493235251319
87.4998083781225
87.4116688448345
87.4263141565483
87.4603525492618
87.3424394509192
87.2973905685325
87.2910547464618
87.26989004709
87.211926942612
87.2332787231454
87.2048676533795
87.2251811033858
87.2355551389153
87.2159746889088
87.2089944698764
87.185868529139
87.1902899393347
87.2248537859023
87.2004083007812
87.1341110076749
87.0509939455794
87.0320058395814
86.9642094236624
86.9355647629663
86.8427332816634
86.8954673979033
86.9457184920876
86.9345306396814
86.897346590771
86.9288587837629
86.9843587651565
87.0655356402279
87.147143144014
87.2601281406026
87.3137009852273
87.296238883325
87.2771789560401
87.3211091488599
87.3764597756806
87.4827666365928
87.5176277402054
87.5549749821682
87.5960777104082
87.602147249202
87.6345853686869
87.6874540258606
87.72943837314
87.7497176919054
87.731373311526
87.7675982927781
87.8075214660806
87.8164074148739
87.8204669395815
87.8517088420193
87.8343870434865
87.9048775849064
88.0243412289353
88.1024872951831
88.0758409856709
88.0603874681356
88.0288966261958
88.0072672308661
87.9993463990418
88.1010840251534
88.1981387941837
88.2130280910948
88.2107269112501
88.2442431911596
88.2839250014786
88.3548579760473
88.4362344000618
88.5432659310209
88.5404720121697
88.5586762195096
88.6466785156402
88.7792552117497
88.8065990935864
88.8076266515889
88.8387819077766
88.8724355303007
88.8910131035935
88.8805896085977
88.9231621263348
89.0490979255515
89.0841138519268
89.0930441001674
89.1507638389493
89.1724793708331
89.1442447540519
89.222594578762
89.2713291717269
89.2499924337337
89.2379297311934
89.2910666704423
89.3220674356111
89.3693961259783
89.3979160718082
89.3934260893588
89.4179844672176
89.4784149926917
89.5023218970902
89.5623491330577
89.6145131999452
89.6153860261064
89.6187230715694
89.6650153508831
89.6443501687178
89.6240771468889
89.6469499455516
89.70071925098
89.7443864263742
89.7736847607531
89.7805844997831
89.792230820739
89.7924747684404
89.8288824577471
89.8968820213116
89.9251025703568
89.8826075972774
89.8801228882727
89.9067454247429
89.9565725999598
90.009369491079
90.0275568440592
90.0234201058044
90.0080103556061
89.9918901624951
90.0480052555552
90.1128817394146
90.1386334528514
90.1223492624416
90.127820317223
90.1572109618964
90.1697726380067
90.1697584117746
90.1687481603123
90.2383004737214
90.2936051284777
90.3094940132009
90.2993641054371
90.317237384341
90.3288729187505
90.3429066755977
90.3470157170971
90.3797017774191
90.409977215173
90.4267046192542
90.4808784485884
90.50555837514
90.4834904867767
90.43950587625
90.4796766657893
90.515522524473
90.5011607688477
90.532509618981
90.5294066048684
90.5501316210554
90.6081006517365
90.5953030993573
90.6266033994345
90.6751014228946
90.7155532185774
90.7466499526369
90.7465679092888
90.7279415079179
90.7561675957032
90.7501107146589
90.7492282540861
90.785803705322
90.7694226616191
90.7865126224107
90.8284532260413
90.7965526026176
90.7798388011927
90.7363076226596
90.7155054092218
90.7626425314068
90.8187349621735
90.8357984042659
90.8817634862484
90.8645283839066
90.8413698847371
90.8925436522573
90.9072970693304
90.8876248262515
90.9271714370365
90.9924118759611
91.0860612359307
91.044618684027
91.0105625774561
91.1385932578946
91.1566386368101
91.122652816645
91.1562725391867
91.1752151114204
91.2010661225962
91.2676038553649
91.358247537795
91.4046725189436
91.4065842381185
91.4026668427379
91.4283703505327
91.4794572979606
91.5489532523744
91.5312105171683
91.5365538628551
91.6196389765999
91.5987728704189
91.4973413515474
91.5365757226575
91.6474284567928
91.6921622374004
91.6776582661241
91.7232577965605
91.6989363302246
91.7120311989038
91.7783342616247
91.8373514335409
91.8460121561414
91.8536143740546
91.8626342877605
91.9269286101963
91.8920596080345
91.9283010794951
91.9441291227708
91.8920934663343
91.8881686152792
91.9694251526892
92.0747029167778
92.0681445017852
91.9788311291413
92.0236985427449
92.0105720503855
92.0025453117541
92.0300721760329
92.0263586089868
92.0370525510702
92.1392111332766
92.2361431615183
92.2187493342449
92.1986783359407
92.1902615759202
92.2115068670127
92.2961423345292
92.2378956368571
92.1509558170066
92.1645939230126
92.279426720352
92.2940735913004
92.2660844922029
92.2855216279538
92.2463873064548
92.1988785987184
92.280507957783
92.3009818766977
92.3679546736764
92.4145550119558
92.3268948853
92.2266648079342
92.3127680645257
92.4481201308331
92.4023062818146
92.3302654892269
92.3973914506836
92.4630223064893
92.4619619802234
92.415336995984
92.3657888644945
92.3802982759225
92.4354793033883
92.4555024397075
92.4790647106537
92.470077414899
92.4948609873622
92.4688978735383
92.4770266657054
92.55494036318
92.6369097561543
92.5522886217834
92.4806613457023
92.508149312988
92.5225125589157
92.4801270740437
92.4575104546847
92.5271216232433
92.5834273635964
92.5653891588366
92.5554855297144
92.6331341801795
92.6881174109444
92.571267038732
92.5424497330419
92.6639739779887
92.7533658574926
92.6911083961888
92.6413134128135
92.6605448817244
92.64854917521
92.6394375227412
92.6415730015563
92.6633516200675
92.7180346309269
92.7261761934488
92.7520508113349
92.8031416639453
92.7315485703725
92.6917360548948
92.7800462978019
92.8009100542902
92.7679009768443
92.7960808126458
92.7522153629726
92.6863780479665
92.7161816301742
92.7660056272163
92.778104406338
92.6964992746726
92.7110221586537
92.816804973245
92.8344837796397
92.7472530719887
92.6670972072942
92.6323454895168
92.561551336252
92.596257621523
92.7752152282209
92.846349788175
92.8292150482873
92.8501289442019
92.8747213163624
92.7995280727379
92.7762085611269
92.8247172462276
92.8883183071254
93.0479779170042
93.0917984127988
92.9845437488565
92.9027462199992
92.8572119349153
92.7561185323467
92.6872908129898
92.6557658781856
92.6075249807374
92.6538828287637
92.8025398080736
92.8125768049789
92.740539568728
92.7794742183756
92.7761096352864
92.6896029798774
92.5536605218907
92.4123380033341
92.4438177373917
92.4941476497689
92.5401655565325
92.6226339676305
92.6386610969121
92.6572104709887
92.7143471420027
92.7528670286671
92.801826360188
92.7606595073537
92.7751406804644
92.841176656988
92.852454038325
92.7781022690033
92.7569041087768
92.8136411096457
92.8311627757671
92.8134135191201
92.8381955407815
92.8917995116458
92.9283630190678
92.9870382143435
93.0582137266127
93.1377522571565
93.1576291878139
93.3195240114054
93.4521223644371
93.4137170813872
93.3929656877792
93.3626364097041
93.4799840716425
93.6622167395391
93.662859461508
93.6442901137304
93.7873841712303
93.8096768963877
93.8443983094355
93.8269958892358
93.8472351476091
94.023109194519
94.2436358445643
94.1884966819497
94.0156461322483
94.090804460101
94.3134445755088
94.3544832681684
94.2674074645417
94.2861775431392
94.3770691695155
94.3975073691979
94.3671929494172
94.3353344530448
94.6166974737798
94.8801701943102
94.638764896848
94.4011131829035
94.6046310118261
94.7357365256962
94.7380755042165
94.7930636572185
95.0034228634703
95.2253961114048
95.2186768704666
94.8822249560486
95.022989679082
95.309308203074
95.1557214343724
94.9970151631995
95.0370957182919
95.1763849315338
95.2251080740313
95.3822046090532
95.6054169450188
95.8268518130852
96.1433850046154
96.1893712266588
96.1883882744569
96.2103467283378
95.9009252465003
95.6697347774745
95.8177683240709
95.92695968331
95.4766209318812
95.6661499226278
96.3503290338026
96.5507488287734
96.3673730377651
96.6842874675523
97.7650018396651
97.8432882485592
97.3134396712012
96.8349218253249
96.6132408682323
96.142797118578
95.8661875472434
95.9582383585701
96.0182080454684
95.8374854764171
95.4307957697877
95.2708066916426
95.3401427683157
95.5088698396647
95.4074798370994
95.0868026422768
94.8611578977328
94.8866270583548
94.9215453546137
94.6806985064697
94.6132937330656
94.5294047710067
94.4938196049525
94.4263902978716
94.4418068845692
94.5830829332949
94.5414074501073
94.4884863847483
94.4214994040699
94.4226266813375
94.6071692911621
94.5987232423066
94.6244242640159
94.7127996443967
94.7593612305486
94.8046491266813
94.8414124955904
94.7800217529984
94.5968934593046
94.4479274245311
94.5538405041766
94.7301385891076
94.7216999016957
94.6854529907335
94.9338885093522
95.1104615003509
95.1106015722534
95.0533115436365
95.0982088806959
95.1664742923102
95.1749703133228
95.1191321493967
95.3373234392724
95.5671791413591
95.3608358306114
95.3320064373542
95.6084797887186
95.4023660541864
95.6831976501896
96.1455180186554
96.2562448652082
96.3890621716391
96.4345237053783
96.3738213112542
96.4801143026223
96.8314270995947
96.9293518487908
97.1356802577773
97.5181303469584
97.3994112210382
97.2996740346135
97.1526160581429
97.2880095475723
97.1666009513118
96.9210404203158
97.0621800541744
97.3353433721612
97.4792932023556
97.1324941517536
96.7330115791062
96.6385801456084
96.9565908743823
97.1117542455881
96.8458392427057
96.5103311903069
96.3076429461287
96.1843379665414
96.2664273286903
96.4991557062292
96.4372885428404
96.406824538602
96.652970272142
96.7178095376918
96.3717060057642
96.0578600430336
96.1021432494435
96.2686985857762
96.9233224949756
97.5559542373884
97.2433164559516
97.0481982384711
97.1828577851827
97.147119363397
96.7701790957623
96.822290556139
96.7299540299498
96.49170844668
96.4281873961536
96.4208289035531
96.217081877684
96.0426183866505
95.967660547771
95.8651721218381
95.7069134622455
95.7602041052226
95.8128838892897
95.9624633956858
96.0582668239416
95.8348514554365
95.681069266965
95.5721383250491
95.4671178314911
95.5853587275976
95.5152818448748
95.40743569601
95.4154875858856
95.3911927566948
95.2408332482992
95.3640270941995
95.3881231592303
95.3377119228091
95.3598056884776
95.3654842936707
95.2288030684112
94.9857588050784
95.0492018271657
95.1438001605672
95.2132286377027
95.2547492449817
95.2802991122897
95.2120785987757
95.012216151076
95.0674479839985
95.1518272229656
95.1276008191302
95.0594477145744
95.101455101983
95.1323696769835
95.0848257419462
95.1106998301163
95.1983400383426
95.175737523823
95.0615653150423
94.9497479342233
94.9656290155145
95.0221710521832
95.0171940525134
95.0224391741022
95.1015119556155
95.1135824560918
95.1328623046892
95.0915282605938
95.0822098367221
95.0735317758666
95.0690994916348
95.1093054477458
95.1142346232211
95.024294423011
95.0529976263191
95.1404302627947
95.166373410824
95.1604042209993
95.1607023866832
95.1368088837583
95.063168308084
94.9862227591816
95.0377720330968
95.1276337751329
95.1091625759522
95.1106821325058
95.1412186846116
95.1630461107831
95.226654575518
95.260342795755
95.1917663132208
95.1047003245548
95.1085963979775
95.1179498254162
95.0932075079335
95.078043886908
95.0421948820217
94.9967780128771
95.016515117245
95.0345514398531
95.0323655823006
94.9724361767168
94.9132767144317
94.9465139675593
94.9603275826939
94.9159722886833
94.8624115686839
94.8084904097962
94.7477679931581
94.7403996426903
94.6353685760477
94.5545122798463
94.4256383687841
94.3446047243
94.4713891500505
94.4807086353282
94.3898809464066
94.2311797285463
94.1057224947216
94.0852301978827
94.0883050797133
94.0098240389095
93.9332519287216
93.8263568817379
93.7300903146897
93.6437403084736
93.6715197711265
93.6805668622649
93.6154444034888
93.482615960698
93.3326742544702
93.2329891543161
93.1122720158551
92.9685094675065
93.0106880353595
93.0247357070787
92.9835393700721
92.7891400834348
92.5709626128955
92.3328378652328
92.1053100324347
91.8545243400005
91.6927682524152
91.6106461310341
91.5260256511387
91.3840592839921
91.1804451379037
90.9287144859669
90.5922046442354
90.3062303474217
90.1228573396533
89.7557442203128
89.4894336743571
89.4031105461383
89.2928560410093
89.0498643271024
88.7112296166836
88.278515861777
87.9161696046416
87.5958578175903
87.2297540313686
87.0028601867218
86.8200062474779
86.522361171391
86.1226709105964
85.6412619558099
85.2888472773906
85.0644498152809
84.7680363600906
84.4161676237382
84.1499753730244
83.8387170854156
83.4710603978819
83.1122665803766
82.8015859465359
82.4832317008391
82.0409567799386
81.4991313526881
81.5344248163216
81.5432623389632
81.2633653158407
80.916690163986
80.748716077382
80.4986383005439
80.1873551670761
79.9126165302292
79.6457790093959
79.5001853171799
79.4932002037816
79.3509996537319
79.0641913258739
78.8269027117136
78.6770072621525
78.5076232741857
78.3563027795615
78.1889100376783
77.9376188336471
77.7287344585691
77.6704373385375
77.544866861416
77.287467440102
77.0111306662083
76.8511170747361
76.648787666544
76.4102008988596
76.1982464743066
76.0016564387733
75.7959033518054
75.6495369196264
75.5047490983634
75.3669363996972
75.2273640121697
75.0978503879874
74.9590293231924
74.8401637391353
74.6939534184978
74.5943690938081
74.4592947802911
74.268562846067
74.3286887171501
74.4251423453097
74.3078147429759
74.1912856429513
74.2249123998266
74.1972364922093
74.1442744103543
73.9809575552081
73.5070041795586
73.909249178181
74.5404485091681
74.7174297006943
74.7186033398317
74.6963752769768
74.7735165702112
74.8131586877651
74.7666580829102
74.8842544146365
75.0631557158143
75.7076190821621
76.3911549577248
76.5254120991566
76.5363149971224
76.8150437317546
76.9914133694734
77.0315197958389
77.1133005212512
77.3272871729359
77.3974284439629
77.7625486214445
78.1295922284972
78.2782804774816
78.4704308448075
78.5158372379325
78.4616696057045
78.3496966786199
78.242545640169
78.9542201234862
79.5755923065089
79.627515532812
79.5010051947918
79.4243908345341
79.5911006039575
79.952858713065
80.035554974011
79.9369510219258
80.109278270294
80.4852328628513
80.7584651482142
80.8021098921784
80.769647351719
80.7553355955225
80.6642718659921
80.5987277049588
80.5325367026596
80.5737738711274
80.7295520409899
80.6231212496809
80.319092667471
79.9914530509853
79.8548129963575
79.6794102175559
79.2971376751317
78.8737338462094
79.0913085001793
79.2234772383267
79.0466950295849
78.7385393935102
78.4842911959406
78.3843361465939
78.2782808455893
78.0876247797689
77.9015862452692
77.6509064266817
77.392309343818
77.3379037816571
77.2542974297459
76.9997976543228
76.7029532514354
76.4424445442126
76.1195237013263
75.739215871775
75.4073186362092
75.0313648120218
74.7762144516288
74.65357360485
74.430388636133
74.1121812920242
73.7805735749664
73.5092131791812
73.2689101190957
73.0491593888692
72.9194086890749
72.7951618327845
72.5901584157034
72.5009133028979
72.4845484642744
72.4949669792146
72.5371049632053
72.5057387275516
72.4005511654238
72.4210975865529
72.5422816997294
72.6107659281544
72.653612668266
72.6809561805584
72.7368594337566
72.8049260905883
73.0234970489818
73.3023132058952
73.4315539926354
73.5619065916513
73.7379736784965
73.8514705198276
74.0903140933554
74.4666716275601
74.7593386577608
74.9354143176701
75.1148482003873
75.338735546904
75.5650350350361
75.7935043760271
76.0061815296976
76.2082580591743
76.3916030996526
76.5263229021833
76.6886123692815
76.9747282475567
77.233723727954
77.4048648606425
77.5141522485242
77.6262417983287
77.7590183364894
77.886042113696
78.0035865124959
78.0907221006136
78.150900921728
78.2378819337338
78.3527975877704
78.4433923902147
78.4956642827681
78.603022742072
78.7037982756391
78.779921616216
78.859295267966
78.9727330692652
79.0755656914144
79.1793192846443
79.3105467236482
79.4291347541469
79.5241180185224
79.6359683866923
79.7459246658326
79.8214190761489
79.8836624858821
79.9681978132711
80.0543251619663
80.1109496219933
80.1406715473119
80.1647089054888
80.1823836439299
80.204227341666
80.2167509114146
80.2044295503501
80.2124580103248
80.2498980030021
80.2410555556277
80.2098270458516
80.1691564798076
80.1490469976591
80.1484976624677
80.1344565836644
80.123383629957
80.1114103223783
80.0742667107259
80.0420046833277
79.9980692058468
79.9577892144172
79.9312778553427
79.9141878545279
79.8948215303492
79.8704602976376
79.8349910837783
79.8172807006143
79.8089432151149
79.8225112647575
79.8477585177658
79.8378911986351
79.850547516694
79.914379500968
79.9551923443527
80.0032137480091
80.0447822427386
80.1052283220164
80.1882556641491
80.2554518462342
80.342357274328
80.4390978005053
80.5260393323091
80.622191909751
80.7360609605471
80.8689820868642
80.9949519852547
81.0885400334327
81.1753293091126
81.2803225695117
81.3760617048977
81.4266596631867
81.4532270207466
81.4863630051594
81.5078210507217
81.5142954935778
81.4934162968693
81.4592054468178
81.4073469280868
81.352084416979
81.3101598116976
81.2751225071816
81.2283626754791
81.1686791075456
81.1065906421404
81.0498565348674
80.9754713848209
80.8762631114875
80.7882785217147
80.7242424739788
80.6384360754531
80.5392987262471
80.4501651363308
80.3490738454521
80.2574993662563
80.1634014463747
80.0386790124863
79.9238918509054
79.8063676307687
79.6326943481594
79.412458743554
79.2114133541499
79.0070856942924
78.8213959993284
78.6600759133484
78.5040536561779
78.3611652185816
78.2644128868055
78.1473580977693
78.0367650996452
77.9678731072726
77.9053054893891
77.8278571499897
77.756520941442
77.6860787841373
77.564702105568
77.4192537006594
77.2889312447841
77.135610545556
76.9541448900093
76.7451928894186
76.564467825123
76.3719307767316
76.1495529374418
75.9434125437358
75.7599539752498
75.5647572826149
75.3755973673293
75.1576810878534
74.9340098658182
74.7538712497521
74.5998517068236
74.4274774931141
74.2330059386744
74.0723322322879
73.9355807764126
73.7661932732721
73.5827944293421
73.4333984286376
73.2994991967694
73.1450473520718
73.009600622298
72.8734202812142
72.7292544025588
72.5889463483388
72.4635066533487
72.3598281573529
72.2723220149974
72.2035793648816
72.1074957327465
72.0357697819121
72.0268040899219
72.0025617593609
71.9854358909034
72.0008453555079
72.021221089541
72.0805739127415
72.1728592165772
72.2503295435454
72.3558901506675
72.4899885808599
72.6174237964666
72.7959340522747
73.0202082050507
73.247489334531
73.5199773623324
73.7812132151792
74.0283854080427
74.3001413446047
74.5650571815181
74.8021644001136
75.0604511975683
75.3188164325603
75.5554808188296
75.7722300747095
75.9866731960129
76.1595257736924
76.3306071831631
76.5051728416694
76.6520528563432
76.7841085654251
76.9019728988661
77.0091470120589
77.0987648585778
77.2029663066019
77.3131043484263
77.4066857304348
77.5214978322406
77.6509673431463
77.7798166371484
77.94487378064
78.1258831074242
78.2885982249564
78.4433238436926
78.5847375820585
78.7548850170651
78.9141750937338
79.0660142647502
79.2296649521527
79.3971528288971
79.563277507865
79.7331405727063
79.8585019315277
79.9991053706151
80.1542648270411
80.2596775934266
80.375027130091
80.5168459434245
80.6334481687147
80.7380935945383
80.8249847873598
80.8892482955135
80.9147479985293
80.980957497548
81.0295558034761
81.0761221946363
81.1257459476265
81.1931266817271
81.2752542407989
81.3688153124241
81.4476717465484
81.5073690619363
81.5596315074846
81.6384379056212
81.7218677273265
81.7737205181895
81.8112659343964
81.8439610397136
81.8500616607822
81.8684170515927
81.8900922677851
81.8984370361673
81.9189862883132
81.9073853697239
81.8671738147145
81.7872183053703
81.7006228031844
81.6232691411872
81.5070176454899
81.3342011613011
81.1690779245929
81.0317526856935
80.8792777952492
80.7738817373686
80.6535938975831
80.5460833968633
80.4852762890295
80.4542876551042
80.4584196371474
80.5126813400537
80.5812703492496
80.6736429929247
80.7635688255702
80.8403942069015
80.8159835631455
80.7553889378673
80.7205163042289
80.6678581551897
80.5904079917658
80.5302154823565
80.457171198624
80.3794866954026
80.3259281333573
80.227689229681
80.1348764525006
80.0669727685318
79.9801245658118
79.9163796711447
79.8354696897312
79.7342216715394
79.6480052414103
79.5258771996545
79.3820158348835
79.2827414990916
79.1432407790545
79.0504983939531
79.0032334533551
78.9362327538306
78.8073879446035
78.7019057482427
78.6350733944781
78.5482481132525
78.4728828499764
78.3845835630502
78.2950637252337
78.2272562547805
78.1576915734576
78.0970119423963
78.0017389634217
77.892744054697
77.8174498937684
77.7885241532495
77.811387488519
77.7729127496141
77.6678746844988
77.6676031963236
77.6423016878928
77.5676939376733
77.5426117457573
77.4971945639052
77.4080023093037
77.3290850174464
77.2400921246873
77.1936488319355
77.1425440157393
77.0678279221282
76.9748350578247
76.9243574652568
76.8596118195116
76.7779964236059
76.6921223643319
76.5893965099403
76.4772796034515
76.3922452870766
76.3255254755571
76.254318275488
76.1433135932231
76.0637561745126
75.9741879583051
75.8192647695935
75.6678286976115
75.573032395915
75.4401710145877
75.3311319434976
75.2392213700756
75.0943044009476
74.9287113026337
74.8354291298106
74.7430414108781
74.6160101628625
74.4596694124446
74.309818564837
74.154963731544
74.0342374614597
73.9087050215861
73.8101489701446
73.7034847252589
73.5999306849784
73.5064131560121
73.4150347165574
73.2880140988989
73.2076612549847
73.131825694291
73.0124717181333
72.822105093157
72.7448551181949
72.6543310369672
72.5794652434984
72.5275427332678
72.3667436226121
72.1181368408996
72.1342731487118
72.1382907179092
71.9788032437747
71.8343664447424
71.7528468878542
71.6304903023182
71.481243732237
71.3296641711301
71.2342761941348
71.1579330210161
