1798
3999.43349933624
650.420452594757
1
128
4
96.0786807029109
96.0749302336496
96.0525607528643
95.9906773543842
95.9922229079514
95.9477596629141
95.9846486048478
96.0550963995527
96.0427127522565
96.0279135690816
96.0749085080529
96.0458433543459
96.0827240227084
96.1328328046812
96.0648476295412
95.9926587807113
96.0489160507621
96.0779145892949
96.0559440515114
96.0601527232438
96.1058299547789
96.0429232232775
96.0284949969565
96.048599258229
96.0434852045256
96.0145382359746
95.990202124208
95.9726922976783
96.0174709636125
96.034222637588
96.0528536272303
96.0205068374179
96.0117472460483
96.0441826483816
96.1443390715445
96.1380280429415
96.0635268186765
96.0623391768262
96.0976349748526
96.0784015199034
95.9961263597035
96.0384240834287
96.2276524413391
96.1659958451538
96.037224894939
95.966245101343
95.9931082739151
96.0798064082844
96.1446392184785
96.1588796321839
96.1901836947038
96.1424233967594
96.0726273364467
96.0352002424012
96.032841321914
96.0087673919574
96.0791682602225
96.1114516256229
96.0685624883848
96.0406945338806
96.0477795483702
96.068134021972
96.1693630134674
96.173128873199
96.1367706045415
96.1516914387321
96.1514377315446
96.1014908995615
96.12808522189
96.1172539058509
96.1036828140883
96.1078741858234
96.170662870546
96.2157219974737
96.2301181222366
96.2184859683011
96.2473572876016
96.2736164455767
96.2065665013499
96.0075096409077
95.9739527841382
96.0900179614047
96.183476158243
96.2023521257981
96.3231902012469
96.3605409343823
96.296773284019
96.1373489526981
96.0830039402609
96.1104115475553
96.1515337085948
96.1966220078072
96.2800242400409
96.3152916323314
96.3781531126431
96.3242367971806
96.205601276125
96.2328053272179
96.2471853379623
96.1238001215062
96.1802673120009
96.2244738996935
96.2703889320822
96.3277647534617
96.3316564780151
96.3116904325911
96.1856036421004
96.1262010114798
96.2759439083797
96.273520545176
96.262779508449
96.2505492674744
96.2932383084523
96.3905196142056
96.3832241987739
96.3577622900246
96.4248102536572
96.3580003893189
96.2582760621493
96.2848399005496
96.4087301727746
96.4848679216052
96.489665228732
96.4665176663271
96.4980363746458
96.4348334636062
96.3955449841095
96.4060409393946
96.3981949102187
96.3925983307213
96.4296192420321
96.3833257594664
96.517619187093
96.6476382363244
96.5168056425361
96.400703505321
96.3603521790953
96.1920050807445
96.2310152179287
96.4371103647763
96.498376888205
96.3837164614551
96.3326762886916
96.2736384453377
96.274625139879
96.343790096753
96.3534424122843
96.4173076833924
96.4616867906469
96.4219047321679
96.5686241685605
96.602772837798
96.5132664337095
96.4804717207071
96.5695697666725
96.4400346185562
96.3210813519092
96.3634218423912
96.485535476541
96.576143049505
96.6184971154296
96.5073418752956
96.5172358478108
96.6262376022601
96.7191614900294
96.7008632670083
96.5914142217764
96.4322425568967
96.3221884277365
96.3850636143191
96.6290981981885
96.7230312713221
96.6748810434629
96.633192223394
96.5163563867979
96.4207471884275
96.4026688341397
96.3025119403019
96.2918332552628
96.2667380681001
96.2339403332127
96.3829824724891
96.6113838825231
96.6517084231541
96.5144616829149
96.298867951723
96.2842535798219
96.2605151913385
96.1822578442503
96.0538178916596
96.0642323406294
96.1631015012235
96.2391547632816
96.1389775465964
96.0730379950879
96.1181161534946
96.0706771222176
95.9616977906241
95.8898494910363
95.8654418739438
95.9631305984628
95.9370922538247
95.9532779437788
95.8418500417547
95.6255750781223
95.6156782169231
95.6913721231116
95.6101601170171
95.6107416231256
95.5129060785472
95.418650855971
95.3595598030505
95.3424071017381
95.4328633709808
95.5941446837524
95.5782418620735
95.392974678657
95.2358826240197
95.0894981975234
94.9539963952491
95.0182137197015
95.0193943764354
95.0116336432539
94.9796662000693
94.9778161752755
94.8158083520787
94.6734364827381
94.6943289905647
94.8337100348594
94.8882587199089
94.851933473755
94.8926341137893
94.6851464197321
94.0742868554164
94.0792841884859
94.4629986323224
94.4184128429149
94.2230387797761
94.172547976591
93.7840226139946
93.433465638086
93.7399261521906
94.3035288301766
94.3922249007967
94.0163454876282
93.6639356432075
93.9874354299167
94.1287875217704
93.6882266146762
93.9526557427275
94.2305092911522
93.627225202258
93.2407804613457
93.3695001881432
93.5105558613879
93.4389613589656
93.1391259565553
93.415436753496
93.4289956616118
92.9104106467165
92.8161417878469
93.0097916037227
92.9530738418926
92.5757600291131
92.5815494822983
92.7485493590527
92.6107722543877
92.6703025440171
92.7359787603343
92.5341442276101
92.5992963198055
92.9518433497648
92.9688967569106
92.469772667527
92.2612435180762
92.3558039979697
92.3396468954448
92.2816167774393
92.2872011789147
92.2075104355576
91.9725549082176
91.7384763136173
91.8820790195355
92.0290774717538
92.0113038854911
91.8672006024571
91.7429895614571
91.6202837711825
91.6219406768312
91.7557268778866
91.8183307315359
91.6529318457705
91.4607750862266
91.4113621492567
91.4791464248146
91.4184322109736
91.3409594933357
91.2381878861493
91.1619891775088
91.1216300256467
91.0460808706972
90.9034152272871
90.8813685486764
90.9468653104497
90.8941014007354
90.8117447255009
90.8721069133332
90.8482390940034
90.6830451852676
90.6161554863539
90.6486722053654
90.5938935767111
90.5367944840274
90.5640817248215
90.573438025952
90.4323719866742
90.270333844983
90.1497496143735
90.1763006062469
90.2738960811848
90.2864414776643
90.1138507836549
90.0853981182986
90.1225804795572
90.1917959045952
90.2158304113344
90.1684310763577
90.1209114578314
90.0463537171436
89.8292858505174
89.8089043807537
89.8321289174818
89.7874496625742
89.7463768512417
89.7322579737901
89.6962063286243
89.6178118977627
89.5395488941058
89.5624297089365
89.4701410068708
89.4457452033291
89.5115693681738
89.5222378507004
89.4677177391661
89.4733910146202
89.4165949663256
89.3983217442489
89.3471827630159
89.3072838471315
89.2588129247262
89.2292456213976
89.2238288098622
89.2128214528571
89.1670793003771
89.1377064506412
89.0806332278783
89.1225347330662
89.2098124663168
89.2297086944896
89.0604410611617
88.9653496041438
88.98700389372
88.9650287527152
88.9010245760971
88.9554537815971
89.0641028894425
89.0411555405685
88.9699766617864
88.9634845949972
88.9260145595943
88.9374723223531
88.9531582248166
89.0061902660341
88.8974402656973
88.8815973330755
88.8962774121382
88.8742528937434
88.8339020099038
88.8321084096709
88.8035649933146
88.7974146367402
88.7581379310591
88.7432156127591
88.7510402628787
88.709516562091
88.6823434146711
88.7267371067693
88.7705854548582
88.7997290263444
88.73908553738
88.8147874960983
88.8096922393985
88.768934056539
88.7407784500928
88.6999524804241
88.6598010274496
88.6716335505962
88.7121201420058
88.793782659957
88.8264165169947
88.7727881479474
88.6699398706144
88.7150037427742
88.7947633776599
88.7854571372259
88.7461227333115
88.8483828236006
88.8419252280311
88.8032182127294
88.7850134562208
88.8120252225772
88.797947944373
88.8670182958525
88.8724985488954
88.8734271194256
88.8438706340374
88.794601323509
88.8164375794467
88.8392201568348
88.8134145009134
88.9012219171133
88.8847360796659
88.8682693367619
88.853668606376
88.9180707179346
89.0147982983626
89.0140123115311
88.9980066128294
89.034103406275
88.9547943341953
88.8999338893678
88.9497737886932
89.0976591079231
89.1841371023904
89.1739178270896
89.1500722913704
89.1672479602703
89.1797417236487
89.1919750382693
89.2477069018602
89.3388921508834
89.3117834418094
89.2622303194916
89.2512394825409
89.3592626340626
89.4068275185565
89.4409927545052
89.490249907699
89.5262309683537
89.5005989009452
89.5348404750652
89.5964123321729
89.5660052338556
89.5378361230368
89.6221875107644
89.7115770599099
89.7617094204387
89.6960498103199
89.6975385324608
89.7595023202477
89.7945325476811
89.8005845847455
89.9245940528809
89.9930782210511
89.9691713024395
89.9623916729021
89.9867903662674
90.031147725375
90.1069491024421
90.0383248976411
90.042834892176
90.2035106898783
90.2965547026957
90.2455212052302
90.2570276590622
90.282439659293
90.3267221756545
90.2991338013038
90.2698687572192
90.3674662078989
90.429603182462
90.3692564539342
90.395483640019
90.4649334528542
90.4851717105277
90.488631416697
90.5556343257314
90.5429194011824
90.570246792324
90.5781586675342
90.6170617313899
90.6683451677348
90.6530995564204
90.6744334697983
90.7325726100573
90.7393967496261
90.7053928221903
90.7678610343355
90.7809785938507
90.7122627198739
90.8128228055774
90.8684671634131
90.8754103332781
90.8651763119109
90.9414673200191
90.9714042472986
90.9162985415009
90.9806527709293
91.1142060592481
91.1294814330127
91.135573991467
91.0795212308203
91.0979117210601
91.1677996627316
91.185539441869
91.208713814256
91.2457773614603
91.246461681937
91.2797842145033
91.3176360384487
91.3316269036285
91.3100427891297
91.3565628325013
91.3621597855781
91.449340938368
91.5048320626377
91.5096700704071
91.5012091113509
91.5563376787408
91.5768981833732
91.5816269675373
91.623992004555
91.6614877725415
91.6409353161891
91.6377900404647
91.5911327359132
91.5664478599846
91.579819523021
91.632699981714
91.6551592764026
91.643784668419
91.6751813310145
91.6729019208019
91.6479660447507
91.6537781521522
91.6732329172487
91.6774332068677
91.6312442504278
91.5870289938698
91.5707988246652
91.5511237143332
91.5316778386235
91.4943738005216
91.5268153599128
91.6314242244904
91.6137514059311
91.5594764928715
91.4766055426554
91.3959485367706
91.4319594807417
91.5154205082635
91.4683472965478
91.4049545837688
91.3779744398069
91.3891576062232
91.3784391293589
91.3395028275461
91.3384933666616
91.3685825820992
91.3649549525942
91.3736570082007
91.3319988287319
91.3730935994481
91.4095997303814
91.3668122294757
91.3326997121197
91.3224009699066
91.2937790208638
91.3262898628723
91.3948014810546
91.3969556705758
91.4046644898175
91.4977729288661
91.5224602739981
91.5471424959532
91.6018101853636
91.6207388509796
91.6536722168277
91.6652526970968
91.6429697024746
91.6798090054629
91.7462270218496
91.8186619221196
91.827660584324
91.8301436798279
91.8015181829131
91.8079062898592
91.8478358590992
91.8843920105679
91.9186164462728
91.9163336408375
91.9336551226801
91.9081803761729
91.9341317101972
91.9989395474263
92.0250902103614
92.033692073813
92.0463068212868
92.0838813105373
92.1144382593946
92.1513688571331
92.1655244853357
92.1999361977978
92.2482711292032
92.2748287193331
92.2643807473632
92.2845466514906
92.2531477870565
92.2714777298571
92.3413717653789
92.3973021315717
92.4185808341212
92.4503370020835
92.4673366149572
92.4724021432446
92.5338280845711
92.6055997280611
92.5857985587293
92.5835143402139
92.6269798986001
92.6557567833303
92.7102865446335
92.7818348330423
92.7637732449282
92.7770703806244
92.8788250083219
92.8673036463654
92.8204151701886
92.8500969448694
92.9015210914282
92.9577046355488
92.9272664494083
92.862721145456
92.8908665457534
92.9288954176293
92.9758437985179
92.9906482886722
93.0414733258164
93.0571816620642
93.0744709838419
93.1372157213168
93.1274297634029
93.1256937404146
93.0875789450755
93.0930767557199
93.1541763962639
93.1392030107352
93.1615478597626
93.1874814996345
93.2104357054962
93.210712198904
93.2201498455826
93.2661275621017
93.2226928978703
93.1809183345433
93.2375621614827
93.3055236719205
93.3196370074543
93.3497620674593
93.3281622373321
93.3309272896408
93.3585173819401
93.3719693245233
93.3625750448111
93.3657250263812
93.3650933583845
93.4032400652946
93.4307443092663
93.4174428829179
93.4176135774476
93.4574518409217
93.4720803888957
93.4662880690996
93.4598117055476
93.4910394579136
93.5436533196016
93.5297701743134
93.5387473014188
93.5486784218787
93.5547754782742
93.6108814590222
93.6207390325648
93.566392857577
93.5505585628765
93.5678633737627
93.5697186886397
93.5882270781237
93.614430062841
93.6438309482777
93.6774530404336
93.667675035951
93.6518065395085
93.6980519330505
93.7220354983032
93.700375591879
93.7178337406414
93.7247338063466
93.703828484225
93.7136015869623
93.735383824214
93.7753753821471
93.8117934888627
93.7720896946432
93.7654715974023
93.8144978179131
93.8074684033747
93.7710802513661
93.8000857023448
93.8824375566747
93.9031298692633
93.8823329389501
93.8963199304069
93.9126519324339
93.9151738747763
93.9381884952982
93.9411805100247
93.9429548033924
93.9596304984238
93.9914750762926
94.0150223959783
94.0528458121321
94.0758278240414
94.0609579751772
94.043257471654
94.0717459133455
94.0716225799747
94.07758632776
94.0801432265972
94.1438986946409
94.210156483413
94.2316595677941
94.2347910339359
94.252339309055
94.2775012184536
94.2907022841826
94.2669039830122
94.2996127499395
94.358354451836
94.3636685620302
94.3646962519906
94.3513681605825
94.3218122421581
94.4070074102892
94.4151227956077
94.4191566605463
94.5163822789326
94.5334993899393
94.5224015036399
94.5202756201645
94.4488744516175
94.4196601373239
94.5058541336193
94.5546845109862
94.5318678223862
94.5317123204256
94.5804675256563
94.6215158254208
94.6445155705811
94.5887193690102
94.5967131049128
94.6978444473369
94.7502602570826
94.7036058929504
94.6341447863203
94.6112073203007
94.6666964360522
94.6834193879885
94.6861583484789
94.6928716133053
94.7043230279178
94.6962142973176
94.6604269130036
94.6301759676484
94.595341434906
94.6299358626674
94.8001491087525
94.9256218437164
94.8665275820048
94.7779075928592
94.7413833541924
94.7528157814996
94.8114783137755
94.8340767758842
94.8030870798577
94.8451079127293
94.830468758059
94.7987237986816
94.8452201741152
94.8284538098646
94.8802527096495
94.9265530193696
94.8859613516235
94.8851686406321
94.9085638511858
94.8563096039065
94.8374779652305
94.9152192655434
94.9977590828409
94.9852494250758
94.9743926078766
94.9532297445577
94.9089233028574
94.9065857539195
94.9596419057275
94.9520124285441
94.991315660579
94.990417783559
94.9425758266115
94.9654342054704
95.0326337941283
95.0074460985162
94.9674331034086
94.9526320431737
94.9304757786707
94.9275952163925
94.9473529023014
94.9540585304438
94.9220049008921
94.938717665031
94.9909632253517
94.9654744745333
94.9639606690995
94.9996979695505
94.9828383112014
95.0139393344041
95.072846751127
95.0774263119998
95.0310480455994
94.9703857266079
95.0193769791079
94.9974372228847
94.9652184177127
95.0351385494004
95.1211442459824
95.1281058202547
95.1462139008997
95.0904540302438
95.0003762929476
95.0534977049187
95.0814526362503
95.0165865506977
95.046782872262
95.1148791803024
95.1207618756654
95.0617498157466
95.0439425934637
95.0722406913186
95.0767863559044
95.0236744690227
94.9799509902555
94.985174832826
95.0452997453392
95.0336843719023
95.0065614601678
95.1048333452448
95.1677514630869
95.1016122601223
95.0701465247418
95.080363608252
95.1717382239217
95.1515160009318
95.0771236594623
95.134858213334
95.2030082708827
95.2546508425999
95.3103828882282
95.2017399642708
95.1581284142711
95.2242107174248
95.1803466906421
95.0433049423947
94.9787668483691
95.0576110031953
95.1082139035687
95.0744296523023
95.0912643483364
95.0727641408801
95.0751610807391
95.1241872204117
95.1436548257395
95.0971763738227
95.0645212010077
95.0441822397272
95.0972466580342
95.1396585059291
95.0997798571884
95.0597764163184
95.0134464945557
94.9492406899568
94.8960424483083
94.9399234799554
95.0260282919776
95.121890048563
95.1817892949798
95.2093891776899
95.168360892165
95.1211533612178
95.1130225499038
95.1641445639929
95.1925826536462
95.1824195279196
95.204456171711
95.2956652481884
95.3259291730521
95.3417643889041
95.3522421748912
95.3829540725925
95.4323649912336
95.4076118477445
95.2865417951664
95.2286077223202
95.3925393684219
95.5060216863423
95.5441408326084
95.6093444298359
95.6607537283983
95.6906893193678
95.7486479703658
95.7783981251041
95.8137125870665
95.8775108884628
96.0020355137399
96.0550667975671
95.8837905594704
95.7095424359535
95.8817144068487
96.2024037407731
96.3595176031685
96.2787520576843
96.19601380518
96.1459242527384
96.1814669708135
96.2089190030254
96.1799129762688
96.1452209870128
96.2077053667156
96.1958940697626
96.3251328644005
96.5146622377658
96.5558299594149
96.5248792077615
96.6123426001007
96.4266177810204
96.3426043452788
96.7063082910378
97.0425640929838
96.8732526601656
96.5898881422489
96.4616678057736
96.5913456825849
96.9614789759126
97.0392546906252
96.8811635425001
96.950639575508
96.911808009725
97.061761102733
97.1856730504366
97.1392828478528
97.2621599976587
97.4327519515069
97.3981332158287
97.2822196473723
97.5512902384213
97.8062831474646
97.3532748439798
97.1091644525144
97.4718964966758
97.7876957201143
97.4278323174826
97.2305695229805
97.470818316709
97.5946882671189
97.6360420194372
97.7828185245809
97.7663047089221
97.7457987858973
97.8552647186694
98.4706495202616
98.655134135326
98.4672318912173
98.3932855056877
98.1480194344239
97.8651107455252
97.8507003146347
97.3821180255112
96.7912052484329
96.8919675967279
97.2992863051453
97.4194453115866
97.1545995705517
96.9615780794114
96.6732222669783
96.6022454227776
96.6675615927963
96.4963741569456
96.5155597561964
96.5460362949202
96.4163379226368
96.4122161574579
96.387804749021
96.1752568988818
96.1972875332747
96.3093267908095
96.3562199848384
96.3802682819241
96.4336973448391
96.4201650841224
96.4214579800733
96.5213124757896
96.6745657098602
96.5313147455673
96.3108799004422
96.3518961283062
96.4525796519528
96.5098412861038
96.603595175888
96.5964422385457
96.5046231644909
96.5004753917939
96.6668360860933
96.6754560372863
96.5354653710332
96.4825331775421
96.4212672979764
96.526156370247
96.8609095877529
97.0254838161433
96.9869228274531
96.9838569641745
96.9119562572043
96.8517934692897
96.9031275218659
97.0740400411789
97.3054337373998
97.4126920168318
97.4690216678657
97.5567868835782
97.8207715140926
98.0397076271085
98.1984061404059
97.9367450934602
97.5983923147865
97.7515866726204
98.0350802829559
98.2925345023798
98.5704369362868
98.4492553923587
98.4195628057431
98.3996255205542
98.6315743902851
98.6601678137599
98.2219244274449
98.0724575296055
98.2518304400018
98.2212526085979
98.1697999983766
98.4370563924272
98.7247605617378
98.1819413345152
97.9423117166672
97.9356982162708
97.7836025214206
97.8301698478011
97.8753802222687
97.8592926729502
97.9478822552012
98.0900448217164
97.9001573025113
97.8369382446894
98.0196582975529
97.8198696326794
97.9390640502234
98.0497859984438
98.0817258951721
98.0566892835959
98.1561281952838
98.2195726917514
98.1646264096254
97.99166703823
97.94473402632
97.8947686655666
97.8320459472633
97.6231582972696
97.6104631120991
97.8839680806227
97.7960206397438
97.4631658180506
97.3450891246232
97.2467201477413
97.1604654006003
97.2855381166167
97.3075765796468
97.1726444106111
97.2009117493934
97.112320751465
97.2070310873669
97.2389670787808
97.0092805995532
96.8662052631009
96.8646990749007
96.8620576029942
96.9266962307224
96.897514195958
96.7793727181925
96.7592711518785
96.787138800868
96.740363991242
96.634193661889
96.6209364867871
96.6454493166796
96.5606763045117
96.5868260062966
96.7127488616852
96.76290605546
96.7039628966672
96.626066260442
96.6442884277809
96.6980339804637
96.6352365493235
96.6508241401999
96.6867660657394
96.5709326723463
96.4615703592783
96.4883771065551
96.5273490663746
96.5609700630047
96.5986661062341
96.623597895864
96.5848382447749
96.5425985043416
96.5700862981084
96.6311757264486
96.6119979067812
96.5174785222079
96.5367262152816
96.6131521875773
96.5664919327358
96.5389971822436
96.5663464196931
96.5453189312847
96.4569625948175
96.4629483335899
96.5600067108434
96.5494862705997
96.500710575222
96.538837972919
96.5771661301367
96.558597610239
96.566307103648
96.5222815788474
96.5351474965823
96.5917970619423
96.5492838200979
96.5798437480945
96.6454432314665
96.5942348473084
96.5606619146689
96.557279588418
96.5906227216661
96.5990542015611
96.5472431341943
96.549780339566
96.5784034014029
96.5575814557474
96.533897849463
96.5440195201037
96.5717268416672
96.5722158308664
96.5360705053876
96.5060676553282
96.5533749703197
96.5667189073392
96.5173553406212
96.5026059861403
96.438944916125
96.3700841521678
96.3885277557812
96.3654447078788
96.3186349701241
96.307445316323
96.3000592196266
96.2863112406434
96.2625739657195
96.1814122368811
96.0714386535444
95.9752798328706
95.910724172141
95.9303321542059
95.8586502739676
95.7789299966424
95.7480756811006
95.7265702574271
95.674023366655
95.6125593951004
95.5532803604709
95.5248626276263
95.3893508098107
95.292938652527
95.2928099922925
95.2371060097583
95.1388912218022
95.0570919814159
95.0463425907137
94.9679210478821
94.8023477681034
94.6368918160425
94.4765632454688
94.498869608211
94.4420588388809
94.3189877295889
94.2254320432824
94.1490202705368
94.0463956347688
93.9110172292419
93.7279873684889
93.5777677842997
93.5230532967972
93.460833848583
93.3618169644729
93.2260166440321
93.0993441807009
92.9909960439801
92.8462843259657
92.6470821790582
92.2915693017594
92.1297910932848
91.9125424185021
91.6994704007048
91.6440530394108
91.4381999191287
91.1847342349631
90.9353942143605
90.5697447173048
90.2909548941928
90.2502017050632
90.0061885902583
89.7435902673968
89.425040673005
89.1110047069437
88.8638932690227
88.5341243572465
88.281181848711
88.1290953382428
87.8281021059949
87.4832860034077
87.3211930385604
87.1441676486498
86.8094772288556
86.4311604134355
86.0356508055885
85.9948452848253
85.9554249165902
85.6045436852689
85.3401270766616
85.327442025526
85.2453061758165
85.0155714772187
84.7564378964698
84.4999399514358
84.3879995015466
84.4239325984606
84.3330906384151
84.1513792086434
83.9906621081496
83.8925141136502
83.783905230638
83.7345356422574
83.6636955722459
83.4394970424566
83.2767878331094
83.2974987853932
83.209060173789
83.0426031450144
82.9190610800894
82.8041617107355
82.6798205940155
82.5293776773663
82.4221384170886
82.3179601264372
82.2088645650022
82.0960213962038
82.0239156964955
81.9602108893891
81.9051379284388
81.875136443349
81.8620589597844
81.859052038654
81.8633879635647
81.8250255647239
81.7437562768001
81.6239962632418
81.7108891451807
81.8882120849324
81.8219897202184
81.7489720911445
81.9250918582084
82.0594313942404
82.0298520596494
81.8876638171292
81.6088922683057
81.7795006631624
82.2422549501931
82.3616331710432
82.3943723906845
82.493186880834
82.6163874065102
82.7783531848559
82.819402463819
82.8121528138428
82.8158375806702
83.1133163966993
83.6471646751795
83.878392325809
83.8888999141048
84.1391653942277
84.4543227681806
84.5821955675023
84.7268658132865
84.9314061826543
85.0334354538591
85.1554206282962
85.4792865821225
85.6784303738473
85.8455887990203
86.0393218067558
86.1183216368004
86.1168683802479
86.0701119813313
86.4082013344498
87.0152207712617
87.2388882972893
87.1900259943093
87.2286796032265
87.4671095679391
87.8057364336376
87.9919092312348
87.9917601946261
88.129645949791
88.4258576934617
88.6203154906943
88.7306831820889
88.8220370601944
88.9212170469661
88.9515138121676
88.8647245793861
88.7497274547289
88.6732871137657
88.6786898298019
88.5542198961669
88.2937124347869
88.1154872801154
88.0474475659611
87.9112812009085
87.5705398755859
87.2223069307283
87.2092007943649
87.2940846126942
87.1455319944149
86.9844050171919
86.8352899599906
86.7586204649748
86.7249554419341
86.6584286896207
86.5463148380333
86.3791447077332
86.1626560972313
86.1169411771371
86.0881486188415
85.882033122189
85.6740976478006
85.5020656317444
85.3019618648273
85.0666885451165
84.8445668466369
84.5637149029573
84.3576674816861
84.3238572276047
84.1770982123016
84.0000965405322
83.8879507293409
83.7749947038237
83.6562560500474
83.5642500210106
83.5053876666964
83.4546996389144
83.3629597236622
83.3239456651516
83.3075185712884
83.2997549347643
83.3943180003664
83.4036367748187
83.3253769607781
83.3260230190287
83.4097466597321
83.4567289240436
83.4818236129868
83.5104320171442
83.5256479957829
83.541543852507
83.6077050590366
83.742114799515
83.8475850223
83.9182746182822
84.0036215771383
84.094984862407
84.2131529548691
84.3983872131714
84.5502992594288
84.6484576472642
84.7380413740928
84.8398191760196
84.9570536284133
85.0719354902041
85.1644220455791
85.2608039813108
85.3700622438493
85.4608541962976
85.5168965932308
85.5959842998172
85.713334162628
85.8248269418472
85.8955710074149
85.9489757633017
85.9986319611312
86.0618211816767
86.1280158286373
86.1660957576693
86.2038562998721
86.2516569343162
86.2957468362697
86.3366191632081
86.3832162880927
86.457171323449
86.5311140072449
86.5814389767584
86.6308422227193
86.6664647230542
86.6906494832921
86.7582697269419
86.8249148293697
86.8727562953291
86.9325173634574
86.9647348770817
86.9677111006884
86.9988439423545
87.0504826580267
87.0873259012243
87.1048512642976
87.0998519328991
87.0725066497908
87.0737456186628
87.065161772976
87.0162248506751
86.9871826709212
86.9564162530506
86.8940573752247
86.8475328790473
86.7949194272307
86.7285172134383
86.6894588886476
86.6585893438865
86.5967736709544
86.544627801723
86.5256996257775
86.5077255761665
86.4774680972873
86.4467265337857
86.4053989236664
86.3657754061797
86.3448792829489
86.3280426408492
86.3142601414368
86.3240317803754
86.3325992599287
86.334738544381
86.3504744165694
86.3853402523204
86.4333999273646
86.484347834972
86.5230039954993
86.5480380734153
86.5987759212968
86.6646243106883
86.7172594917679
86.7785899974836
86.8450830563066
86.9219727529891
86.9866246016012
87.0411384900099
87.0961535622033
87.1561668560264
87.2316799309427
87.3066679580766
87.3873276636141
87.4735898511681
87.5495269233386
87.6103233375714
87.65300528679
87.6889670355881
87.7090401938586
87.6933290574526
87.6495933413313
87.6087987585711
87.5793010853995
87.5495147770655
87.482775054606
87.3919882217748
87.3286019419809
87.2824401290187
87.233060131402
87.1840689016973
87.1088235794238
87.0241720010569
86.9381132467892
86.8513088524102
86.7693959620457
86.7130887762687
86.6268388195942
86.4884077999076
86.3930235700603
86.3420904563864
86.2491295062902
86.1158056343432
85.9855806924909
85.8746989061457
85.7353714531961
85.546876666637
85.3485715981751
85.1486661863123
84.928211205375
84.7073666319035
84.5210253476644
84.3703563043294
84.2371228536062
84.1226243930798
84.0219826890578
83.9246100342697
83.8326512869005
83.7490137085324
83.6378629925216
83.5105245835279
83.4007257708137
83.312789368279
83.201667495838
83.0595952729432
82.8893140719829
82.7088719493098
82.534996137359
82.3505538005421
82.1490506198859
81.9525716940975
81.738619808688
81.5225750101068
81.3299332864222
81.1398347787523
80.9542702782269
80.787219089347
80.602361634531
80.4054406159449
80.2458069536477
80.1188467276463
79.9825104277505
79.8510108856646
79.7353130494949
79.6425557665752
79.5718282886063
79.4777364407519
79.3426121443459
79.2344187511042
79.14417999716
79.0399045553809
78.9279826632293
78.815926864429
78.6897120930072
78.5847999529387
78.5183664182572
78.4659728010744
78.423507437049
78.390086323049
78.3458897301618
78.3288013214526
78.3589618288316
78.3953868898421
78.4170046043423
78.4488496626586
78.4989862687006
78.5757160641497
78.6656262513681
78.7709639795659
78.884085053698
79.0238274717436
79.1860974340835
79.3418230848714
79.4916193638297
79.6769716903498
79.8788418125414
80.0782734016035
80.2907129798427
80.4950686968381
80.6751755729139
80.8587090443895
81.0424091115988
81.2293913678244
81.4224175019083
81.6186566666044
81.8124358202697
81.9843016704632
82.1179863785752
82.2805538256189
82.450018722764
82.5988540027635
82.74237538896
82.8646000774434
82.9680660657406
83.1089734481559
83.2631240343698
83.3895371882696
83.5337903399103
83.7078918775953
83.8441293422843
83.9645559175427
84.1171445483956
84.2678941123139
84.3756868487134
84.4903221632442
84.6346441472068
84.7698184745082
84.8967968488932
85.0398837569464
85.1613959730454
85.2811070395359
85.4053352333079
85.534303538837
85.6479207650563
85.7550063590285
85.8736024097391
85.9769812082289
86.0257117979742
86.1196196968547
86.2276695565365
86.3057158411236
86.3668556355034
86.4032927433978
86.4542177065396
86.5381691008017
86.5990338119407
86.6597853048531
86.7273818969346
86.7758993398666
86.8392064951502
86.9217796297366
86.9723445286294
86.9797802924724
87.0055255829075
87.0427360265516
87.0623402233751
87.1070596879036
87.1619788663324
87.1896876491309
87.1650990228255
87.15560443346
87.2182231047861
87.2679205830102
87.251914050541
87.2283286232819
87.2364575659098
87.2574550697314
87.2527825170793
87.2380367090236
87.2466768110051
87.2593489251023
87.2569483211148
87.2420009984376
87.2396834584174
87.247541919553
87.214637939097
87.1940420528948
87.202578689562
87.1901681780828
87.1204266637075
87.0582081419502
87.0144541497656
86.9690842495487
86.8997520830455
86.8486003350943
86.7987497362254
86.7466790044143
86.6863509103786
86.627137637042
86.5528532720501
86.4633240244856
86.4154623641696
86.3756201994262
86.3298888563968
86.2755646979883
86.1815992278086
86.0933536841191
86.0561046309479
86.0005020273971
85.9413448626615
85.8691839124289
85.7710504369325
85.6757062030477
85.6229475627026
85.6176219050971
85.5625570179691
85.4891189977734
85.430291693
85.3451015277018
85.2772650103728
85.2494579238652
85.2052884269907
85.1395387679061
85.0632308687653
85.0396132480771
85.0314113383773
84.9927650125501
84.9547321469711
84.9274818049686
84.8752551135041
84.8133031706005
84.7992888791494
84.7983648139317
84.7663819274855
84.7362242446468
84.674224142781
84.637061027202
84.6185371930598
84.5652888733037
84.4966222941836
84.4273182150501
84.3326675872086
84.277833619481
84.296515043532
84.2984027650155
84.2256554320971
84.1679752049334
84.1170706887063
84.0396095336874
83.9669934193219
83.8977791446613
83.8327893364072
83.8454066990278
83.8206196302785
83.7143889828018
83.6188134087972
83.5171906778523
83.3974376827857
83.3374020362132
83.2642969476967
83.166341968732
83.0922589729439
83.0285391768123
82.9483197011997
82.8509876682313
82.7540651832247
82.6704917074448
82.5457644004112
82.4161331296101
82.293386633335
82.1844322679861
82.1013202513693
82.0253556073297
81.9247904979305
81.8856637682709
81.8486047933312
81.7960012687999
81.7526434838848
81.6688850390278
81.5320791070889
81.4803195230757
81.416845894388
81.3057379623322
81.1987634347177
81.18358041667
81.1001275494108
80.8911345026343
80.6232921180676
80.7510800698983
80.8226896045956
80.5821382732728
80.440170524168
80.3781432049405
80.3313748775468
80.2679013847508
80.1700237301466
80.1039830592906
79.9774221482525
