1798
3999.43349933624
650.420452594757
1
128
4
95.3577544286449
95.4381764316465
95.4769395089863
95.4270569318429
95.3951701768949
95.3911927847479
95.4128359433462
95.4934929553294
95.5709097773429
95.55561669365
95.4855602769818
95.4875923157806
95.425416384449
95.4338350727064
95.5143672381703
95.5412925774529
95.5117975079319
95.547470391102
95.5393194039367
95.5293865861562
95.4833877140606
95.4835144936645
95.5333200332683
95.5536378361658
95.5328406988078
95.5170737900248
95.4698991935415
95.494485217616
95.4262573850692
95.4499986709648
95.497087094965
95.569488921043
95.4966149025006
95.4451766566322
95.4567443126444
95.524196741603
95.5460828047161
95.5308951927069
95.5268941739226
95.5405723922852
95.5091699413865
95.5441159212676
95.4710419051515
95.4015542039585
95.3945172102154
95.5195130661264
95.5623614354288
95.574960770998
95.567799813095
95.5323251741636
95.4617151211927
95.4361541740582
95.4010786900293
95.4474842953224
95.504056147765
95.597687148143
95.552978370928
95.5100023426263
95.5386452114514
95.5671676138615
95.6274409179305
95.6869746061631
95.620733630314
95.7042110658854
95.7954125187525
95.6985946705982
95.461756346661
95.3698210946126
95.4430360572655
95.5596160447141
95.5195027107138
95.5126521472859
95.5019242029786
95.6165655779602
95.6819591172649
95.7054469594263
95.5706793428858
95.4039823466779
95.4424734941709
95.6428565758114
95.6913262503115
95.7559524057055
95.7018877634453
95.5666640859166
95.647365421338
95.6845041554918
95.5405918577913
95.6263157332576
95.6754285185938
95.6287874448541
95.6362165045697
95.7508564015645
95.8528355089478
95.8140515086415
95.7011877624382
95.6764784459998
95.6978658679679
95.6838464377959
95.6458754874862
95.7348036510006
95.743433295938
95.7586960060481
95.7577707051307
95.8025698663939
95.8608730633877
95.7919416230271
95.6149044334286
95.6251678837662
95.6026019818035
95.6081094579467
95.7412051519954
95.8679255646214
95.8097363967526
95.7020843733539
95.7772613123353
95.8619621001241
95.8411824371101
95.6927047385623
95.6131179339028
95.8236366462843
95.9831984948677
95.881303427321
95.723886525346
95.7656810577546
95.7640087206706
95.7641284733275
95.7938066205299
95.8726057199897
95.850361221548
95.859700176772
95.8612998412159
95.86028199431
95.9563638172126
95.9532504330839
95.8160162833465
95.6824744783412
95.6516514479524
95.7475329914313
95.7208871021088
95.6689201306756
95.7232411716789
95.7616184460802
95.7851505453001
95.8597121785172
95.8697409704307
95.7866520971089
95.6078543571646
95.6777289459176
95.8384796945299
95.9002307775053
95.9836196555431
96.049479826262
96.0394204665398
95.9242865272309
95.8077303207534
95.8697701563347
95.7998420729159
95.7066773529621
95.8107524344549
95.8899426128334
95.8152835382599
95.8584871982712
96.1120069244101
96.1948151613822
95.9739683566954
95.7252977688728
95.5930070112862
95.7607409002093
95.9947226970816
96.0114665874334
96.0348758641019
96.1047661750553
96.0964175750603
96.0690372516363
96.0119180828402
95.8827020143153
95.6663166552245
95.6378699734926
95.6868561178125
95.7733829106239
95.7239393855607
95.8372508685863
95.9426053919046
96.0329873995492
95.9513209451704
95.736414896303
95.6219918442377
95.5375576602538
95.3834363051829
95.4788392176211
95.5655387371219
95.5412682315563
95.5499414753693
95.6457364309366
95.6244943776596
95.6386217580054
95.5144349565902
95.3333066634196
95.1799615847334
95.2063598075418
95.3607932224445
95.3120224598918
95.1678157574314
95.160538609614
95.1509367558656
95.2882150004918
95.2069958594229
95.0416594677764
94.9216048113059
94.8877944855518
94.9722790826852
95.0585723925413
94.8661704708765
94.691372076231
94.7266653189676
94.7370401817203
94.7070479525687
94.7832324073558
94.7605435287865
94.6598069188755
94.5083779315824
94.4836829326271
94.3508783656061
94.2522292010087
94.342525657538
94.423771188786
94.4117258459545
94.4060779279828
94.2219633891117
94.071817787972
94.0223515467707
94.0374850698899
93.9847950197874
93.8628215790432
93.7557441781895
93.8573611255382
93.8984968059495
93.8413773272611
93.7614380182807
93.7141371956946
93.7132228467207
93.6804589101707
93.6228331952516
93.6016567939051
93.5172212144755
93.5385651586722
93.5082535262034
93.4698424016169
93.4865678561999
93.5565096938778
93.4484590823394
93.3578681867853
93.2511708458318
93.2038255020464
93.0431219335985
92.981942947415
92.9982384539685
93.0611196422308
93.0221611152527
92.9837537340218
92.8934753884642
92.8500625036975
92.8658554435793
92.8984898309577
92.8082270009096
92.628168322528
92.4212486952545
92.4503585208005
92.5694702487556
92.5850506652823
92.5589115061736
92.5494727066557
92.4204472116443
92.4027102016139
92.3640705426183
92.2751123118277
92.2116587741924
92.1820136356309
92.1317274496138
92.1007472964086
92.0759655000487
92.0524512181894
91.9948811090501
91.9656178103762
91.9127191226332
91.8176254459068
91.8055846638972
91.834420637908
91.6956660452425
91.7409384204511
91.7409241153432
91.638594008222
91.6059073103306
91.6954254516146
91.6641457021298
91.5309556724422
91.3942024229813
91.4079769039009
91.4584796678813
91.3923301321708
91.2625854346081
91.2475394479661
91.1807662699419
91.1366036525863
91.2276106185435
91.2843129621156
91.1341356235452
91.0065869567416
90.9395797287564
90.979060162584
90.9546704626298
90.9260809631323
90.7581731821975
90.7206041444537
90.7635663991978
90.7647085836643
90.7235400572523
90.6814714265323
90.6270245324962
90.6389976170753
90.6167182807757
90.5880803180938
90.6039658294757
90.5700672995399
90.5501714893764
90.5097309611523
90.4466786843034
90.439139159209
90.431264895755
90.3462401708351
90.3377009647127
90.360818065647
90.3174394062551
90.2308099846116
90.2127662311271
90.3237290704611
90.2664088568655
90.2106689516068
90.1378699475235
90.01235647356
89.9408413726385
89.9709290120858
89.9134739718276
89.8772684934912
89.8641399573509
89.9589370890432
90.0749864290959
90.1220180554714
90.0432829360662
89.9761609663022
89.796012493677
89.7853002903546
89.7376422470079
89.6359153329075
89.5704179259826
89.6968132234281
89.8155410802364
89.8495015878651
89.7771338847448
89.778614821576
89.6804985651803
89.6325528844567
89.7275851328953
89.7935492391567
89.7422669155963
89.5770342868779
89.5602669940481
89.5943050498897
89.529076406154
89.5820638506018
89.6041871634566
89.5428694456882
89.5748943946334
89.6760274031975
89.5792199969509
89.5512500034606
89.6243364041624
89.6890699324807
89.5811435572809
89.471407366837
89.4853702410358
89.535181056769
89.4993585086559
89.505178084713
89.4865011774082
89.4916815987139
89.4721438538528
89.4296525160032
89.3575807584961
89.3584396675968
89.3848559921568
89.4386509732147
89.5276156450351
89.4938346316557
89.4246346107895
89.444075126663
89.4408224377677
89.4480913628652
89.4031801797991
89.4015271831434
89.3348072383007
89.2835287186116
89.2895638024096
89.3838305451467
89.4487976350165
89.4481613977178
89.3404307332299
89.3216433911728
89.3294471617213
89.4472690535556
89.4869048647129
89.4292361126912
89.4090977632858
89.4675304883149
89.4439790297299
89.3888200840697
89.3195813659022
89.3817752981987
89.4974474614176
89.4478361019144
89.2873330408601
89.3671230463831
89.4135452187511
89.3331927566478
89.3057452682738
89.4133660208347
89.4452791494169
89.4984204058998
89.5545291672347
89.6468071943848
89.5699220742627
89.4488393148751
89.4192869630575
89.4591068933937
89.4270790287125
89.4996750566815
89.5274953136916
89.5576519570195
89.5526929604663
89.6031348974993
89.5679063762394
89.5772083530468
89.6452777305203
89.7056132267007
89.7022904193832
89.702981988469
89.6711989922611
89.6296523001545
89.6870695889718
89.7168960784761
89.6806664410062
89.7254707013797
89.762525167037
89.8199236189816
89.8745541330316
89.9397196480517
89.9144787828992
89.8854342774267
89.8298737004225
89.888885168321
89.9526964030953
90.0092606877074
90.0111616215385
90.0416122799122
90.0616469679857
90.0691240267863
90.108977226719
90.1668315212981
90.1218855527514
90.1449480730641
90.2349802044072
90.2397495711879
90.2265297934438
90.2812218741867
90.2676168491525
90.262731529986
90.3689228564224
90.4739200632488
90.4128535867057
90.3859195414617
90.3039096321664
90.2923653157647
90.3318097191315
90.316899309988
90.3309578010267
90.4216123322697
90.3986743022883
90.4238183118975
90.4826649078304
90.5226293143041
90.5187862393938
90.5607516004493
90.5164731993503
90.5549157844126
90.629918743573
90.6807543550005
90.6652247112313
90.6713858295751
90.6804773334976
90.7758653749744
90.7193814458075
90.6250334466547
90.6623788587457
90.7479465797498
90.7479400334077
90.731925794217
90.7748085680846
90.8368996937949
90.8394457928961
90.842838621491
90.9039704956851
91.0194875902116
91.0129283170893
90.9967608994175
90.97652504099
90.9584647960038
90.9944525678878
91.0421106659375
91.0600259314887
91.1681964606728
91.1603847918061
91.1151149981701
91.1590602674914
91.1842563898752
91.1527929797996
91.2053079831292
91.1632769157014
91.1974583268372
91.319257221671
91.3795994676969
91.3904162542294
91.3950438607951
91.3556720668208
91.3184097775521
91.3333798881915
91.3266901008182
91.2871183823627
91.3067112280233
91.3124964333508
91.3374034532884
91.4113140753752
91.4610195585969
91.4292634474379
91.4232939510431
91.3889038710337
91.3490924412673
91.3791195759571
91.4154797300995
91.3487646890749
91.274373343483
91.2309983628794
91.2513044387291
91.2083426142312
91.2246654740458
91.2536472101503
91.1807056911212
91.1369526525014
91.17865012136
91.1455958595551
91.127703583326
91.1260181904901
91.1498783960224
91.1435137048802
91.1193992425933
91.138891409442
91.1424490532658
91.0877706968702
91.0962614749317
91.0877988219398
91.0445878076079
90.9623134830264
90.9662577416779
91.0160228466645
91.0152543255491
90.9840990312605
91.0153828802619
91.0287438729959
91.0134151150833
90.9636015752962
90.9442980735431
90.9990095534952
91.1351289339972
91.1523203522961
91.118734469363
91.1507513735927
91.2171953726153
91.2244077210685
91.2803349442314
91.2938444563614
91.3123622673904
91.3276490939992
91.3207682508743
91.3520168972562
91.4056451718013
91.4140587653567
91.4443518185506
91.4344606907564
91.4373465119043
91.5015322118731
91.5609490889432
91.5791246651952
91.5628514883559
91.4896996084194
91.4971282479101
91.5903337047795
91.656688919386
91.6567626769007
91.6677664127803
91.6697913529425
91.6698817368032
91.6922109495698
91.7602669712244
91.7966852546956
91.7466713519566
91.7264827322467
91.7815033258825
91.7659691442349
91.7879408576794
91.8469312958861
91.8802124814436
91.8600246123321
91.9224288510159
92.0183862517211
92.0508101876563
92.0188369216053
92.0485365149989
92.1807776477715
92.2637730648272
92.1804243398755
92.0851268942706
92.1148240367433
92.1987414067892
92.186630758935
92.181880346152
92.2328156950882
92.2865894903348
92.3299158858695
92.3525047009472
92.3619680636299
92.3955532063351
92.4180606602189
92.4627849694903
92.498078105702
92.49609604456
92.440614582246
92.4316130885592
92.469536345414
92.5006958186542
92.5065748906783
92.5590457345261
92.6326335030422
92.6244377356897
92.5751598327383
92.5729339086455
92.5814813872829
92.586045276258
92.5964871813127
92.6867519060315
92.74299428368
92.7063041212824
92.6866712247222
92.683957993191
92.6801657961866
92.723981884016
92.7391711587522
92.7462621135782
92.782328455503
92.7937246406758
92.8022398358727
92.8425668077653
92.8964022922014
92.9310189489087
92.924803972
92.9112474504895
92.8926300248649
92.9097282993351
92.9275895517112
92.9018674360183
92.8751832789875
92.9172669063111
92.9494902974324
92.9057459202414
92.8981140101873
92.975481812259
93.0154277330411
93.0562401158165
93.0303851522704
93.008458967076
93.0507299558439
93.1132148354401
93.1139028811286
93.0582039670427
93.0723938301763
93.1158156509169
93.127786758342
93.1313037577667
93.1176513395907
93.136564597988
93.1808634888783
93.1787410437811
93.2125267014798
93.2202454100998
93.1867478500858
93.177279702364
93.1906537143685
93.1711215346675
93.1669188871086
93.2119373883252
93.2495154064171
93.3046964699989
93.3306911682159
93.3022284972689
93.3132729317644
93.3682675705658
93.3419529050639
93.3379619649362
93.3513247299028
93.3310038955281
93.338773548247
93.3713525479105
93.4232793950236
93.4412215546157
93.3870756765406
93.3812953948104
93.4316266201633
93.4738112037151
93.4793219773549
93.4587436717682
93.4763210490583
93.5184149882382
93.5360998284796
93.5723171161295
93.6110565649582
93.6183319187732
93.6510776868663
93.6589966784317
93.6075952671501
93.6426998357704
93.7364454318763
93.7236563664235
93.6947923500719
93.7328778683499
93.7338960120776
93.7126303567208
93.731896235096
93.7698210148307
93.8177487376508
93.8636635668265
93.867852058762
93.9197224570943
93.965782722961
93.9192736894709
93.8829682155484
93.9813915754665
94.0668967476911
93.9651154911121
93.8297176828579
93.8607576268811
93.9542936825837
93.9651964290273
94.0097525027759
94.0837685139853
94.0366986773912
94.0167511015176
94.1373860612628
94.2287545956141
94.0875666120423
94.0421083665742
94.1772958350592
94.2273435601975
94.1318250408596
94.0443401116315
94.0059224123178
94.0727539587623
94.197054994459
94.2628862196153
94.2289483954162
94.2029948817182
94.236742993962
94.2354641513788
94.2195067446332
94.2427420694441
94.2926898079506
94.303989820613
94.2480301019859
94.292159482381
94.313781386234
94.2925950452895
94.3335964218903
94.3480885098061
94.2540423404435
94.1515773914348
94.2257176032032
94.3637053136027
94.3164000519991
94.2566930269996
94.2441431857785
94.3751013178579
94.4209310651533
94.3332004087958
94.2786137327563
94.4301679769289
94.5647652396508
94.4690701210416
94.3180272080731
94.3011841297861
94.4189797666551
94.4567965542049
94.421400092891
94.4451068543054
94.4461317490932
94.4553529658497
94.5111667523135
94.5320941889526
94.5109080880799
94.4295293494296
94.4604829739652
94.5306190121392
94.5439420816764
94.5159759077357
94.5062963721322
94.4974070066732
94.493232143598
94.5030523313626
94.4459146938551
94.4580469621764
94.4525106855799
94.4744976532433
94.4873115195762
94.4574752416959
94.4523852350166
94.4411785618444
94.5051518300202
94.5745634836064
94.5156089414074
94.4757961743026
94.5040708292149
94.5144950183884
94.4930453346176
94.5062316688144
94.5418973058286
94.5454685152799
94.5982907407282
94.6440445148058
94.6484273664262
94.6379663220551
94.5818865459838
94.5445646254867
94.6280103433241
94.6753660696247
94.6472173735776
94.6425251195328
94.5640481712667
94.4991595187598
94.5011908981308
94.5752309929582
94.6663556733888
94.659574197295
94.6394124287893
94.622438536174
94.5398435980682
94.5255972553582
94.578230292349
94.6461914725081
94.5754437308543
94.5374808745021
94.671570453889
94.7169287880664
94.6613679952111
94.6625631235481
94.7093822403946
94.6991511966978
94.6586692721434
94.6511381956082
94.6877299614376
94.71814313969
94.8229079050073
94.8997050776638
94.8575795973184
94.7299085213634
94.6181099797633
94.6541394488699
94.7390481756411
94.7869489078722
94.7706522844113
94.727250403282
94.6917764154193
94.6865234918931
94.6884558266876
94.6606037783415
94.6978514686051
94.7321501006519
94.7667787419319
94.7507505107806
94.7056284016419
94.6946015105341
94.7564583473065
94.7629813232881
94.6082323259138
94.5153648221799
94.6032661466973
94.7093080140949
94.7239490209014
94.6960922561375
94.6613609519273
94.630937317215
94.6889953716538
94.749991784482
94.7261161411839
94.7327901937272
94.6698793615366
94.6999634505704
94.8264962563493
94.891217658752
94.881728824927
94.8108646773685
94.8420776025613
94.8876205077357
94.8493890735912
94.7825407983043
94.8974872757474
94.9691885686218
95.0374707459867
95.1032450398225
95.1293073683753
95.1292615411408
95.1135010227045
95.1567829815849
95.1915706575901
95.2339165453086
95.3447511041131
95.2816813079172
95.404492405731
95.4217115522258
95.3446504824327
95.3869039334778
95.5562617113589
95.5954936200497
95.5013428873234
95.2569889075569
95.2904689439354
95.5958518166591
95.7628995599852
95.7322609846753
95.7321965505096
95.7058872240507
95.5845335919262
95.6972318043813
95.888518628974
95.8297103333548
95.9131077842237
96.0236988700994
95.9876843671144
95.8156489162756
95.9175555341402
96.1020062083052
96.1270105627754
96.1575924612299
96.288786352553
96.1949651311325
96.0939452656639
95.9314995032854
96.1458294831781
96.3212636157003
96.2033601239296
96.3892116134311
96.7207825309208
96.5752807819324
96.4215338047639
96.4034872995789
96.5645345205757
96.8037908493808
96.7870722749442
96.5707359540509
96.7740862890553
97.0696928402527
96.9633704775647
96.88029560209
96.9120164210409
96.8944257389781
97.1835878797185
97.3276617538821
96.9885074349659
96.8887111753876
97.2716513024898
97.4068515957545
97.3734955311401
97.4365327647048
97.5940794066616
97.2554887291493
96.9258772512332
97.0513853484673
97.2997783156091
97.1126228303006
96.9284190049785
96.642439908893
96.3807999735248
96.6324919359356
96.6350021020071
96.149963528766
95.9470633736094
96.2036596783257
96.2743508095248
95.9758072987375
95.9006009615726
95.9941716679265
95.8630799620151
95.7872666613941
95.8282488360313
95.8504887822981
95.8578020177426
95.8354970366844
95.8805305969318
95.715451076289
95.7429698784467
95.8876785501004
95.8818410733519
95.713494578476
95.6566774307739
95.856104204728
96.128393666189
96.304794532626
96.1689795492303
95.9610415589244
95.9671949566546
96.0480406474672
96.0154733421202
95.9572032788016
95.9262190636108
95.8719894219311
96.1321189892708
96.0966384409982
96.0871925051285
96.155532127224
96.145906646496
96.2954622561379
96.2844915975867
96.17448103295
96.4135058270823
96.5338421177397
96.7501849442085
96.7954085947662
96.6342005574497
96.6245043079562
96.9315362149144
97.0786717448622
96.8915903801158
97.1779759734525
97.3585789765078
97.3840662747004
97.4747035279222
97.3086752179535
97.2231809256232
97.1295408156419
97.0984015707303
97.7199937454025
98.3376475961371
98.1057433399043
97.5766084065415
97.505409347026
97.6768396533256
97.7472418832702
98.1038648879569
98.0162887174132
97.9741069942081
97.8026392734143
97.4413354423954
97.3877122781933
97.2962811291897
97.5522077326644
97.9802764259411
97.4918056992246
97.2992349778083
97.3839545467493
97.2589206563631
97.1116960656499
96.9929802527149
97.0229134906419
97.3663233258254
97.4105032221284
97.4116912173816
97.4036525551529
97.3410425518318
97.263393133395
97.4268222157296
97.6092696279333
97.742249784094
97.5851936448876
97.7801140519192
97.7566250659203
97.4546313071403
97.4014739333459
97.3446257912969
96.8545892869822
96.9033757266286
97.0644054693794
97.1160154711461
97.2521254916629
97.1394332840967
96.7648609938549
96.7479458849643
96.7024952923817
96.7510166985262
96.7533067891457
96.6206862786362
96.6032273240705
96.6658816018719
96.5577909209348
96.4296991756435
96.3960533927987
96.5195079333034
96.5544127833124
96.5011541402907
96.477619189132
96.5630041393093
96.4823395154448
96.3016485586448
96.2229311864149
96.2529400280095
96.2261000601347
96.2058737882599
96.1763825525912
96.2900602009912
96.3165273416752
96.1737261747518
96.1308012730972
96.2268837870918
96.1952162561504
96.2220598706268
96.352023801904
96.3520864560379
96.2549833021033
96.2492082462817
96.1459837733713
96.1437188149659
96.1040017789477
96.1138601089179
96.1842874618166
96.3004479985738
96.3170461300199
96.2680962710279
96.1063654720021
96.1389777005458
96.2611616874872
96.2599671177419
96.1943525231013
96.1692094756008
96.0900509396026
96.0867974263151
96.0661146013573
96.1564651591788
96.2474105951816
96.2992291787981
96.2972877279949
96.2417419406293
96.0910208859162
96.0668820819883
96.203746693784
96.2146700475234
96.2124806687017
96.2431935436441
96.2033086364824
96.2039397287196
96.2421356153826
96.2514345505677
96.2729447643209
96.2219486153929
96.1821895755137
96.174828483399
96.2071972315028
96.2122084612405
96.2537595325616
96.2969556392088
96.2048937280139
96.2232991076537
96.2942369170807
96.3309877055542
96.327012367368
96.2554166646847
96.2145775850947
96.2593610304627
96.2360385694224
96.1780770293212
96.1336004366356
96.1371438727568
96.1806763005299
96.1735691826084
96.1607041391625
96.13784161759
96.0802947573345
96.0266758720114
96.068698896722
96.0300412653225
95.9852118385968
95.9153450892493
95.9262880752145
95.8995974807424
95.8049395462926
95.7722417620137
95.6922212619268
95.6748231092946
95.6589324241062
95.6286240867838
95.5831646314046
95.5969503545132
95.5110934110665
95.4424833252067
95.401928590058
95.4401254682305
95.351169355276
95.2398670825577
95.2517622031649
95.2630169621802
95.2199971594536
95.0555396300971
94.9282896059978
94.9951075087704
94.8790053946402
94.8034689282256
94.667568697104
94.6297538435629
94.5454699999666
94.4716747896148
94.2825527956962
94.1135914176919
94.0489453097545
93.9790580071687
93.7793833604687
93.5845034350109
93.4813684624813
93.396259810811
93.3029098941419
93.1373115655172
92.8007529704187
92.6941667239088
92.4283041339962
92.241949759827
92.0509650909945
91.8399249611891
91.6409209973312
91.4211820968305
91.1323310610327
90.9138847113676
90.8985706312215
90.5745549322846
90.2879440609303
89.9880780744931
89.8190757937246
89.5940688151504
89.308084504595
89.1100093536236
88.8838475305724
88.6115573105228
88.2953839784631
88.1823556198099
88.1066412324182
87.8337147068608
87.4612135661656
87.0872714128542
87.2253584644866
87.0985524199698
86.5455592852658
86.2229175249899
86.2639880351297
86.2432639883265
86.0266665771344
85.7549016245198
85.4713077920158
85.4026156831786
85.5224517526781
85.2932977512966
85.0150048535207
84.8396372619154
84.7920679294746
84.6524448233313
84.5966564683217
84.5006296746727
84.2199684597461
84.0369710244931
84.1308941817182
83.9869582887121
83.7179114837464
83.5399328756348
83.381863839646
83.2600825150559
83.1097775060422
82.9888350147505
82.8437304813923
82.6907368064886
82.5391866102126
82.4317903513422
82.3339581163122
82.2500524071412
82.1270976368569
82.0380690708613
81.9138419144876
81.861886588311
81.8044108525354
81.6956019065855
81.4691798972456
81.4782339177692
81.6386519962155
81.4788260269964
81.236911756032
81.3836341772091
81.5163569751952
81.4974200788607
81.446386887048
81.1093704414261
80.8974562452068
81.6495757530404
81.6934906699685
81.6070354078633
81.642920985266
81.7010547975296
81.9455979110651
81.9591539435397
81.9471664395518
81.9719896071716
82.1157589224011
82.7500591906724
83.0854654878914
82.8573784309981
82.9471418091175
83.3939545651618
83.4791186051873
83.4959881633867
83.6347841603241
83.7740903718258
83.7058649267926
84.0883734405185
84.2350104511873
84.2831143148866
84.5196032866506
84.5654105775623
84.5311634332805
84.3158320044804
84.2325758940093
85.0429966400485
85.3472223511119
85.1410774860519
84.9866375749995
85.0866789777747
85.4281874197808
85.6429489607564
85.5219147976635
85.4267766925941
85.6483010266199
85.90610303134
86.024142461595
86.0306566681571
86.1086845643815
86.2038679812918
86.1345413103826
86.0657993047973
85.9710694460272
86.0705323985255
86.1350336827619
85.9370324388071
85.7122307022348
85.6577503121961
85.6410764667454
85.3466372627977
85.0004459148085
84.8493788749912
85.0608501011215
84.8772527837944
84.6737211974301
84.4680495747726
84.4051660662849
84.3905847653204
84.3020617443457
84.1527253461065
83.9924313206625
83.7474412042657
83.6649435939334
83.6877472149925
83.4754753597938
83.2331054059949
83.0623849039596
82.9343174930448
82.6976926662637
82.4479934060343
82.1130590646236
81.7810332619548
81.7102366062683
81.5315984849172
81.284699769156
81.0383808111517
80.8485546665403
80.6611906125887
80.4919993025531
80.3898637113749
80.309032926981
80.1380418834568
80.020048002056
79.9541657822321
79.8752648838041
80.0025282911425
79.9909381925863
79.8484653016767
79.7803639018265
79.9316016460724
80.014051374706
80.021691848811
80.0627616186445
80.0958744046135
80.1423552038512
80.1917704549653
80.4105596435427
80.5875507702926
80.6639834949661
80.7793897672761
80.9045372668301
80.9937254684824
81.2561912876331
81.5327363128418
81.6787484394501
81.7883363839951
81.9471402685177
82.1445509556892
82.3183059584503
82.4832506502647
82.6609358145237
82.817621423899
82.9728461304897
83.0514709548361
83.1797131044807
83.4350395717573
83.613188098833
83.7084896039742
83.7787541320149
83.888868443538
84.0072986388562
84.1005336038755
84.1928196611866
84.2661852603094
84.2917653510784
84.3406449902574
84.4401281751968
84.5114951472779
84.5726114081467
84.6531317880762
84.7072629052492
84.7506331154701
84.8168055594943
84.8878690850092
84.9831483446929
85.0609704468183
85.1283652480818
85.2158691534302
85.3021163027609
85.3739793251631
85.4406207860057
85.5001851208357
85.5723835189044
85.6423244988814
85.6741197579187
85.6897703282396
85.7149511151771
85.7511695022313
85.7866612403633
85.8061319755311
85.797395285213
85.8003184724623
85.7920188096719
85.7599686193854
85.7559121413407
85.7670704854845
85.7427295496184
85.7308094422223
85.7349558211069
85.7107815109943
85.6854079555265
85.6611330637243
85.6529166094517
85.6381398312849
85.594733856656
85.5544930089163
85.5332401670625
85.5149424302612
85.4898482203688
85.4783603717306
85.4564358803923
85.4308385611217
85.4413998147824
85.434164911733
85.433628019823
85.452718800324
85.4589702724395
85.4768101548877
85.4919404412802
85.5127932489981
85.559278718624
85.6059998992973
85.668153088928
85.7190480829546
85.7745116790529
85.8501584806301
85.9121556589306
85.9734165223034
86.0389724215637
86.1106208830709
86.2023356750764
86.2968524850275
86.3805373188128
86.4563079712701
86.5155508371497
86.5369562212567
86.5517888156667
86.5791278163693
86.5872545166016
86.6119207833278
86.5940426065485
86.5507041249818
86.5259676778775
86.4998595454038
86.4719306484289
86.4167759485582
86.3595813741306
86.33018957317
86.3184265440977
86.2710028928312
86.1916841633512
86.124561232604
86.0666124483254
86.0084599395408
85.933338981817
85.8614798087307
85.7993192677428
85.7347996599675
85.6463686605924
85.5405412488489
85.4658781064822
85.3900179933503
85.2820437005359
85.1633308310225
85.0285174249814
84.8675803554775
84.7168939061602
84.5788885901762
84.4346976676186
84.324823885598
84.2216960425968
84.1278524376964
84.0765350425517
84.0162661459883
83.934258687486
83.8764142583955
83.8316127619228
83.752032776964
83.6828200751077
83.632832652882
83.5460240903167
83.4219649628911
83.2939579868251
83.1581661221565
83.0208301165292
82.8870880179577
82.7123769330997
82.5575539609219
82.4162582051082
82.2633224644344
82.1018847094439
81.9459130654362
81.7931316343808
81.6300527240933
81.5064035342246
81.3941563866419
81.2513517014689
81.1085865391706
80.9715367499772
80.8573843331591
80.7368234943104
80.6073720805525
80.5016397432558
80.401711309091
80.2901787701521
80.1763842454568
80.0669190492868
79.9837508669381
79.8899298686634
79.8001841602996
79.720483352975
79.6527330105703
79.5649049176279
79.4814361513267
79.4501625096902
79.42964413725
79.4206656013321
79.4141171945757
79.42968259384
79.4663253177095
79.5085648197775
79.5543222409034
79.6291296180366
79.7167881214237
79.8115208560805
79.9392314141226
80.0849868301093
80.2560192686052
80.4055585594218
80.5659152280945
80.7858125456297
81.0103759552777
81.2029550497446
81.4050691069557
81.6153215283833
81.8123781979151
82.008894768329
82.2024105966846
82.3696256920708
82.5080369410481
82.6643637403717
82.8433387849922
82.9856586156552
83.0673213894539
83.1297302728231
83.2131271626508
83.3011607913306
83.3768333538085
83.4551241684234
83.543223785556
83.6162922222823
83.6847828273044
83.7747530276689
83.888958687182
84.0096397204007
84.1203599680939
84.2195585789731
84.3474450479746
84.4747808617621
84.5785932194105
84.6937864557182
84.816538972953
84.934238382251
85.064083187048
85.1880914425328
85.3077110275336
85.4239993515511
85.5389374539009
85.6120367729305
85.7036430663244
85.8078089876558
85.9038771966161
85.9464900342063
85.9879327016029
86.0872417933467
86.1782208702724
86.2174669366374
86.2275241537098
86.2566505455042
86.3199706416352
86.3715503357105
86.3873424910367
86.4227045478346
86.4944718422301
86.5594750845901
86.6004445308534
86.6597271518064
86.7359042235011
86.7645522847992
86.8086590982847
86.8662298427368
86.873054202808
86.8823611388463
86.9238941663458
86.9443178688334
86.9395876424126
86.9342313807484
86.8947952500002
86.8826124900965
86.8364604216708
86.7361064594743
86.6485167856731
86.5548858411728
86.4284250186512
86.339559684177
86.2972723051287
86.1644944425698
86.020302187818
85.9128072914603
85.8329667934421
85.7795408048906
85.7591869899261
85.7595100990433
85.8027567936291
85.8908154593694
85.9735107956439
86.0343082433891
86.0874612770425
86.1029690989814
86.0777060445957
86.0242846182565
85.9620153610863
85.9028922895697
85.8586796999001
85.7863500453142
85.7661003151193
85.7319699971265
85.6534415036848
85.5821135788634
85.5556474221667
85.5199109199811
85.4699889945851
85.4154891980948
85.295716701396
85.2010654380595
85.1147856943508
85.034235914746
84.9389855729148
84.83181479535
84.7437769331041
84.6449980251252
84.5798461327528
84.5579595922179
84.5154594108516
84.459547811418
84.4146890133244
84.2982511879236
84.199788666341
84.1720953204314
84.1337782217146
84.0721217115376
84.0285272725312
83.9818360613989
83.9371109141951
83.9262445947638
83.8247694521307
83.7500514986596
83.7953384346362
83.8261623658486
83.7895509675344
83.6795151766869
83.6393730729297
83.6250172977141
83.5653769265436
83.5195699524951
83.4738721805597
83.3884025120598
83.3399520570244
83.2944861119151
83.2813365955458
83.2639068980253
83.1737860232125
83.0985111300944
83.0598794587435
82.9758335358201
82.9160636947776
82.8864444970075
82.7871142420518
82.6665233462356
82.6317711278145
82.5798636251573
82.4952578446776
82.3868389930116
82.2944690621603
82.2145778998615
82.1344944924976
82.0148785690089
81.9131899290315
81.8442847026481
81.7814758628753
81.7115364371886
81.6113463865082
81.4472430959993
81.2784533180584
81.1962940886902
81.1414078560127
81.0121779608616
80.8814648259741
80.7784726287321
80.7157421848375
80.6178469859783
80.5814805536595
80.5334993854383
80.4105359267018
80.3365433372852
80.2617089025357
80.1861014402189
80.1206288154169
79.985372785756
79.9295609040897
79.8701045553787
79.815445949007
79.7389833677279
79.6160091492604
79.4553845466507
79.5099134580004
79.4000614281819
79.2872525582685
79.1933552695835
79.0706224584728
79.0260355913371
78.9544623902399
78.8755886278741
78.7910582118697
78.7036353962217
