1798
3999.43349933624
650.420452594757
1
128
4
94.1144888869947
94.1736290896559
94.137565797576
94.1030932915053
94.1593616095475
94.1281299874157
94.0344655611098
94.0540542293332
94.0240567125167
94.1113566188939
94.1324218123298
94.0861235720447
94.0311414717816
94.0479609110692
94.0482108390044
93.975619927426
94.0036064213083
94.1300965879682
94.092595588009
94.06583817047
94.0778988253839
94.1465508872278
94.1915609095719
94.1776843908039
94.0985575786482
94.0917391588599
94.1661063415166
94.2619876149807
94.2092851245627
94.1794609789708
94.1660894877639
94.0693273229446
94.084085878751
94.2277621829862
94.1954487324575
94.1941662925076
94.1976026901909
94.1832546061502
94.199236718512
94.2855078761694
94.2639819988122
94.1454376767675
94.0861634224563
94.1415714106502
94.1627244152304
94.2033155608843
94.2219549400797
94.2476660334631
94.2509707522223
94.1848727524811
94.2048427267211
94.2737550583782
94.1751711143561
94.3153072740575
94.4206147888871
94.3698441908424
94.2584388661813
94.1923884183776
94.1294343381472
94.1278739974643
94.217353618388
94.2623706985406
94.2910858975543
94.3388254038
94.271580646741
94.29488611192
94.3301804975084
94.2938466873212
94.2078232454313
94.2861481665897
94.3656975746819
94.4054344929792
94.380930534435
94.3347786123545
94.3960976101502
94.4559332281021
94.2869887851596
94.2274793593665
94.2845233814343
94.4287491556687
94.4395149406223
94.4825322871625
94.4343575957344
94.3718725858604
94.3467606437157
94.3880049986888
94.2766803701335
94.3783104502819
94.4622197327931
94.4933722368163
94.4896876897024
94.4669783560865
94.4105304445212
94.2892138485457
94.171785255328
94.4189737259278
94.5705849320682
94.504517133179
94.42258159767
94.4516878944963
94.5517696043137
94.497283364662
94.3228321848384
94.3458828555284
94.3725951185373
94.4913940532759
94.5153716390207
94.4795446538924
94.5569054165747
94.6021408112689
94.5915578859762
94.607627477332
94.5703660026713
94.4657740558601
94.4404525323162
94.5288632047683
94.5455010644431
94.5680700972004
94.5628819761403
94.6046912887778
94.5583753428956
94.5247795467837
94.4663800029357
94.469410498819
94.5195656483325
94.5144739688587
94.4701334503695
94.5949676216631
94.6545351884917
94.6548222369701
94.6978693366538
94.6507414707701
94.5891957689578
94.5757983187369
94.5464404947144
94.5625982615613
94.5757383323904
94.6576845941757
94.5041428812249
94.4169390081738
94.4781840894475
94.636057599244
94.7935733734606
94.88145216879
94.7874383023171
94.7274883984313
94.6465128010096
94.6542851395564
94.6870084833287
94.7258903508426
94.7500464098702
94.7635767920822
94.6557153127441
94.6094395416246
94.7042804548596
94.7961890087603
94.6746602075129
94.5504100110479
94.5558603741637
94.6912937697079
94.748498687484
94.762129279687
94.8062440693332
94.8435204372066
94.8194681119631
94.9001127504216
94.8323754811291
94.7162450378824
94.758593984578
94.8654009501669
94.7669794784073
94.661747777508
94.6461557369617
94.6292968370864
94.6085144900718
94.5292993864042
94.533409067011
94.6496331133902
94.6332751766384
94.6507712650598
94.6555255217631
94.6284798341475
94.5901988824328
94.6478879444439
94.5585998296429
94.4242668325361
94.4323012088234
94.5468348891394
94.3902181127504
94.2137117719099
94.1280697148134
94.0845208966564
94.0692919557725
94.1593047366804
94.105864245924
94.0455664658096
93.9663517863428
93.9111682047425
93.7743829167306
93.6656663183505
93.6196448519206
93.5322474362522
93.4147913442779
93.4352845572618
93.3945556732295
93.334875803325
93.2055439877535
93.1352181156436
93.0351261047563
93.1338757230639
93.0583540568414
92.918071335275
92.8061577678342
92.7949198929202
92.8547795834849
92.8145198297429
92.6079615543092
92.4208542764798
92.3483267549028
92.402455694112
92.3222415715784
92.3522709282305
92.226388800343
92.0382296898554
92.0293851756755
92.0521306592655
91.8823293562173
91.6991625078271
91.6270998994925
91.7232816048474
91.5794781955598
91.4183502770774
91.3638880831728
91.3792851105177
91.3752169751139
91.2250900777668
91.1069451293714
91.1540822687588
91.059744622396
90.9728625763781
90.8621462598742
90.6942158748263
90.6200421717438
90.6715167121234
90.6128595865211
90.6036448065199
90.579966136312
90.4519147360054
90.3411906421284
90.2327059517889
90.0608088690591
89.9927261209175
89.9092925287126
89.8971755029389
89.79782937156
89.5947798010918
89.5399828787854
89.5884343910329
89.5548993043227
89.4453385962551
89.3440229051609
89.2531443982845
89.1118974513059
89.0718263531542
89.047495401986
89.0674883925246
88.9481623942641
88.8883010236173
88.8233204278605
88.7284781911152
88.6015913735837
88.6500682940668
88.6063721951412
88.4424996236909
88.3639571183532
88.3552184077606
88.2031259909853
88.1404336754373
88.0931208726162
87.9584039022601
87.9315414145939
87.9315912706033
87.7554534828844
87.552778828713
87.4716593017588
87.4846230855625
87.398408199343
87.3268856297633
87.1778198940854
87.1472691425272
87.1850912046835
87.2156208033467
87.072126912012
86.9833141188314
86.8650155967865
86.7270662383588
86.655292043645
86.6617866902471
86.6450825580159
86.6639437363709
86.6307631342113
86.5424289015982
86.3533064508712
86.2364732052688
86.1327521624849
86.1098474440811
86.0813253405245
86.0001999437809
85.9582446587125
85.9488195112167
85.8283385982513
85.7412518197257
85.6276865830767
85.6121832466968
85.6159243525262
85.6386390620793
85.5816958457024
85.498065668631
85.3842799791093
85.3220922585822
85.3003248580595
85.2106642074077
85.1118980938579
85.0961578829026
85.0554529880574
85.0883530203804
84.9943498759452
84.7986903182126
84.7584805639006
84.8944830053059
84.8252792089997
84.733280108494
84.7217981183333
84.6467621482526
84.5765996664035
84.5919615377523
84.5254996851187
84.5763850741448
84.5406500938599
84.4359512783413
84.3213876209998
84.2616794539778
84.2256980506663
84.1378724267262
84.0089465666949
84.0830775201217
84.1416147573624
84.1416113455362
84.0549378029929
83.9869255369594
84.0070253387803
84.0715020574412
84.0007734663597
83.9283771227967
83.813528985842
83.7182142639023
83.7636110087189
83.9253908769774
83.88033326325
83.8457026899517
83.8374785944603
83.7741296435478
83.7093070785283
83.7150517191838
83.5717918811098
83.6369293445767
83.7060610772171
83.7401913635327
83.6269998155213
83.5988607536436
83.6616094825939
83.6656731486711
83.5422734007605
83.5073679424425
83.4896606918367
83.4672278762596
83.4463406194283
83.5137612580173
83.5100295406912
83.4468943370283
83.445308597849
83.430712034993
83.2514007109335
83.2548872993943
83.4038840502282
83.4458867584077
83.3396885735469
83.3068914923718
83.3040534261493
83.3675951825294
83.4334517939602
83.3899405817192
83.3507739244759
83.3502191737772
83.3189165384789
83.2833517431376
83.1850057913949
83.2583879702185
83.3242470818394
83.3518557203254
83.2413062953552
83.2338212295206
83.3002908333833
83.3902367841667
83.3744374794907
83.3744084697347
83.2774891623706
83.268507667567
83.352655158094
83.405370108609
83.3667500761497
83.3827868030194
83.4132945890834
83.4825376818474
83.4740201954353
83.5112694841546
83.4417467660516
83.4298450275736
83.4424694978109
83.46390268593
83.4969397322803
83.5201648521481
83.5025297464922
83.5150036278651
83.5153383501932
83.5278754239402
83.4902313804524
83.553988939998
83.6047969855304
83.6520947074756
83.6922189107798
83.7226665248826
83.7346434364783
83.7988346731649
83.8124810048745
83.8347412903784
83.8459877690323
83.8492221476978
83.8770372118166
83.9053668793219
83.9237422915499
84.0059933116338
84.0102920518128
84.1504767457945
84.2868913440888
84.233123052871
84.2057113064454
84.2968066446713
84.3177673994712
84.389132839819
84.4142924026941
84.3190806839204
84.3256114030365
84.5460894853008
84.6851070600436
84.7384093407513
84.6600806983484
84.6385136389989
84.6884009949933
84.7847556672702
84.8565003559959
84.9136529589541
84.938985787952
84.9780331631925
84.9466189975086
84.9588343827542
85.0392104050338
85.0968851204122
85.1328774597947
85.184432023506
85.1370303302173
85.2242172001431
85.3832365414624
85.4579909788967
85.4550658358106
85.5260242923653
85.5137926846179
85.528161786316
85.5577967179352
85.6189707679941
85.5885803569578
85.5898983486905
85.5601046457957
85.6229566699587
85.6872243352974
85.702922029121
85.6676560562832
85.7364688199151
85.8503539954296
85.8593918133256
85.8488066211389
85.9366481116714
85.9482722747526
85.9708705284832
85.9808964371915
86.051136482466
86.0775330063136
86.0890784285327
86.0230751167734
86.0470226193417
86.1656885202074
86.1741996686225
86.1180026359509
86.1950658554824
86.2488757577323
86.3079568523106
86.3003982650399
86.371803048409
86.4816913084975
86.5328035547847
86.5071043478534
86.5025198364717
86.5693152583169
86.7033572183822
86.7690954786076
86.7725513264637
86.7127583341384
86.7508793166099
86.8061293619517
86.885952228418
86.9334122160645
86.9022569014873
86.8690472882071
86.9406248338088
87.0035929747315
87.0706550066262
87.1251044221589
87.126826689187
87.0917865500399
87.1889636480322
87.296998483747
87.3363359056731
87.2682195760154
87.2872647210651
87.314480770586
87.3111441299484
87.2742620678872
87.2281966969502
87.2605971820938
87.3617811926511
87.3869013745838
87.3456891297625
87.24338529692
87.1867060976478
87.2233462006146
87.3049253854386
87.2662261494949
87.2399381177529
87.2422507273684
87.2000657348891
87.0451202285642
86.9839405299535
86.9659810091292
86.9767830803287
86.991976143291
86.9263193212555
86.8316005053541
86.828622185033
86.823121142082
86.757435899199
86.7505161082684
86.7500949081097
86.7268598708787
86.7526614182819
86.7290023989436
86.6753785719652
86.6187794050307
86.5716771305605
86.5039298508392
86.4774820977166
86.4218617357347
86.3332090896926
86.3082842204787
86.329860689035
86.305646761173
86.3215494657717
86.3235811935505
86.3532991655915
86.3359669348451
86.3253881439484
86.3573162349042
86.4453932050232
86.5547398350051
86.6387803073363
86.699921124671
86.8112341005475
86.9097686312644
86.980372910074
86.9931194248503
87.0453973816126
87.0824287474489
87.1220270490907
87.1983441587755
87.2531918739663
87.2516379014352
87.2866527732061
87.3424130380912
87.4001169996734
87.4099443642532
87.4461410381057
87.4522281314775
87.4443166002747
87.4526481802718
87.472010174778
87.5426434660594
87.6255243594403
87.6307757928263
87.6157705766285
87.6173621449017
87.6555694349585
87.7046411846578
87.7489523244139
87.7738547115597
87.8176604917628
87.771573112663
87.7487833686262
87.8521546813733
87.9732753906195
88.0122585485566
88.0142313478057
88.0320051271979
88.1194564498416
88.2080414045699
88.3406850237625
88.4010847146751
88.4352460790372
88.5115028974147
88.5474334215023
88.582495248034
88.6921119132592
88.7410328980799
88.7232291799803
88.7075604001019
88.7868377570928
88.8391989720373
88.8627889202224
88.8749622436406
88.8709133901478
88.9191642033189
89.0013106392472
89.036069618507
89.0286836009518
89.0136195197761
89.0721751476792
89.1078578316382
89.1455307905562
89.1853569129708
89.2047771931749
89.2500134467175
89.3615088436603
89.4537571068512
89.4689253286975
89.4123491546912
89.393689643013
89.3820607744565
89.3935488493122
89.4753555079165
89.5464559152408
89.5084558166654
89.5399838074023
89.6096345144532
89.6042276995701
89.562669930437
89.5545504581822
89.6114149889253
89.6393354295794
89.6402990397048
89.6826918966524
89.7052293904014
89.7385795050384
89.7540543399654
89.7350869759313
89.7702089572219
89.8429164355263
89.8408681268688
89.8035841309736
89.8501060042717
89.9190620086965
89.8900293007267
89.8873653192832
89.9382479835837
89.9572884148523
89.9678511950543
90.0182410355145
90.0374930516393
90.0621238651751
90.1018358367885
90.1354133639158
90.1179784309823
90.0847667100779
90.1088501683767
90.1461835712731
90.1759960987193
90.1956406971057
90.2076711130902
90.2396867200261
90.2099650404894
90.2144161439994
90.2589474669776
90.2503109077659
90.2832098035975
90.3313850391448
90.3211443729179
90.2968933446701
90.3059735660806
90.3601652677345
90.3500202047799
90.3395288459318
90.419449370003
90.4664753062866
90.4514337934184
90.5065016157695
90.5363384732571
90.5052020612306
90.4921660555184
90.517193645676
90.5019172877347
90.5174010109715
90.5176545311262
90.4731342651417
90.4777314145304
90.5008458206001
90.5319276255958
90.5836358188106
90.5822889586012
90.5471781986348
90.5878304803748
90.6384183004193
90.6163252616514
90.5659767243133
90.5924421971471
90.6731300872902
90.7373253306395
90.8097994756994
90.7991511248809
90.7862333114319
90.8311110677003
90.877695436649
90.9122923761755
90.908368757427
90.8930907082872
90.9938763814284
91.095077041454
91.100215021465
91.0383787512114
91.0647952426547
91.1478511006964
91.1753130834172
91.1352710592532
91.1808768604834
91.2883081003375
91.3279919345802
91.2926107247707
91.3227219242289
91.34356561359
91.3052143949056
91.3338502514932
91.4297551432435
91.4310723561242
91.4653396857305
91.5423592761559
91.6064328215141
91.6171673421193
91.6013530832547
91.5794767932185
91.6648003741195
91.7158777392239
91.6998877125518
91.7103154792752
91.746151180158
91.7649364523648
91.7019521979897
91.6787460393095
91.7672062746866
91.8159164564682
91.8354027126787
91.8354541863555
91.8069304690761
91.872765308343
91.9896465114186
91.9290281366436
91.88230390984
91.9565322412735
92.0278041802381
91.9823464806698
91.9220544210207
91.9707822803439
92.0234125082908
91.9438957432618
91.8966107569453
91.9922360493094
92.0783577374528
92.1062423661479
92.0889829364706
92.1251837297494
92.1672721968187
92.0882890923076
92.0789044574084
92.0876272750724
92.0050109969732
92.0752667753149
92.1361794210081
92.0732383645836
92.0192562133699
92.0796794528923
92.2005546937901
92.216175830951
92.195070970723
92.150170034722
92.1658034023062
92.2103543414656
92.2535535590312
92.2095452011832
92.1761512218801
92.2283389863179
92.2260483824367
92.2176302389781
92.1852482664094
92.2000685288321
92.265652263247
92.2224383414993
92.2865408342725
92.4075299789706
92.4515093974387
92.3174957970866
92.2622082111102
92.3262772338158
92.3758539639465
92.3656756371154
92.3175590264049
92.3462499842825
92.2917545323025
92.2735196048809
92.290038487523
92.2930632561738
92.287518988389
92.3196626969297
92.3393624213092
92.3424355946572
92.3481616626216
92.4332405708276
92.5143061303336
92.5103058755846
92.5349435134763
92.5275937293595
92.5239668790979
92.5330486379589
92.5120263215728
92.468752326513
92.4463523462615
92.506844181148
92.6312925305103
92.6765922473994
92.5910127517904
92.5133477960818
92.5057828137966
92.5715353717312
92.6164825446521
92.5395905217451
92.4174741310713
92.4432302064624
92.5232192209025
92.5476919215422
92.5487880748904
92.5699744127128
92.5494753619789
92.5019368362316
92.5208391035569
92.3830077169183
92.2331213529634
92.2089697370441
92.1961588469038
92.1245071733274
91.9935565816014
91.9567999369399
91.9890144119466
91.9141998278871
91.9282537998148
91.9642266443894
91.8954011340019
91.8382108163989
91.8685623805818
91.9728529375643
92.0851449435704
92.2548741990331
92.3085839150953
92.1958834733916
91.9752490716702
91.8537652989732
91.8579021547539
91.8968778490897
91.9609021452035
92.0292230766091
92.017749225624
91.9740389884539
92.0558906217503
92.1233595541644
92.0352248576053
91.9182018293074
91.8138014823361
91.7862484631328
91.8978535381905
92.0258315554306
92.1216348209376
92.1826892315732
92.2695356128974
92.3666330820665
92.3876290202986
92.3276109330881
92.329134458917
92.4571693223889
92.4894013143138
92.5225544725331
92.5759944066459
92.5335141691757
92.4858010455936
92.600042470409
92.702455537576
92.6878257935744
92.7323448068954
92.7970403224555
92.7446296626138
92.7850184511709
92.8311479202163
92.9857675865645
93.1589853621196
93.2141467014557
93.2797432855379
93.4146715647004
93.4388733083299
93.3889317262356
93.3726693632935
93.5573616668844
93.7233363686893
93.653816536672
93.7831739582029
93.8132553487783
93.6371222849653
93.7589832180057
94.0390925123644
93.9567621159188
93.8145944441026
93.8800212260192
93.9573506112131
94.2088166314576
94.3631443945106
94.2242860562604
94.2786618567528
94.5825853784819
94.5148871009271
94.3308396485156
94.2367184037256
94.4220579319232
94.5127704030214
94.3929837752631
94.3741668205226
94.5924925355941
94.560660265975
94.5714029038234
94.6530093815343
94.8250238834129
95.1067763599847
95.0866704906151
95.0830368542536
95.1829304115931
95.2170959984953
95.2159392688717
94.9793185924
94.918296714348
95.2035355727121
95.7589576729928
95.8329612494631
95.45936883669
95.4237071493332
95.4416466674522
95.5675086562943
95.9632751754556
95.909968737598
95.8784599613784
96.1748221435077
96.1166754728167
96.0793580193838
96.2929188207714
96.1368871122066
96.4113477934368
96.3777627819799
96.4245661793137
97.1260154269375
97.3643185328369
97.2848647249138
97.0260561566837
96.6029197800007
96.1958908648196
95.9206601399232
96.1680832408961
96.149863909819
95.8749483526768
95.7581094211876
95.5325904933709
95.4117432377391
95.2866410866653
95.0959637519472
95.0111316689383
94.8085367372289
94.7713879023725
94.8235424924649
94.7146733085226
94.629035984937
94.5439685088501
94.4458249742721
94.4359592356112
94.2919974065958
94.1353462146281
94.2177347658692
94.4406401992838
94.3804975408567
94.1470969097973
94.1626393903214
94.3406563277442
94.4045692209043
94.4632568123797
94.4805207463949
94.5523040309678
94.6959022191334
94.6871646322384
94.4870823529864
94.3174801691181
94.444009215872
94.7136377632989
94.7021315428307
94.7090714394468
94.9039375067408
94.9128701078996
94.745214147232
94.6890277640734
94.7930684415711
94.7484328274079
94.9134400653315
94.9580987507268
94.912913669407
95.1918311376829
95.2611192707228
95.4594887727766
95.5992947113857
95.6093647693752
95.5391757299085
95.8129240490355
95.9870088566456
96.1193688552769
96.209909809512
96.6547237844346
96.8518937218355
96.9189515030647
97.1889385804462
97.2071317646687
97.0012764910785
96.8407327066968
96.8723466796392
97.1261071477135
97.3572861745224
97.1082240318276
96.7611553065102
97.3240156029634
97.7618106746298
97.3645166386711
97.0023099219771
97.2580560568706
97.0810754378471
97.051168606943
96.890256619026
96.6916889599351
96.546773967889
96.3310894642257
96.2879380700219
96.4562847531335
96.5094790056632
96.4532915755203
96.3602329884625
96.5135209857313
96.3273447181912
96.2130678016101
96.4088738271986
96.5859227098573
96.8572442585631
97.1376768367144
97.2973952079723
97.1873290586171
96.9712603506496
97.0105606423362
96.9884086888562
96.7334236947632
96.4212166025171
96.2686317762658
96.5299275254511
96.5720216012852
96.3744772383803
96.3363480126126
96.1924881028219
95.9691561638979
95.656289714534
95.5128323104624
95.5733437759063
95.6890661295167
95.6342200004929
95.501449195358
95.4462543248225
95.5650807015951
95.6750573925947
95.4687756502744
95.1595224496516
95.2406102479193
95.2783365089803
95.1024597777736
95.0610492202336
95.0816523042016
94.9242287423507
94.9329163426592
94.9727312937696
94.8914354946851
94.8399121229947
94.9549151679187
94.9459659619617
94.8056117423569
94.7363857444657
94.8230301200391
94.8225760888431
94.8210377518401
94.8609923515602
94.8412998531949
94.7645845677552
94.7258197705141
94.7623668155019
94.7565221037397
94.6702125084523
94.6636587754141
94.673131168765
94.6892348121017
94.7363038091153
94.8015249367624
94.7698804045057
94.6967962447553
94.6900944255067
94.7095202317725
94.696224258812
94.734337963354
94.7979262737962
94.8306172918523
94.7073674986356
94.6772531110029
94.6611716205148
94.7136339356778
94.7122010280343
94.660420768879
94.655462500327
94.6700769157676
94.6667741791933
94.6314963416537
94.7517618846391
94.8333527572632
94.7863897055494
94.7630254559632
94.7510228232919
94.7612288084639
94.7215518905352
94.7278416558581
94.7853741768684
94.7864167348811
94.8016131482128
94.8086364085776
94.8066182425486
94.7646708549007
94.7919158472317
94.8129215480206
94.823236040602
94.8256733031628
94.7756836473266
94.7491271581842
94.7292341058914
94.7592629823984
94.7648527971181
94.7883978336641
94.8284932338521
94.7903854036003
94.6784231311283
94.6474038120926
94.6934263583962
94.6660647175715
94.5835471834753
94.5375372792097
94.4872659064005
94.4236841657229
94.4243744658959
94.4194418371747
94.3483375515738
94.2171833912499
94.1975565083099
94.2283056609764
94.1541633435427
94.0855014408653
93.9352842782856
93.8335220269776
93.8375910479792
93.8080790862029
93.7347449681583
93.6848762359432
93.5009983331785
93.3467008774077
93.3026665686575
93.3019099076444
93.2153719527188
93.0682962753509
92.9299528679143
92.8060767610257
92.7376096239102
92.5776608944242
92.3580674510167
92.3651105625973
92.2762021126077
92.1317758256874
91.9546787503579
91.816160561874
91.6472157319712
91.4666162855601
91.2040473005628
91.0098455465774
90.9936539567262
90.9464938754971
90.7417289319868
90.5053469594525
90.2336003444969
89.9872085980284
89.8220983264725
89.5936621771872
89.2458274909003
89.2043289569804
88.9376535879607
88.6582009026082
88.3581643562763
87.9582275188975
87.6050244080895
87.3041801816864
86.8375617639701
86.5210847866886
86.452570416379
86.0885829261815
85.6672786030194
85.1913127938596
84.8254620315088
84.5120654523615
84.0513977235417
83.7254732585345
83.5274229117202
83.0902890889886
82.551064585448
82.2845731415819
82.0188963829559
81.5898786477177
80.9851492854341
80.3101776606144
80.5001960200988
80.7313232016413
80.1058899913226
79.6523743531202
79.6482466277452
79.4929085472497
79.1430483568382
78.7674344039548
78.2574047591987
78.046307149435
78.4165850090164
78.3187134118569
77.9169803071474
77.6215734734313
77.48161367777
77.2705668504267
77.2670472480378
77.3066343284818
76.9279109922472
76.6150129066603
76.8160892917985
76.7957900813402
76.5019690851392
76.2477800098864
76.0972379057002
75.9826514560083
75.7787667319397
75.6098191349517
75.4668004090032
75.3333475156728
75.1483177840733
75.027798695818
74.942419196725
74.8722949073729
74.7557736271179
74.6732931402194
74.5874628687379
74.5639152442755
74.5445028175419
74.4971242776019
74.1571334279434
74.1463721896481
74.6986276976143
74.6151080768104
74.2056172444729
74.3481267840814
74.5005527587626
74.4170055833157
74.3494435000614
73.7708614620898
73.1505755796699
74.5564723127454
75.0295589330816
74.9500379598311
74.8973113353874
74.8118924837642
74.9992321854389
74.9381791019053
74.8839962317957
74.9095018589693
74.9167656350167
76.0812895640947
76.9438353478869
76.6142032588026
76.5692162678847
77.2115649529526
77.3835820667891
77.368549666286
77.6088876001076
77.9031095598201
77.9391214775617
78.6491645757168
79.018768024987
79.1112938035932
79.4606762758746
79.5578920141791
79.6024959293769
79.3916181957469
79.189247564829
80.5654590749741
81.3795894778561
81.2660725835066
81.0865341081492
81.0873391836744
81.5480947629634
82.185714201146
82.2469016364466
82.1372785795305
82.5211509691172
83.0388592681535
83.3366980931618
83.3879494695181
83.461920752889
83.5921706913365
83.5371307395191
83.4505756550616
83.321340350827
83.4358489715402
83.5743679067572
83.2148241602073
82.6873273734511
82.436552603875
82.425212667371
82.0741095789703
81.5086242605176
81.2774016950839
81.7361024733051
81.6322799500079
81.3091855595052
80.9659233351175
80.827869465336
80.8688036911458
80.7790667706819
80.6307898818814
80.520729802927
80.1962686996253
80.1023084543737
80.3750277083266
80.1755770693238
79.8115474781007
79.6139972121009
79.4087383436857
79.0126729213801
78.7495096561597
78.4369162830729
78.0161756624155
78.0216097464966
77.9171981126569
77.5665440022115
77.2346839214166
76.9864636296517
76.7529729515945
76.5010023857573
76.3777533119639
76.3658242052455
76.1241518078847
75.9569201815894
76.0348095685253
75.9848393344549
76.1282876987519
76.2306602023392
76.077418501875
75.9193967544777
76.0907340459161
76.2302426565274
76.1945886697886
76.1813123755998
76.2395984137356
76.2797614462485
76.2796100144765
76.5214296225253
76.7111800729454
76.7440830565699
76.8711996506729
76.9867043066747
77.0233855725092
77.3011212552958
77.6634132018342
77.834650245738
77.9048474394017
78.0321020484148
78.2072160534661
78.3572684284266
78.5006183613999
78.6622766150598
78.8068160833896
78.9237968212142
78.9653314868488
79.0644124725965
79.319547736449
79.5249636263703
79.6104058313698
79.6604788295168
79.7459940772955
79.8308142550625
79.9033828493097
79.9780083954603
80.0284563029788
80.0338137659698
80.0619939075994
80.1441303622371
80.2151504731656
80.2634840775966
80.3408167147547
80.3984428287708
80.4177731220296
80.4809716717698
80.5735444256001
80.6527472454759
80.7226108243028
80.7902359881587
80.8727511520408
80.95921701824
81.0180674913673
81.0835263318535
81.1821778615074
81.2349572186222
81.2569671109016
81.2944969713513
81.3363227788135
81.3535501053291
81.3613395695222
81.370464703933
81.3479620358468
81.2781636330687
81.2372645419732
81.2018980699582
81.1164901277056
81.0557648197646
80.9956446204896
80.941196976672
80.8997101957829
80.833010701414
80.7829143477525
80.7471301390844
80.6854294494196
80.6204107356876
80.5699871762232
80.504276024333
80.4396390988474
80.3892751798534
80.3518701386969
80.3146395738729
80.2830073593789
80.2786069173014
80.2832371410277
80.2734641302567
80.2995450437369
80.3242761432941
80.3335721083704
80.3774189564759
80.4721153535175
80.5306269687017
80.5848656951092
80.666108731684
80.7481925581513
80.8475631991021
80.9414940207776
81.0417156896551
81.1442050682178
81.2372179763211
81.3323885703419
81.4256458674816
81.5368218761615
81.6672142647319
81.7765302688421
81.8944665674976
81.9882532346155
82.0770959352129
82.1502010531534
82.1668641489909
82.1753562813741
82.164698440754
82.1356616791344
82.0777656889189
82.035673738326
81.9785886289964
81.8831798932581
81.8009258751311
81.7282038981645
81.6572175177655
81.5684311274851
81.4814663215838
81.3674371769628
81.2455761077058
81.1333457505754
81.0164127125663
80.911605716161
80.7951118165434
80.6582047958909
80.5299439803984
80.3857473710028
80.2350978039556
80.0886794602954
79.9321987272201
79.7487530505416
79.5437502884907
79.3237938770488
79.0802740646846
78.8212727352214
78.5434728713312
78.239954219288
77.976707983382
77.7734799564277
77.5720023560048
77.3698835026158
77.2026615157173
77.1077389913967
76.9994867671532
76.8742601684582
76.7723967916095
76.6723777199869
76.5196788788798
76.3335893079825
76.1557507159239
75.9797954628918
75.7442731312979
75.5116725025597
75.2867387992597
75.0407485835314
74.7960687811347
74.5289313351785
74.2425516297202
73.9753812525776
73.693287430529
73.446179133966
73.2086926710827
72.9542167862096
72.7086730435677
72.4871477113609
72.2892146064728
72.0629811408302
71.8242384673525
71.6229048124588
71.4338091150479
71.2801506923038
71.1366419650236
70.9654447217334
70.7862253907706
70.6143271779414
70.4205075700927
70.2820265980253
70.1283643194692
69.9749749735506
69.8344482834274
69.6832667709706
69.5486770620975
69.4416942149797
69.3186008290834
69.2184121529353
69.1413676231408
69.0722764785054
69.0217626385515
68.9711784896076
68.9922455962255
69.026541563856
69.0435289029599
69.0940020228107
69.170811552572
69.282069160449
69.397940538681
69.5090545695384
69.6793401348446
69.8836039544473
70.1055691593872
70.3656029668548
70.6070645237183
70.83218241536
71.0635187885399
71.3152836792791
71.5767504196256
71.8301955158869
72.0589650287417
72.2734275215075
72.514681448855
72.7690129749207
72.9840854745886
73.2040580023295
73.3856422980131
73.5440212549025
73.7141001077502
73.8892202781136
74.0399773406176
74.1893688496935
74.3464206751188
74.5250820799189
74.7372414253314
74.9412393449063
75.1315961041916
75.305719929471
75.4934419922962
75.7205227187641
75.9361387712289
76.1140504136549
76.2895878206205
76.4778622602145
76.643738451225
76.8397798086398
77.0659033296055
77.2534774754133
77.4250293367346
77.6204332207972
77.8066468954156
77.9802041237759
78.1422355546435
78.3158112510847
78.4971357226654
78.6227492224813
78.7136987699159
78.8516474045809
78.9759251071042
79.0676018112778
79.1727625079123
79.2823800502808
79.3743421865334
79.4607865816223
79.5772953425905
79.6867594892766
79.7932398987392
79.9267771783749
80.0208944301782
80.0917305048113
80.1651377946088
80.2454509639351
80.3341976551487
80.4216318885269
80.4970181204238
80.5320817970319
80.5399653050841
80.5544826531106
80.6097431631695
80.6918332933522
80.7560595064506
80.798174437774
80.8220277187113
80.8580776047953
80.9052301115642
80.9124873695615
80.9168573517298
80.9413216364538
80.9355288667228
80.9414418543867
80.9643154872261
80.9785417315931
81.0081635211237
81.0324976539205
81.0033053520747
80.9645136871044
80.9613508952072
80.984359328221
80.9294096089933
80.8546032465012
80.7993931561793
80.7216943620547
80.6621656665118
80.5917643161976
80.5122476755146
80.4370474145131
80.3919466858754
80.3703985787051
80.3275289164282
80.2733640445919
80.218555448072
80.1432425359156
80.0671818502981
80.0210565836233
79.9853114803858
79.9242924603726
79.8198603049867
79.749513163597
79.6927691071978
79.6192357238113
79.5231985843152
79.421163174702
79.3420704476537
79.305943823266
79.2370946366703
79.1881958580113
79.1495440712863
79.1080217113237
79.037727779039
78.9550687358037
78.8832258502907
78.8356873695315
78.7448647554227
78.6727430427501
78.6067292169314
78.5999965228179
78.580316084175
78.5030372700432
78.4691194182764
78.4765387416868
78.4437805510676
78.4021145220866
78.3716489326604
78.3101217372686
78.1958857311347
78.175443815803
78.1590067995097
78.0979751570959
78.0304181498599
77.9557445936555
77.9199522758346
77.8725407576477
77.7915569451395
77.712281743338
77.6410624032512
77.5985664066988
77.5524855453013
77.5190419562996
77.4465568498289
77.355752196058
77.2651375057846
77.2482891013892
77.2023147740055
77.0689728120045
76.9531545049839
76.9057820575858
76.8002949663737
76.6626872232702
76.5863490778779
76.5170995548903
76.4304593662377
76.3423172410267
76.2140699292336
76.1094958785423
75.9895600930419
75.8212142214289
75.6715047278728
75.5582934246096
75.3896201904032
75.2634106530567
75.1314238513505
75.0671381298761
75.0069353868826
74.9380611832953
74.8621596334285
74.7466413053259
74.6265837830949
74.5973250692193
74.5108477744611
74.4038765789963
74.2984524160116
74.2368152318741
74.182326269636
74.0814489485215
73.9362472562493
73.7425248005459
73.2586558257445
73.5005732001331
73.727815770534
73.5099054035402
73.4020899650399
73.3172380483839
73.2304866546501
73.1770498373558
73.0859335215828
72.9435603936022
72.7558981727163
