1798
3999.43349933624
650.420452594757
1
128
4
94.1545708947486
94.2819456666912
94.3260860873804
94.2778540647991
94.2102255872633
94.2944456021267
94.3579632900032
94.3118105434483
94.2467617267537
94.2908780538019
94.4206241366891
94.4479555892272
94.332227466709
94.3330856958945
94.2925510448042
94.2674243851998
94.2203467230192
94.2817863741681
94.327124807028
94.3423398789904
94.3342227880326
94.3342506855158
94.3448177760905
94.3762893658551
94.3755717357286
94.3623398059023
94.3966041502681
94.496122889483
94.382301621721
94.2657485524504
94.2865220718102
94.3107773946142
94.2696105923712
94.285557269844
94.3157971469008
94.4518401710953
94.5218248081724
94.4845705222848
94.3853726886361
94.4121893545145
94.4339069298058
94.4209917754852
94.4256116745654
94.4353499576876
94.4229645729958
94.4478118597592
94.4069334231869
94.4210136089644
94.4160868941921
94.3758073143663
94.3178339504218
94.2809827847003
94.3126273699804
94.3827203042099
94.3008119151329
94.4509024472961
94.6145548544167
94.5706619622315
94.3726857517277
94.3491043562374
94.4732347615544
94.4694680954893
94.4087617669737
94.5176714962764
94.4863554559912
94.4682461116017
94.4802331521121
94.4663360489363
94.4341545872593
94.4565205936476
94.4568091769204
94.4357558208465
94.4328764150782
94.5522318420098
94.6101109263138
94.5277813566744
94.3745650651625
94.3484726990686
94.4000056813545
94.6154514554054
94.7686771173138
94.7828199204974
94.6018554616054
94.4882601320239
94.4179607375949
94.3424552551929
94.3001464815812
94.4872962367574
94.6204691870562
94.6693308933639
94.6740624262827
94.6497661980885
94.6415306655614
94.6821960589523
94.5885374067869
94.5834103766756
94.5826234304852
94.6373116794994
94.6937041598335
94.7713844932988
94.7461375399084
94.660674750676
94.5999017301258
94.6171672466659
94.4825822762835
94.5036817983192
94.7112728404681
94.7224729191611
94.7338418682084
94.7855575216726
94.6702052849659
94.6870189293939
94.7379702444129
94.7628512843778
94.7171811368909
94.6618534283259
94.6510249514319
94.6859711359117
94.818368608262
94.7871177371042
94.6571742349788
94.6638753768436
94.6610808946838
94.8003507250111
94.8199298632257
94.8369052147573
94.7942246408647
94.7717770885495
94.7438148742095
94.7499044541148
94.8079627482418
94.9033759503577
94.905531461329
94.8576936048015
94.6451802749885
94.6655827635081
94.7968211183016
94.9980386671076
95.0729603552275
95.0346226772139
94.8983972777645
94.8176779436839
94.7596205731613
94.7473237504805
94.8156894262049
94.9495004822473
94.9729709252917
94.9243823655335
94.8183410669243
94.7577722044571
94.8463797390338
94.9644761329704
94.8663691324472
94.8433759002823
94.951792098702
95.0001098893086
94.942287384983
94.991175455769
95.0501413262239
95.0107004677196
94.9420658831559
95.0411168903972
94.9782058857797
94.8303091121486
94.8041050827337
94.7996201355506
94.7860380886918
94.8488056964267
94.9735638902793
95.0842951331866
95.0080858075631
95.0913118012978
95.0394391132896
94.8086026987343
94.6272667003372
94.6855041192827
94.7860109958914
94.8057891052603
94.6829631347537
94.7896653473541
94.8506971958144
94.8289360796081
94.7602601421114
94.669164103846
94.6192914379077
94.6163213108741
94.5200181062498
94.4653531355558
94.5769955655083
94.632150525458
94.4608944264037
94.3852354138131
94.2905734118143
94.2215167086327
94.1818220410539
94.1941952461749
94.2275322259124
94.1473304037162
94.0079390241471
94.0743366226267
94.1367985287553
94.0372199368232
93.7804357193506
93.722975206627
93.6864307786322
93.6527094555563
93.6023786273805
93.6710411947673
93.6173322119996
93.4898499148436
93.4547041275244
93.4606082266951
93.2945286554337
93.2509059014932
93.2364612985073
93.0433264968573
92.9522301684363
92.9960304400475
92.9335320152604
92.8528814110406
92.7962307891226
92.8616040372963
92.840678588879
92.6925838761097
92.5836824249272
92.5192830601089
92.3654773900644
92.2974980418553
92.2932531801299
92.2723274607728
92.1312587046373
92.0184288766464
91.9969835150925
92.1296132455152
92.0719380171765
92.010669272077
91.8357053680852
91.6621557771901
91.6231553660244
91.5673845995541
91.4647628971972
91.4761225156277
91.447540100033
91.2823405160613
91.0906685984779
91.1328798502331
90.9945783673395
90.7662839470799
90.8097885685347
90.9259762511816
90.8716851771424
90.7696317928294
90.6106903811786
90.4882869504274
90.3950265904015
90.3309396143422
90.2646246594895
90.323722630921
90.2812877191818
90.1987036688876
90.0140587107567
89.9104760315009
89.8864318984929
89.7715369681764
89.6289766583767
89.6785693424468
89.6602005818233
89.5909478509008
89.4257629910001
89.3491747575241
89.296935134966
89.211138304311
89.0845753490197
89.0766205109062
88.979208689608
88.9775462228721
88.9876811419456
88.9345586896277
88.7620679903416
88.6757176041217
88.6327878742546
88.5043996964746
88.3941403554971
88.5207544214874
88.5005393221571
88.3677180393228
88.1214683229634
87.9990097541311
87.959494405157
87.8970928487553
87.803354958531
87.8159896157538
87.8440322845623
87.8493873051691
87.6937475939279
87.5475111795523
87.4294603800113
87.3613738054999
87.415169966625
87.5006486066461
87.4216952462585
87.2300954143275
87.005068789186
86.9460091048892
87.0126534340685
86.9513477801138
86.7886783564965
86.8072305984616
86.7372253314273
86.6632966524525
86.625150880576
86.5411185766316
86.4328330308188
86.4656580351451
86.4363253272491
86.3590907276345
86.3044227538592
86.2932885872122
86.1699625881212
86.1191280602509
86.0163917581566
85.8788159903755
85.7748044678898
85.8632009626989
85.8439785469491
85.8586739886358
85.8375363656547
85.7720556741174
85.6437083364652
85.5490710996448
85.5254418249333
85.5618494487156
85.3981001148321
85.3092782033658
85.2627407838932
85.1386890014658
85.0753966021027
85.1197965848373
85.1283245590498
85.1624091565418
85.152925766223
85.1059862247754
84.9536395635823
84.9193837601722
84.9740150362726
84.9071399230456
84.7465685128894
84.7502875492163
84.7779195035316
84.7642028454743
84.6625169983318
84.5763609198064
84.4599271535798
84.4899503748122
84.4699224396312
84.5121600569899
84.4578319406
84.3684619604195
84.3830346275775
84.3930648723073
84.3508059091879
84.3353589655613
84.3143307269686
84.2570299009661
84.1500528916609
84.1965388853103
84.2281335975264
84.1725533907472
84.1526854186323
84.1826739560899
84.1944044107982
84.2170121294084
84.1638059968926
84.1236270744477
84.0152291915927
83.9802727396102
84.0112441754174
84.0781191414056
84.0326373385948
84.0166747038027
83.955352660544
83.8958745535033
83.8083542706937
83.7422285633923
83.7410800453933
83.7960074289735
83.8284667198412
83.8636595244533
83.8512618061457
83.852723723448
83.8032748024972
83.7968070928192
83.7453163354526
83.7558781016777
83.7897912924061
83.7845635047851
83.7009589193063
83.7587774394814
83.7737781086843
83.6895057264683
83.7269169975502
83.8387086538866
83.7778244803528
83.8428110896542
83.8869740166437
83.8830322863923
83.798936372602
83.7748878736152
83.8313647283724
83.893817328985
83.8923109109911
83.9510901111296
83.9780625947342
84.062976179268
84.1267886337622
84.0802260105043
84.0107586370825
84.0759346982061
84.0458525913351
84.0380277975784
83.9929978462114
84.0434783566529
84.0624819902554
84.069917260786
84.1128503489997
84.1770369962641
84.1911059374092
84.2488860120648
84.2564853745183
84.2574511393692
84.2719953598866
84.3423037699343
84.3038870462897
84.3134717975776
84.4611460460615
84.5775666802588
84.4500040952911
84.4128573549805
84.5130991752427
84.587162348593
84.58804294582
84.6481323487504
84.6763636171358
84.7282596189801
84.8355687163116
84.9061414383962
84.883117376003
84.8860258051721
84.893925092572
84.9621868976921
85.0020124145347
85.0895635329658
85.1440927414995
85.2151076663729
85.308374355173
85.4233995010187
85.4310737502219
85.3683603548523
85.3448184040435
85.4112302300302
85.4465039554999
85.5614755507628
85.6074950620528
85.5753444670378
85.5580652148622
85.7108706952003
85.7599915583801
85.7233789080801
85.7821352263584
85.8623448432873
85.9541893212595
86.0527899078997
86.1022789170844
86.1384833559142
86.1220259337259
86.1811147244737
86.187962227783
86.2263239979789
86.2374294057654
86.1691256959082
86.1938619052274
86.3379387087666
86.4173885002627
86.4779912403881
86.4394657824389
86.4508258290352
86.462248353826
86.4556179100253
86.4821339537192
86.5924516534729
86.6998348149192
86.7580461010783
86.7319814129229
86.7174338754093
86.6940093914003
86.6969175612387
86.741565947887
86.7204968102789
86.6736128139419
86.7850184761647
86.8790759716348
86.9190817842309
86.8764860694147
86.9354211889622
86.9933459391357
86.9671301393125
86.98124228089
87.1386733926351
87.1285643708121
87.0369843590966
87.032723241944
87.1384846659916
87.2852004690978
87.4302758716029
87.4618286785679
87.493960200562
87.5066116771734
87.481367394238
87.4859998724398
87.4874419957354
87.5172229176846
87.5843659289207
87.5848756036351
87.6302852914359
87.6794348356508
87.7342359767306
87.7362604549733
87.7939376215529
87.8911230449135
87.9149557211335
87.8713523929356
87.9397796188952
87.9153907945408
87.9239238784262
87.9773321086368
87.9665643341175
87.9038622580685
87.9004265772032
87.984107832907
88.011017359556
87.9739603344314
87.9703428860221
87.939970799741
87.9815834716653
87.9225368313268
87.8343396093633
87.8324533053411
87.8677087081856
87.8544070668881
87.7955436683574
87.7067047205069
87.6764541892773
87.5803596976209
87.5047330615387
87.5425676553944
87.5396784901586
87.4349300444075
87.3678854602809
87.327732404428
87.2983711703244
87.2772951774936
87.281650525411
87.2103551266316
87.1920735022729
87.186676176351
87.1457518128667
87.1245275980949
87.0794210866915
86.9671518073493
86.9243762640134
86.8683041054813
86.74337646443
86.6306672414527
86.6841239751342
86.7157852928053
86.7115776003403
86.6970818792051
86.6758562908533
86.7093298154926
86.7559986768073
86.7564808932444
86.781348899713
86.8790490824698
87.0588678617326
87.0775632798606
87.0446571213229
87.1136345059684
87.2417563439552
87.283334875921
87.3286358245251
87.3490510004138
87.4251372092158
87.4992158909514
87.626201239844
87.6908409922682
87.6875675456972
87.7547309932745
87.7860053277982
87.7605110168672
87.777919966102
87.8221859180045
87.8612421828724
87.8614918404288
87.9062295682162
87.9116015897158
87.9087347669009
87.9830549802164
88.0269428675039
88.0208850256553
88.0614408488699
88.0967752482338
88.1862446530602
88.2249672486217
88.1957417483762
88.1317675949068
88.0805580570925
88.04991901352
88.181560451851
88.3361051127576
88.3771064525569
88.4455582349632
88.5422098876256
88.624238607151
88.7260357531064
88.7612336739721
88.7864474589018
88.8278801282759
88.9415707410696
89.0219702919937
89.0170533120913
89.014091765514
89.0845276404902
89.1467960955019
89.1722411946165
89.2005009516591
89.2364929442622
89.281993651481
89.3327107668353
89.3340708715984
89.403931507336
89.4861813891877
89.5146687847798
89.4809790824005
89.4760839444434
89.5426291982104
89.5931999399504
89.6086576715428
89.6596658756915
89.6884095585001
89.7364129991455
89.741275521206
89.7658366671212
89.7831227133849
89.7908299103102
89.7761156244032
89.7592626413016
89.7752274853864
89.8523225297958
89.9216074562005
89.9565534911735
89.9431185773811
89.9434265621406
89.9709325885258
90.0392793157949
90.0556204911816
90.0794373386717
90.0582762479484
90.051937323921
90.046376109313
90.0481933851893
90.1063880158523
90.187143863168
90.2065042354265
90.2127776952155
90.2251877133783
90.2356797816806
90.2256666355046
90.2734560904667
90.2760851073959
90.288401532758
90.2907017230824
90.2834696438006
90.2773343783747
90.328642675452
90.4145222786584
90.4496307643241
90.4192604229245
90.4507778716647
90.4694725350357
90.4540846714886
90.4619312830265
90.4888502089204
90.5109091275844
90.4800915218403
90.4782957403763
90.5548512976254
90.6092175276213
90.6023675101075
90.6244441168051
90.686280620965
90.6718831011313
90.6281250073142
90.6300575304975
90.6769021266815
90.7027694869592
90.7147200866383
90.686201749309
90.7549022756207
90.8192359459016
90.7995506836671
90.8261040770394
90.8492253939399
90.8033829512702
90.8123864906501
90.8407043722026
90.8453099373804
90.8602431729539
90.8514432128836
90.8123460802659
90.8468024334942
90.8761384011233
90.9008708943725
90.8878243564134
90.8829001634766
90.9024828117168
90.9317282725185
90.9134445222601
90.9031993681467
90.942873186888
90.9981179224667
91.0340174077352
91.0554381294274
91.0950182297926
91.1316603294425
91.1278073476399
91.1623235714074
91.2405253106723
91.2767231693126
91.2456946087352
91.2328598694392
91.2792230100319
91.3355225136389
91.3122516011435
91.3080041675231
91.3346915023339
91.383589093588
91.4342250379922
91.4843164239699
91.5395057727434
91.5890861358753
91.593091141527
91.6071781901385
91.5973462891739
91.5604090944511
91.5913739914126
91.6182208353516
91.6565842926171
91.7261751277161
91.7211906424163
91.6956043523568
91.7238767974189
91.8034992981847
91.8680457568986
91.8894469431568
91.8276630738231
91.8272847179907
91.8602199682154
91.8551994798644
91.9415027548908
92.0427863549948
92.0158305256894
91.9942434298888
92.0247787687893
91.954770210133
91.9873200177103
92.0679566008992
92.1058620983399
92.09347472407
92.0183375022201
92.0448524143313
92.1503525018858
92.2242163625233
92.2072388895245
92.1861868890145
92.1099589500183
92.0950810440755
92.1857239820239
92.240469142383
92.1987129121527
92.1411765782455
92.1365226751312
92.2402781037836
92.3332539588362
92.334846686757
92.2107504512874
92.1624945993331
92.2518052056478
92.2986519884301
92.3221557911613
92.3338210912826
92.2666225865261
92.2569640533397
92.3239095844409
92.3554112008089
92.4571452704084
92.3802322566179
92.302198569742
92.3842410412364
92.3204489609792
92.3040702650766
92.3958247891863
92.4287130793677
92.4486328144711
92.4218946080294
92.3520669979338
92.3672464739318
92.4252193386334
92.3918415166753
92.4459888408586
92.6094273121909
92.5345958927795
92.4582006274353
92.4893743938868
92.4720660782251
92.4360151064597
92.3914152491054
92.4488636436804
92.5654799519699
92.5597439691874
92.5455729284723
92.5737420412856
92.4603865979646
92.4280809927904
92.4342603621572
92.4930102356097
92.6329956421461
92.6361499630363
92.5204136982089
92.4866835421458
92.5343497736977
92.5351293408568
92.5588216475924
92.6158773675741
92.6666489524327
92.6393487484095
92.6561974440601
92.6568034157465
92.6125412203037
92.6386757774917
92.7275403528737
92.6773045287538
92.6258810081115
92.602481870068
92.6386942006422
92.657077768622
92.6387124130149
92.682614418518
92.6811022606451
92.6330622411596
92.689797459617
92.7786019449948
92.7733388822774
92.6881651964728
92.663109514073
92.714151264732
92.6991921727927
92.6438048067985
92.6519995889745
92.6465151833629
92.6217554274776
92.6330587610528
92.6343325806733
92.5700653817035
92.5701116096291
92.6083069137715
92.6329813348494
92.6918209688626
92.6298640438679
92.6498053195545
92.7700852517079
92.7905142116406
92.7843777490384
92.7612813526219
92.7241948178375
92.7863140939575
92.8002859038121
92.6597062896442
92.5736641950997
92.525376043993
92.4986468120722
92.6298332762323
92.658537441733
92.6025242615625
92.6355632319786
92.6559739217851
92.7112293647282
92.740053035667
92.6977652180217
92.5973663064708
92.4926938093153
92.4768519853658
92.5288991511577
92.5527181081722
92.5627578427953
92.6349354894752
92.6617442614027
92.6801999090148
92.7576819509366
92.8222795723244
92.7515816574578
92.7409444279334
92.8670625745541
92.8632224083442
92.8352424139641
92.8412318577953
92.8452659732067
92.9226776487337
92.9858824495784
92.9716314447445
92.9257099143094
92.9648769964153
92.9838713214133
92.9589503494231
93.0751916655966
93.1884625421497
93.239181545531
93.2813860423779
93.4031638512324
93.4850638941813
93.4646938378819
93.529251380977
93.4779839512342
93.6368535240221
93.8923246049609
93.7841732099553
93.6480592743758
93.6716203876314
93.80403809058
93.8372355834026
93.9082886725202
93.984859235733
93.9130780067634
93.9331563312895
94.3126865770276
94.5532606725814
94.2696029420581
94.1460452623983
94.4204689770612
94.4811807454071
94.332390868532
94.3225361395804
94.3452914561768
94.3502438679415
94.4530203809878
94.6303509305339
94.7331739902981
94.735756203708
94.7884777996782
94.8471617426363
94.809190108397
94.8379074578421
94.8715230395555
94.8463447896026
94.8173464972434
95.011757431865
95.1574633726097
95.1682258462805
95.1114083487263
95.2245916763323
95.1639301607494
95.0947711641676
95.3900475923455
95.6195192294708
95.6557550434059
95.7222436601722
95.7814969110172
95.5545810757436
95.7123799674931
96.3776888487726
96.4889607683668
96.0252384097096
95.4339697110945
95.7918153230785
96.1727906771731
95.8867949004888
96.2512514605547
96.7585990536289
96.8096460608015
97.1108510667979
96.8434398887416
96.5013668762186
96.5014381474387
96.348267258039
96.1812492940134
95.9885699943365
95.7633608013988
95.4597304709954
95.4279396002783
95.5082882240423
95.3203341884083
95.1363719895453
94.9561165115692
95.1073090832796
95.2014138025858
94.8681518478709
94.4992499349221
94.5691901590421
94.6040998909036
94.5463902145704
94.4895987892469
94.5367605819058
94.6166701957985
94.5152651613086
94.3873660276895
94.4130668339648
94.3554746263688
94.3486896948259
94.5318550743519
94.5020122989226
94.2950551073791
94.3902688169851
94.4959208134294
94.5858769181445
94.5840935226551
94.6485103260493
94.7603201865314
94.7350556885724
94.6278049815425
94.5072086464973
94.501117947996
94.5803916922125
94.6451605766616
94.8659174615258
94.9566968627523
94.9894049737006
95.0387735399383
95.1855623104034
95.3011320199191
95.3832536356592
95.2619807589062
95.1272035146955
94.995422653523
95.1389197588665
95.2705802677946
95.5059178451439
95.4198255145332
95.4651304595458
95.9492736915557
96.1876963499546
96.1897797453985
96.2561470876987
96.4341865280486
96.7542908618299
97.0448638540765
97.2033073174478
97.0326519985507
96.9298706807812
97.0311449650896
97.0805002343533
97.3090076739922
97.5621363368841
97.4946548479322
97.5180150128087
97.4087991953457
97.2224378680141
97.144617633717
96.8125017333853
96.9279728548532
97.0879619574999
97.1828872301734
97.2205170604405
96.8947936208188
96.7669728586285
96.7101995366183
96.4405499993162
96.1288616010956
96.2444810103444
96.4773281187249
96.6533171592155
96.7242909506079
96.3777789596897
96.1836401883358
96.5157350503893
96.8111512478279
96.9564463891776
97.1584255738911
97.1930489539966
96.8941520748132
96.8279380392203
96.9295226875186
97.0247651726921
97.1842438245458
97.3238986381027
96.6009937487275
96.1589965275044
96.4049116725924
96.468808952743
96.1294025941886
95.9748413827481
95.9467536242877
95.7831778079852
95.7483634819835
95.7443160291296
95.6561147447678
95.7085683064739
95.7547939717694
95.6708991907849
95.5092563502292
95.4102830537803
95.3609116442273
95.3545584936359
95.3849188383185
95.29954691229
95.0825075401098
95.2246305823868
95.2812988753345
95.1123744666433
94.9691913642343
95.1135717527423
95.1773678846987
95.0322370773201
94.9669386407811
94.9992151245195
95.051574784293
95.0296597949853
94.9404297143974
94.8865155784046
94.8551449124424
94.886356627995
94.8916318728382
94.9144060163129
94.9120809946894
94.9200004811419
94.9712019292199
95.0076345021001
94.9428600955203
94.8281020816218
94.7108831815235
94.6945078462231
94.7505996859761
94.7927128276148
94.7949857432963
94.7341725797686
94.7318592674432
94.8451506338083
94.8822936157832
94.9059632037839
94.8343081410156
94.8167904319433
94.8241437684297
94.8089343098057
94.8165718881285
94.8230574569161
94.8359431759651
94.8368506044375
94.7845051805367
94.8043866021845
94.823122653194
94.8369437226365
94.8251876922645
94.7903232194819
94.8127268020465
94.8110509765961
94.7620741096589
94.7820455998513
94.8732473160015
94.8809251022822
94.8778327723556
94.8301322179215
94.7705558505422
94.7913888164012
94.8419117697318
94.8953295972988
94.8766500305615
94.855488984287
94.8422678628204
94.8299993694438
94.8262858481672
94.7950073922261
94.787639330426
94.8471413981296
94.825816214392
94.8077133006902
94.7297461390993
94.6878425515519
94.7957519406197
94.8467999103988
94.8092889641211
94.7380171432954
94.6902644261584
94.7073769422954
94.7093287036968
94.6819664270081
94.6332302688419
94.5197654981894
94.4795115588614
94.5659126837481
94.5107550643406
94.496408002657
94.4374616819823
94.3347640089521
94.2957245610259
94.2011075383001
94.0973707136389
94.0733263347107
93.9553595245258
93.824999761462
93.6897852054161
93.6690004269986
93.6151818927746
93.4802192038685
93.3071501651518
93.149834469841
93.0128345255483
92.8344086324919
92.6114324298741
92.6566544033268
92.5908754972833
92.4961555246373
92.3245940852645
92.1493694087434
92.0027570268928
91.8811475913332
91.6513360688196
91.5166993337619
91.5281426371504
91.4885496260685
91.3206766338749
91.1154102084074
90.8758179353203
90.6633953770839
90.5075888945489
90.2539999821348
89.8742882982674
89.7219256142692
89.489521690839
89.2838536371769
88.9686393713547
88.5218023348652
88.087974273873
87.7217192967619
87.244112796022
86.929949566076
86.8486560916509
86.4652189293626
85.9690723803444
85.4046573620743
84.947012710677
84.6079685620145
84.1491668624545
83.8056773071505
83.5324004532239
83.0514851535598
82.5359013722865
82.211025476146
81.8773999338831
81.4258305894307
80.8421173775974
80.1898195895093
80.2423329049701
80.4046364382323
79.8566154487234
79.4776521315712
79.4708350151165
79.2547036821667
78.8878099073581
78.5671251820625
78.1454988919927
77.9986127895763
78.3751470117032
78.317439286716
78.0179312092954
77.8088269361813
77.732898107544
77.5936703097693
77.6465106155282
77.7447954124253
77.4632390030661
77.2566011438828
77.5543961588073
77.6202198942844
77.4358690165182
77.2887742242824
77.2094252636001
77.1228605795755
76.9689619213982
76.9035049140937
76.8553332174868
76.7768665366912
76.6627927286696
76.6306690411316
76.5983704076397
76.5820106759055
76.5791998553666
76.5980550489854
76.5920774173042
76.644545317622
76.6979364529931
76.6876746450474
76.4759331703615
76.5066701037716
77.0067151526701
76.986019477659
76.6421689463742
76.7757713953044
76.9627776185607
76.9190979199992
76.8429424023989
76.3208739180885
75.7272152391456
76.8409084636579
77.2933597498256
77.215512102946
77.0794097101513
76.9412418112643
77.0562580499219
76.9134300916041
76.77106311394
76.7673695946643
76.7783847045472
77.7126666832826
78.35603936926
78.065027894357
77.9577821178425
78.4288813375694
78.5537863112586
78.4984811690706
78.6448831942337
78.8468852209584
78.8233276075506
79.408111162102
79.7623414773451
79.8425139101562
80.0950558901833
80.1379224581509
80.1304619756101
79.9083373878679
79.7300917096016
81.0400741139754
81.7497219466646
81.6195782885189
81.4486687454633
81.4914496646604
81.9650856610978
82.5360085140776
82.5540408810399
82.4737287648013
82.927371651218
83.4809304759743
83.8149505719172
83.9119135011136
83.9688511429226
84.0760267223168
84.030243857184
83.9731919602445
83.8704694593222
83.9623210494411
84.0444936808467
83.6841410446084
83.1770089797438
82.8700604712954
82.8017308366923
82.4755123932201
81.9379236653553
81.6918376340629
82.1005950170616
82.0305173993196
81.7440895015427
81.4440437776364
81.3390357675939
81.3629372788425
81.3036774711712
81.2171893159019
81.1294706396052
80.871063106035
80.8172380021289
81.0988968325442
80.9796883948792
80.6879188118736
80.4775374481429
80.2851630712444
79.9485387998261
79.6656412457182
79.3501675801274
78.9725165784393
79.0065859831451
78.9808038651457
78.7227107238616
78.4542132732046
78.2562750971569
78.1137398320013
77.9460837324478
77.8708461876231
77.9586871485309
77.8870688681619
77.808087602934
77.9242572084324
77.9564238945795
78.1557206638361
78.2978701245796
78.1905072249183
78.0811202899438
78.2326402688364
78.3692659091244
78.3872569600072
78.3771305381144
78.396601603252
78.4082737274755
78.3768816764623
78.5893402935514
78.7557485995263
78.7994141764143
78.9396280662542
79.0530396496189
79.0726384482012
79.2908190326902
79.6015335479185
79.7527786202379
79.8344723491418
79.9578383702049
80.1111558074547
80.2230591215553
80.3179169521973
80.4263757756548
80.5405400917553
80.6496041412295
80.6744264956457
80.7395821068119
80.9452591855588
81.0925438852349
81.1370456725141
81.1618918892899
81.2186009005308
81.2755759597318
81.3134585828994
81.3544023894337
81.3973247259984
81.4219015589011
81.4430581242074
81.4849117121692
81.5180397319701
81.557684945822
81.629856137624
81.6855488210056
81.7176064442817
81.7543719434886
81.8141712529306
81.8705637458414
81.9279968153309
81.9766744314228
82.0210708062188
82.0903896000509
82.172728504453
82.2088731966061
82.2233025489631
82.2858961966936
82.3126382620038
82.2993775289429
82.3135228846344
82.2939585282347
82.2674862737156
82.2183580847712
82.1350120885783
82.0658237215433
81.997018094892
81.9080076826776
81.7926399025637
81.6706237431685
81.571994382774
81.4880860369768
81.3980757325267
81.3115314000101
81.2098907066851
81.121897722775
81.0504494134341
80.9536111086394
80.8564258160322
80.7831131201712
80.6910196102315
80.6082872343979
80.5525855747949
80.5244575665389
80.4985228948805
80.4711625562341
80.4887176555223
80.5032037750003
80.5105942662307
80.550645859688
80.5978953825809
80.6465720027721
80.7205530470372
80.8072694724606
80.893462687575
80.9831890420384
81.0912714125231
81.1991191016015
81.2976898132787
81.4130199866616
81.5294714092394
81.6411984825326
81.7675300567169
81.8837904847139
82.033396714909
82.1786023200468
82.3000374098834
82.4489485182316
82.5743642670077
82.640770770543
82.7145505210409
82.7675180403963
82.7620918188582
82.7306682816376
82.6966839262358
82.6382381628798
82.541273815556
82.459160624675
82.3799982898488
82.2770620043436
82.1886927000647
82.1065224519912
82.0306929186672
81.9250783154169
81.7924889466937
81.6650160489069
81.5565370981701
81.4219307859708
81.2547359559222
81.1341784517413
81.0270777723867
80.8963511802202
80.7491890789419
80.5773587132253
80.4292946897758
80.2797257735605
80.0941494109461
79.8599707612574
79.5960742518948
79.302367872701
79.000549339129
78.6697076330065
78.3363579098412
78.0499071221779
77.8166570746438
77.593803967062
77.405503801923
77.2480127358744
77.1078130115612
76.9919722641377
76.9039377708676
76.803483509447
76.6878503897918
76.5716634839956
76.4299380139821
76.2482023257038
76.0422315280236
75.8259528025813
75.6060558286873
75.3435233679157
75.0673053458907
74.7858544804623
74.5063946812395
74.2028750061552
73.8722196075351
73.5571119834903
73.2537968793201
72.9748585921804
72.7025879994692
72.421950793669
72.158083828271
71.8834017709863
71.6611206991387
71.4528728774399
71.2207863492249
71.0098071766241
70.8114199489015
70.6169846364631
70.4393240323504
70.2482716305326
70.0542392104398
69.8628201605269
69.6849536728623
69.5224995522297
69.3749174908459
69.2039412510439
69.0306735510258
68.9037364991472
68.7897443030751
68.6585992317277
68.5430204164356
68.4266989641286
68.341229821316
68.3107248526785
68.3258538491806
68.340953635229
68.3554281819225
68.3684835492446
68.4221770139453
68.5220423283985
68.6462234082769
68.7941156786917
68.9834096897315
69.1918606546006
69.4216319468901
69.6930626040449
69.9896189209258
70.2718840584962
70.5546559202673
70.831703888252
71.1169288572758
71.3958151871325
71.6823512904216
71.9806837800437
72.2342389348578
72.487448113505
72.7502614550873
72.9871195713315
73.2192473281181
73.4365902292497
73.6353238515233
73.8036316461882
73.9533538629804
74.0913603242081
74.2324717961497
74.4057677923718
74.5807353716595
74.7411827390066
74.935833183813
75.158523354351
75.3832313524465
75.6023128839369
75.8164042725893
76.0178347331072
76.2181637379629
76.4455052258474
76.6755245138608
76.8778299958513
77.0870352414774
77.3073820107962
77.5226027046185
77.7309941799301
77.9581271601911
78.1703644050768
78.3664643923195
78.552953419807
78.7553955538146
78.9400236797869
79.0791466620985
79.220124017004
79.3732045665216
79.4689820450617
79.5784861328753
79.6690288054028
79.7554454068191
79.861598579356
79.9429252607751
80.018451623294
80.1429970956395
80.2734428757062
80.3944503557074
80.499114474042
80.615648036802
80.721222016267
80.7968552150456
80.8524341687855
80.9062520034041
80.9800996917625
81.0353701049896
81.0536281460504
81.125859426754
81.1683114228056
81.2236604192431
81.3119026550598
81.3495045962957
81.3794615065316
81.4245596209727
81.4179503379914
81.4095623493063
81.4110486700013
81.4208128427761
81.4438169232791
81.4880270136914
81.4895215535711
81.5009656105869
81.511941897337
81.4810213661052
81.4510758527958
81.470259615158
81.4646949427504
81.4713257216572
81.4349533115611
81.3602923189061
81.3132303633347
81.2564641172089
81.1696475133878
81.1241572337076
81.0429397712936
80.9708584052557
80.9119204826377
80.8659356012069
80.8438702052897
80.8491083754798
80.8160435103618
80.7242407096384
80.6574997314039
80.6116206487292
80.5620298129248
80.5063254917681
80.3849777785975
80.2799219468812
80.2561121271351
80.2112263186925
80.1071357212408
80.0444057761944
79.9895941637334
79.9330862309393
79.9162064871541
79.8511340814716
79.8089694572817
79.8024229326118
79.7190376196606
79.6739075084625
79.6339989284765
79.5819668800303
79.5082068914019
79.4242046121353
79.3506472234469
79.3060924787944
79.2479593625616
79.2130262517594
79.1863649229606
79.1932773068976
79.1935096174038
79.1916904979866
79.1629323422779
79.0798860731282
79.02083945377
78.9845763560595
78.9179207635311
78.8542925894671
78.8020298865778
78.750255893135
78.6944601479553
78.6223544396787
78.5426347235738
78.4897733527136
78.424111432165
78.3670205315018
78.3211865269124
78.3031324799413
78.2460722971232
78.1421432772519
78.046941442216
77.9933696626857
77.8989363261995
77.8075195788596
77.7427542667166
77.6188956568563
77.4928361018438
77.3957821204121
77.286535823309
77.2039420685091
77.1602331573732
77.1056972605002
76.9702667259054
76.7968289902347
76.6473698756858
76.5161856739301
76.3429382030402
76.1953247758596
76.09062247736
75.9726312713126
75.8369733914297
75.7500495916342
75.7029867088761
75.6653258859331
75.5661108803693
75.4590986016325
75.3960472821881
75.3385692095287
75.2461624995937
75.1549105865049
75.0529941529305
74.9683789803199
74.8668451950992
74.7816349412849
74.6378262047674
74.4057935328511
74.1626997954498
74.4321043397161
74.4333358897553
74.1875854064465
74.0745854681
73.9923983322845
73.8332019631208
73.7122447992102
73.6316765982119
73.5700747393156
73.4741133698468
