1798
3999.43349933624
650.420452594757
1
128
4
93.9380018504015
93.9474243082419
94.0108632683792
93.969953315043
93.9612412414301
94.0115487148924
93.98298155381
94.0747702457984
94.0481549977297
93.9493844193124
93.898393115983
93.9312115817355
93.9515035228105
94.030389517271
94.0903917406948
94.0223608639605
93.980676616247
94.0034687558292
94.0432147120352
94.1763727070109
94.1255271475605
94.1005700968751
94.1173486198869
94.1195194235804
94.0974745085921
94.0999848092539
93.9912734526252
94.0398794476377
94.124092415386
94.1694443875741
94.089494455903
94.0933627167379
94.0603406350901
94.1090481698802
94.2093701465427
94.1403171271286
93.9888919394534
93.9977472116396
94.1412215875775
94.1780869406725
94.0139418227583
94.043470323976
94.0814551952096
94.1513247145922
94.1310342448309
94.1516264780406
94.1772283571196
94.1138067569731
94.1041967017337
94.1656665400576
94.1276805596274
94.0131617783799
94.1427390315927
94.331019510435
94.2554041556669
94.1952233962881
94.1268715735733
94.1895532406079
94.2440372907702
94.329954718536
94.2868528019699
94.2197910327215
94.2604715990695
94.3157774276368
94.2655086283798
94.2821685798248
94.2852153261616
94.2687755315791
94.2223111388112
94.194805164621
94.1847887760132
94.3058193659929
94.3799407626668
94.3514208233715
94.2672653390653
94.2932758184347
94.3505885440394
94.3746985424348
94.0747783728532
94.1064160687549
94.3057355492904
94.3836890817648
94.4008028665019
94.3473992970282
94.2822757438978
94.340632182618
94.2053923718073
94.1146883489063
94.2205110284093
94.3577590672279
94.3145896715103
94.4240731527958
94.508032277412
94.4782512227965
94.4845131067544
94.3662286750475
94.2892936335549
94.3365915109709
94.3724516543329
94.533871214156
94.5405515610379
94.4419848758138
94.4258382271194
94.4971095377799
94.4377808235754
94.450229132786
94.3655921673456
94.3885193795375
94.4933230843739
94.5869996392945
94.518624055351
94.5176122289291
94.4950520695637
94.5162785544209
94.4288391955117
94.3708286594031
94.5041229782752
94.5667782042415
94.461082597655
94.5202111764984
94.5780652805951
94.5893043650974
94.5492176313908
94.5667508067815
94.5578102907906
94.5498400051503
94.5474809832699
94.5717476157297
94.7076725289146
94.7644088547905
94.5708386357176
94.5295759648861
94.5843249380551
94.6687547972196
94.6488122472218
94.7101436911144
94.6320956175021
94.5174005777995
94.6670153945134
94.844915394188
94.6917139050543
94.5560701298765
94.546740786081
94.4928425806397
94.4567184779463
94.6069968400625
94.7357079091359
94.8040851860059
94.6671130131497
94.615732556217
94.7281739109533
94.7444015693994
94.7484472615009
94.7841278982409
94.6914109545671
94.7356231642844
94.6649744297416
94.6023764549468
94.7129870117003
94.7955351255956
94.6014506460482
94.586578817143
94.6148129758942
94.6638389654025
94.701431251178
94.7850494095695
94.7293024459827
94.6539769736521
94.683572063167
94.8064161559964
94.7707890911938
94.7370758556577
94.7794959062944
94.7560328334309
94.4684615648341
94.4341672167066
94.4570614199091
94.4224517763903
94.3249983644252
94.3440755095586
94.3947031356597
94.4994346726873
94.6285744571406
94.5800611175905
94.3221712729709
94.3431496151912
94.3917378434755
94.1900707481957
93.8413570158347
93.8376241277438
93.9100292864213
93.8873408847232
93.831469725137
93.8500666680467
93.8238710337882
93.7920859022585
93.6632409540903
93.531058544857
93.341651398157
93.1538773378829
93.0931745506863
93.108326457589
93.1343822827574
93.1120260487145
92.8697369606013
92.8315604534838
92.8879701279431
92.8618782345507
92.6680058407037
92.5181854486879
92.4026562646299
92.3311684926163
92.3306394346617
92.3234513926808
92.0747584383522
91.8829550268036
91.8290015232026
91.9432805998342
91.845762465119
91.7466348100306
91.65713217566
91.50583467515
91.2805594296489
91.1763470438121
91.2534343335406
91.234391734562
91.0280629569209
90.928575670729
90.8317457638798
90.8260789282203
90.8557730960884
90.6746263938327
90.2707361436338
90.2633026445344
90.2951008389836
90.2672415302202
90.1810991621079
90.110847378725
90.0122564833143
89.8783911220529
89.7275917377469
89.6122534102607
89.4908301755516
89.4296037715438
89.4137663333111
89.3650022507882
89.2921889378875
89.2058726702557
89.0205142933362
89.0098468126429
88.9152778616416
88.8517360435932
88.8032551298368
88.6857687494046
88.4802456069171
88.4808528311604
88.3747858974757
88.3066863751474
88.1909122895849
88.1388619646671
88.0520390901344
88.00837318511
87.8390404381623
87.7399420428107
87.7070266214475
87.6157596894395
87.3906129236194
87.274338320149
87.1538259458517
87.1486649155118
87.1085938470722
87.1262953864576
87.0469183377967
86.8551278136076
86.7132057514017
86.6936083429755
86.6223208018499
86.5252931248106
86.3928490350268
86.4148352487762
86.3813567928992
86.322214862824
86.1153294034626
85.9512741293048
85.8468385262435
85.7783691572826
85.6511223600826
85.6458254968934
85.5706246826446
85.4506336811433
85.3564132178212
85.3382698966695
85.2796846026547
85.2351720657566
85.1325234682983
85.1249432576636
85.0820909578869
84.9170929877735
84.6863284846623
84.5843293130018
84.5896685305847
84.6363487423243
84.5169734656379
84.3238418788437
84.2864070334895
84.327971110916
84.2116663958919
84.1797285865266
84.0852452258404
83.962098736197
83.8720912753417
83.8979697961563
83.8095159900717
83.6649342580339
83.5513795490229
83.5346877921808
83.4943616475297
83.4160855491276
83.2667592702163
83.2011694296073
83.2043066825424
83.1709855238023
82.9724520163459
82.9058931712333
82.8733885558062
82.9482827130729
82.8924004344224
82.7805075691894
82.6696651459253
82.6319066228359
82.506142922706
82.5462021379813
82.5519290905237
82.4909894133484
82.4460178531787
82.3740488029462
82.2914072866777
82.2690556919717
82.1222155626284
82.0825221061786
82.0317155344311
82.0682806524114
81.9522999431601
81.8379194382748
81.8883384924637
81.8694289947235
81.7326910339389
81.7443739098705
81.7224628201805
81.6766885213396
81.6473049765752
81.6404432809798
81.6268331191608
81.6279468909363
81.5195925985405
81.4497440926371
81.4267950887334
81.4321962591326
81.3348905407498
81.3700615224445
81.4001922832476
81.4120763365131
81.344933585802
81.3472443758605
81.3169740616312
81.3021472190367
81.210315409803
81.1891381776495
81.1685152849257
81.1886499406183
81.1121196583936
81.1245389588071
81.1579675946197
81.1807051380881
81.1266994587307
81.0408941166688
80.941519008388
80.9800217281559
81.0332863334163
81.0429961040122
80.9771313408465
80.9742531012901
80.9484536647148
81.0063054486918
80.9898190807114
80.9643888990257
80.887319196222
80.8673096604962
80.8811058034111
80.9457031451282
80.9158347704016
80.8298786130438
80.7905553586077
80.7971647324578
80.8153323330663
80.8744600416956
80.8694562856176
80.8983924354359
80.8708828795621
80.9197755149878
80.9594655769393
80.8957261920884
80.7974806882891
80.91458713849
80.9264101626922
80.9636950946489
80.8768118284244
80.8809698678857
80.8834864798509
80.94671582623
81.0034579985596
81.0299604031498
81.0453900206481
81.0408154124781
80.9919098282887
81.0479744406388
81.0399593879904
81.1090393858717
81.1454405133417
81.1291166476069
81.0932286249416
81.1354447403334
81.072231241519
81.0658802614441
81.0343155572472
81.1126096326653
81.2429089491813
81.2692701903144
81.2235772566294
81.1915184239865
81.2649066141961
81.369333882421
81.3526756064691
81.4364380031973
81.4753625220811
81.5292701473057
81.5615139228921
81.5682404909917
81.5601454519104
81.6170859111639
81.655133017353
81.7256304206785
81.7736493878955
81.8656878905012
81.8624315742756
81.8551529171839
81.9080364355737
82.0255736393446
82.0224760899406
82.1629369073454
82.2355872308616
82.2878544183784
82.3539769595085
82.3960065628456
82.3717284213832
82.4500499565537
82.4739704556981
82.5104837792441
82.5330210094849
82.5930092466321
82.5979182827496
82.74004883271
82.7970542247666
82.8466136174077
82.863413381771
82.884931618455
82.8858653291496
82.9970261819166
83.085958412618
83.1986572736497
83.2813000143773
83.3752729168976
83.3743031741081
83.3925051734915
83.4519782276817
83.4566923419068
83.4051616516885
83.5128263186393
83.5264621459982
83.5354107955507
83.5412826621651
83.6886888950914
83.7670535950439
83.8201937105346
83.7821749018476
83.8024837413968
83.8421040083655
83.865924461865
83.8898746543578
83.9696319954387
84.0351413449091
84.1359117388526
84.1680861993403
84.1574026144725
84.1723485181265
84.1973041651375
84.1368472290564
84.1439087313443
84.1711996471909
84.3720432262613
84.4434459862904
84.4230319795363
84.4137798855152
84.4605843727475
84.4864189020155
84.5667051893016
84.5893961688948
84.6470397682679
84.6907756633182
84.6845940119577
84.7561526405057
84.9030504711096
84.9811438313303
85.0288531783006
85.0651747354811
85.1428585200414
85.1814191113358
85.214988966688
85.2065168450977
85.2494625459099
85.2846979795825
85.2642855935229
85.2701565389995
85.3930966074876
85.4365905957208
85.4968826828063
85.5176861204779
85.5935100292699
85.7019742098459
85.7773028555194
85.7700543504992
85.7339339343085
85.6515125514778
85.6312215645422
85.6642820565857
85.7759263674057
85.8371361256688
85.8745899154896
85.7973535786141
85.7831721338768
85.7905731044074
85.7843342803152
85.7802234592618
85.7829970708229
85.7845952691994
85.8052372564551
85.7545870793669
85.7626982040868
85.7364220120678
85.6841009746105
85.6828084755111
85.7074800373475
85.63273037485
85.5484938849611
85.495566300241
85.4768422317146
85.4549664394172
85.4394271256611
85.4319516625119
85.4589772011986
85.4437751867976
85.427502387047
85.4484822356048
85.4567438802935
85.4069790456694
85.4097185164374
85.396112448931
85.3739729799762
85.327789906548
85.2243628241332
85.1132014463955
85.1485934057831
85.1951981999393
85.2080522617875
85.1062123180378
85.0576618117587
85.1152961233952
85.1566796278571
85.170986332364
85.2338194333925
85.3139507953901
85.4401004495232
85.4891764738747
85.5108775274126
85.6015984080732
85.6981479197705
85.7676939340859
85.8879000092519
85.9415407323859
85.9395189958268
85.9351120492967
86.0469229347048
86.1181547776271
86.1573549873923
86.2053054760936
86.3119846509024
86.3350294075164
86.3603476491005
86.3407659958558
86.3355576796867
86.3660113316776
86.4651180633631
86.4747425738915
86.4381925631734
86.4981354761103
86.5721221667619
86.5920047707262
86.6607038438751
86.7006844135011
86.7749476112024
86.7818219267561
86.805566388762
86.9016605501275
86.9166318841469
86.8608459919742
86.9000301245263
86.9332704577158
86.9931752389247
87.0422695439697
87.1175092478747
87.1807026026459
87.2744747283107
87.402106673608
87.4844521253952
87.5241489256981
87.5590759987068
87.5762542780312
87.6651505239106
87.7160855448401
87.7396414844883
87.7641929037052
87.8149784026928
87.8430005772711
87.9415787396282
87.9939169347028
87.9997660831082
87.9879221795444
88.0889734589183
88.2091038098029
88.2187358964953
88.2086258024894
88.2903542186807
88.304500564731
88.3037607764405
88.3475627998058
88.3676809240949
88.4253155654215
88.4861435944884
88.4614650525452
88.5097182200605
88.5698106419468
88.6162075594015
88.6209459365133
88.5990138719591
88.6159233893375
88.6738223671331
88.6872273944434
88.7765982512544
88.7855506425779
88.7848721798261
88.8165987889349
88.8373098048557
88.7845066332059
88.7891329017103
88.8400740306201
88.8692995993792
88.917232397963
88.9573094783071
88.9489533869076
88.9756606669078
89.0161123185966
89.070412349008
89.1028517952287
89.1282676687828
89.1490093693388
89.1849073484643
89.1567774294108
89.1235754352501
89.1467563053147
89.2091636432789
89.2490366907123
89.2521429407925
89.2412693481607
89.294878105769
89.3774928976406
89.4193740252232
89.3862311252216
89.3794420490148
89.3924479471121
89.4115724074121
89.4546958870457
89.4920359424386
89.4975733853271
89.5190060034066
89.5665126546304
89.5954217228227
89.6088768587617
89.6378653054336
89.6200265514244
89.6032413071161
89.6125315537494
89.6242876417357
89.6611771029716
89.7127790152928
89.7547866832338
89.7964867738062
89.7628816784923
89.7364166545699
89.7557717947087
89.8176382855701
89.8731301354443
89.9066493327159
89.9011661142308
89.9193487973867
89.933566701791
89.9059047752333
89.9035771683597
89.9504433458722
89.9643284904838
89.9223618730074
89.9063576406263
89.9225732730462
89.9567544379867
90.0242465457012
90.0514568761058
90.0545315316861
90.0663659482954
90.0877776932225
90.1195342922539
90.1514782763025
90.1500801581653
90.1634798761933
90.279901556104
90.3505160816256
90.2624792196979
90.2648679395095
90.4148184701922
90.469638666003
90.3828510171856
90.3368109222908
90.4219323113927
90.4874421318654
90.5281382677134
90.57039753216
90.5805382938157
90.6446543166092
90.6490001330164
90.6820339629269
90.7278217211574
90.6574351610937
90.6895470038012
90.7979939271075
90.8294109438176
90.8215126921053
90.82984017396
90.9056207484768
90.9823754410285
90.9709117315068
90.9119066466304
91.0027270797632
91.0754923310395
91.1440318072329
91.146623632184
91.1568571612675
91.1238528673583
91.174223423158
91.1158068816688
91.1276793569979
91.2025328422524
91.2545995899753
91.2911661699861
91.278100830687
91.2866609022883
91.3280285383066
91.3600373305514
91.3569887077128
91.3376951479827
91.3891286563234
91.4441657913336
91.4167835252919
91.3952656274404
91.4808435364464
91.5867910120639
91.6355743059445
91.4781484640521
91.4586150140894
91.4899687548651
91.4941044410431
91.5141908413384
91.5489062278247
91.6120625747485
91.56580210642
91.5836903717809
91.6046658902003
91.5814080975682
91.6582277301641
91.665935374879
91.6330896401641
91.6579481153076
91.6318446541303
91.6021444079246
91.6545904331339
91.683557815611
91.6507175757385
91.6295345588502
91.6716380791668
91.7576267949275
91.8637239697323
91.8631435342976
91.8089476148268
91.7950494261423
91.7640877889096
91.7703861475335
91.7538183145142
91.6994247509928
91.871954187424
91.9849703366931
91.9240679309101
91.850474856079
91.8411516940201
91.8686570321197
91.8740484571846
91.7939159497984
91.8150965935417
91.8815159776778
91.8636629501121
91.9018842918206
91.9612749868076
91.9045667674195
91.8217863552298
91.8217720551008
91.9226021183425
91.9604410444927
92.0061378262571
91.9952917388866
91.9785864944834
92.0637573976908
92.0531170453124
91.9725862593468
91.9650676090927
91.9972444999535
92.0225736126044
92.0213939070862
91.9933010421407
92.006355895261
91.9811400104097
91.9802045441401
91.9964059884478
91.9649304167835
91.9736917890844
91.9738195108657
91.9752839310709
92.0799776983444
92.1221883622414
92.1285880930815
92.111883496537
92.0730473918014
92.0660219469089
92.0918107293964
92.0602021997739
92.0867191513509
92.1595775371865
92.1261592211274
92.0572980725617
92.0601914969711
92.0666780167657
92.0863518496291
92.1045031876312
92.0444146758947
91.9798205955101
92.0810540691797
92.1142609060717
92.0310090742035
92.0099428933903
92.0880468251057
92.125753087405
92.0846290149027
92.1532633403515
92.2120260003804
92.2471734522927
92.2112034994888
92.1649753490001
92.1725422207843
92.1965793780934
92.1915960471934
92.1482478716557
92.0698184431299
91.9779887297551
91.9614286859898
91.9564801273461
91.9635641166174
92.0501356537228
92.0546585427076
92.0339347171402
91.982369821743
91.9995937998226
92.0759384708362
92.0841049495856
91.9923685561726
91.8727946731692
91.8787289020788
91.8951007794233
91.9965667571936
92.0836201939783
92.1232951496731
92.1450436078591
92.1734789603579
92.1924828214054
92.1492018549907
92.136694261069
92.1891796254886
92.2453958721628
92.2394910244251
92.250058699648
92.2543302016743
92.2027067828518
92.3016812203374
92.4161966921278
92.4260335460108
92.4293730514447
92.416509903666
92.5285357937053
92.5707082096807
92.5555510602491
92.7246452818758
92.8690133650205
92.8867828033851
92.9409564113778
92.9596087970375
92.9621284017732
93.0745410590023
93.1440202340594
93.0524155561583
93.2125209035937
93.2481407839255
93.1555273830808
93.2827889105738
93.3650377789382
93.3694611767006
93.424210129271
93.4343159586007
93.5022290319937
93.6687401119414
93.7691707346295
93.8895761495879
93.8901011170606
93.6151998649334
93.6095555127895
93.738092403996
93.7954966296603
94.0686486203521
94.2737741377355
94.211373586419
94.2872909580228
94.2531042197573
94.2136731368488
94.4350750995371
94.4228411999623
94.4021942289171
94.4651485432832
94.5664249544659
94.5870457537735
94.4492500694271
94.4326775061308
94.7107287212777
94.8312562649837
95.1035775403326
95.327417857801
95.3398016804132
95.0072734592126
94.7926110755341
94.9707522343003
95.1243549406563
95.096117102396
95.4402143700785
95.7569223144228
95.6912096986603
95.5743685454224
95.594368258376
95.2964051597249
95.2378492276626
95.7526780745629
96.0731196811007
95.9126965621017
95.9605945814971
96.3784315361427
96.8970484194873
97.1233273089925
97.3497554772771
96.9594350591164
96.1345978069613
95.7927942272021
95.953611634719
95.9666477942689
95.9563216700498
95.8201402563086
95.2458029019418
94.9423621052926
95.0353990075183
95.0584807385191
95.0144116706491
94.7458185467307
94.7460723011766
94.5089517765535
94.2350225189418
94.2767520401148
94.3193134541009
94.2025906158467
94.1115841289274
94.0512765371188
94.1035628269817
94.0310408537288
93.8921825870554
93.8103237366652
93.9710821174987
94.1539805261386
94.1320235371405
94.0695153043842
94.0193194724688
93.9744478416431
93.9069954969982
93.9801895985584
94.2176465147755
94.2745881257666
94.3013901599045
94.3130368170692
94.3430944674065
94.2490889041608
94.0725905044344
94.2275543315559
94.5143845952579
94.4910869424467
94.4425274353254
94.5647595218105
94.6731017187469
94.6753359162395
94.5803270106827
94.485520642932
94.6708535860984
94.921003851503
95.0413787046435
95.0659616176701
95.1118400984758
95.1100222116548
95.2038362064016
95.4841663006927
95.9041414189238
96.0993801766216
95.9914351771044
95.7387866984032
95.7622917064067
95.7995354209501
96.0896803579006
96.9161966859094
97.2784287380348
97.1494811814829
96.9184582858817
96.7941083781972
97.0384159373105
97.1337870085923
97.0538848149954
96.896436393005
96.8238760202942
96.6590323089814
96.967751391656
97.1573858227367
96.8710047177081
96.7699766401198
96.6468032224319
96.5738578816516
96.4573860006906
96.6175150762387
96.5679357867028
96.4853448256843
96.6718433888365
96.3689758115663
96.0248776184768
95.9971010553986
96.0526716246579
95.9836553963916
96.2530922012553
96.3673753519822
96.4490551326417
96.5670853004645
96.6768252016135
96.7408264064916
96.5988316020798
96.6245479777774
96.7810500770481
96.8324920044078
96.4698254549551
96.0286777830493
95.9702705149053
95.9837845263048
96.1304671096185
95.9458447062235
95.8915762075681
95.7864802962805
95.6272743523053
95.6664278660826
95.6975098126304
95.4069983643339
95.4003394389034
95.4127485730704
95.3418663207571
95.2696713735444
95.1862059766431
95.2243730718244
95.3094973902743
95.2320520657496
95.1008943190743
94.9539072909205
94.8606353167433
94.8956739839921
94.9274138094639
94.8603721812031
94.819521915318
94.8093651399302
94.8495724525111
94.7264554198645
94.6354546460368
94.6584255029421
94.779070284968
94.6770784354393
94.6042627665659
94.6047067046013
94.6338558936045
94.6920245846046
94.6937962855165
94.6515854024977
94.6756208625595
94.6373093515804
94.5854034541307
94.6435015044653
94.6850742869332
94.6349720267533
94.57695464898
94.5404797494813
94.5981357542149
94.6345250198617
94.651630415106
94.5898221458789
94.6153808335584
94.6079493462721
94.5669201190266
94.5435920549299
94.5796354488492
94.6302391869754
94.611650323816
94.5454784821267
94.5521173211432
94.5879003301333
94.572955708133
94.6009531508358
94.6352774491539
94.6228088417297
94.652441470815
94.6564031560289
94.6919456377846
94.7050186773558
94.6428739627871
94.6041062108704
94.62695067644
94.5916129555803
94.5897375076129
94.6771357826116
94.7502595472836
94.7140306032533
94.6836098916683
94.6662695147068
94.6559618259446
94.6584501688866
94.6772979331961
94.6729260057888
94.6645972768998
94.5912545091103
94.548998020455
94.5528797540145
94.5826472253286
94.5807635554682
94.5579001612924
94.5126236942099
94.5222722515128
94.4918395021801
94.3997100855958
94.359766561963
94.4194597226738
94.3868501421268
94.2863885869468
94.1817924988688
94.0841286205182
94.025664961792
93.9409330909163
93.8467446848848
93.7690450336398
93.6611450036858
93.6186976196425
93.5578875340274
93.4486978091053
93.3390446038024
93.2352840239221
93.1122532726247
93.0649583031435
92.9947678597191
92.8578617011968
92.7225596394613
92.6017469662522
92.4560233517411
92.3259563957876
92.2004237737765
92.0858418755448
91.9794481022975
91.8174241731223
91.6439980272964
91.5928578711833
91.3943219905882
91.1455274160283
91.068840318073
90.9989150302257
90.8177803302294
90.6232348017387
90.3869713355441
90.2014284901029
90.0283098050513
89.7646474847645
89.501539149255
89.42901400722
89.3524299884697
89.1870643587471
88.957693444706
88.7304717272037
88.4167279339011
88.2656911343625
87.987761485269
87.5153812934854
87.3377764642236
87.056458522072
86.7300919710978
86.5034129757566
86.1060782577881
85.719401407893
85.3741237738658
84.8311071064129
84.3913258183261
84.1999485139866
83.8374273727592
83.4139950445886
82.872414960338
82.4346954324183
82.0809255179936
81.5976466247487
81.1420835870334
80.8362366642534
80.4471290369704
79.9279158740315
79.5149938468671
79.1583633296465
78.7742897685214
78.2898812751984
77.5710546269434
77.5431855551707
77.5063874147886
77.0461704807769
76.6071368433656
76.517237046056
76.2924210265826
75.9707401155911
75.6476664759518
75.2329062890384
75.040275083787
75.1001129836692
75.004327295983
74.7077143608957
74.4449757072556
74.3227815097344
74.163972650638
74.0855308144067
73.9624538318348
73.6465494827017
73.3918610836339
73.368323580968
73.2316197966203
73.0179227207977
72.774691930678
72.6114543453015
72.4284902803094
72.2300740764056
72.0362464156612
71.8640320141995
71.6826197015241
71.5162815003394
71.3801132960327
71.3054062003058
71.2206215804699
71.1440364059708
71.0679691652477
71.0409719930932
71.0170482438127
70.9821855458438
70.8288935224394
70.6299098471384
70.797814827603
71.0402379986533
70.9491973485223
70.8850901699439
71.0346764714767
71.1024460011041
71.0830496484685
70.8842875637664
70.2683471511043
70.7614702545255
71.5865764085255
71.7764764791685
71.7947132185019
71.8034073713977
71.9633425659018
72.0761099395176
72.0504079407635
72.1639601765241
72.2764572411081
73.0011703141985
73.8524860202099
73.9947031278267
73.9758087633769
74.4796688282635
74.8679846246425
75.0058124246585
75.187741415819
75.558640795
75.7024792397661
76.1488509958962
76.6491756460476
76.8688390088019
77.2397750205259
77.4939963877052
77.582373225683
77.5334221061621
77.4109950201909
78.3405057659842
79.2165421678457
79.3834870757368
79.3246610105827
79.4070547685808
79.8002294121428
80.356085741222
80.5750263479053
80.561821640539
80.8498412158457
81.3571942024722
81.6909939664037
81.8094237807782
81.8756838290824
81.9813615459218
81.9485081106094
81.8021874361525
81.6039335307866
81.4898177233825
81.5825776390578
81.4397455850224
81.0252383089315
80.5971645566999
80.4358836567186
80.2436805874228
79.8269523699142
79.2981991404677
79.4052732651022
79.516775656682
79.3018929497058
78.9847465695179
78.756530489188
78.6854685771232
78.6080420139182
78.4424553605469
78.2607055794757
78.0003093586277
77.6994857323937
77.7126569795991
77.6296904912266
77.2882283280511
76.9247936878559
76.6417415539564
76.3020052178312
75.9514538152937
75.6624742857109
75.2478253012035
74.9244914173931
74.8261694927268
74.6331160485295
74.3347668792213
74.0795403878946
73.9343742937217
73.7602732182051
73.5790320898759
73.5330695930481
73.4522663474873
73.3028547487248
73.3012264173712
73.2881773078127
73.3331257927885
73.428995860007
73.3793305108999
73.2310434508292
73.2323277541472
73.3753389887112
73.4195717361835
73.4095842728231
73.4211254042889
73.482679492272
73.5211639283201
73.6820691816739
73.9095924229668
74.0159358424526
74.1475098323431
74.3418133095789
74.4380712597024
74.627509120822
74.9572031291476
75.1744511409693
75.2958599839099
75.4325674594838
75.6347856702489
75.8186697015353
75.9841022908876
76.153166386959
76.308073962958
76.4619408655118
76.5507120307996
76.6376978600402
76.861280937151
77.0856696035041
77.225383322226
77.3101360785824
77.3956640511555
77.4885510091735
77.5745694009953
77.6688884775527
77.7477001079053
77.8185282176463
77.8978755399296
77.9922160642936
78.0693175536044
78.130120418357
78.2229965618789
78.2863448069239
78.3529879647119
78.4484445876827
78.5344855108563
78.6115134873825
78.7101631459877
78.8080957526963
78.8880884544846
78.9626387390805
79.0319425016494
79.0958646944017
79.1518555902989
79.1775420752354
79.2106000141106
79.2384957500519
79.2661100391693
79.262222666754
79.2219618189175
79.192565618593
79.1786665329545
79.1208120785097
79.042423268668
78.9670180054032
78.8857850294906
78.8095870730844
78.7379793347555
78.6489077667327
78.5831938062221
78.5428405203223
78.501907979283
78.453665685636
78.3736015546275
78.3004327354559
78.2731636562254
78.231467527915
78.1937090670379
78.1587972981792
78.1036544913076
78.0619566324559
78.0610373040862
78.0687511488026
78.0868660924193
78.1291046271336
78.1669553090413
78.1952149379387
78.2453208325994
78.3109379415996
78.3788461538258
78.4496809576855
78.5339355777718
78.6121859232104
78.6802129324735
78.769694845076
78.8962410544383
79.0395187213256
79.1570586344881
79.2255509078658
79.306427212458
79.4089434094744
79.529411900627
79.6666704499045
79.7696016268777
79.8608385310594
79.9608226180864
80.0359287825512
80.1098799887107
80.1345257255466
80.0994007640332
80.064421696414
80.0192955249305
79.9535491766451
79.8744493539564
79.7860922426665
79.7041556924952
79.6321747110867
79.5560448559467
79.4829325104066
79.388686994789
79.2604157602723
79.1363544145188
79.0115294398551
78.8688963071635
78.7447440192276
78.6429790217444
78.527140390797
78.3855569074577
78.2417266921657
78.1060208280362
77.9731573086255
77.8016947829086
77.6290372570791
77.4558263104055
77.2252548323318
76.985776056872
76.6941842417356
76.3612960735263
76.0500124500618
75.7607077413802
75.4860687928114
75.2350907287073
75.0200844925906
74.8464098184997
74.7014533514727
74.5584732828047
74.425485076158
74.3053511751797
74.1626331981086
73.9930472067751
73.850569352985
73.687569993808
73.4989404905966
73.3142632761788
73.0907174540427
72.8447262713906
72.6078904716579
72.3489658581812
72.0352289440425
71.7377555258726
71.4363544524585
71.1332112896201
70.8443164691315
70.5768983273948
70.3015656661022
70.042143580465
69.8048217620737
69.569876667085
69.3283338249814
69.1301465139716
68.9560391729549
68.7950843498479
68.6237458976821
68.4764577909799
68.3241291394881
68.1713306748676
68.0282768352725
67.8665374209949
67.6800769552207
67.5313783342928
67.3987812592841
67.2681852884707
67.1168907570421
66.9616476097793
66.8187513140756
66.7164022892522
66.6160105033153
66.5553587637543
66.5043384047273
66.480835010881
66.4980936220349
66.5328751974582
66.5762637364355
66.6247109577141
66.7071197577164
66.8084608918866
66.8946305513297
67.0168670273612
67.1931090544871
67.3980583273187
67.6311065605373
67.8661200923163
68.1064022658728
68.3807665044648
68.6914200651421
69.0105385159745
69.2874565078109
69.5459867660687
69.8273160017149
70.1185570473628
70.3878886647951
70.6862479454487
70.9784250463905
71.2315151739694
71.4846437820896
71.7712562891373
72.0281729933066
72.2390463250513
72.4288402053606
72.6349631037466
72.8513864978689
73.047397384111
73.228910829625
73.4402691492338
73.6496297895087
73.8607201183847
74.0788334715858
74.3078493897093
74.5116931934689
74.7162047950161
74.9084637128606
75.1163038029534
75.3411552351162
75.5479427795967
75.7504895345476
75.9603654331511
76.1229901980045
76.3169639440989
76.5334914475466
76.7276054290063
76.9186735966472
77.1289387796115
77.3232040076104
77.5010380823809
77.6543939139328
77.803689723999
77.9413501351519
78.0555689049034
78.1797095070917
78.301200496422
78.399719156373
78.5427660211001
78.6511092597314
78.7305944245769
78.7965957913366
78.8918153105867
79.0126838785069
79.1237014367248
79.2065217044657
79.2850587671159
79.346984134449
79.4178225531073
79.4739532932146
79.5227317129428
79.5592744666314
79.598277023617
79.6441869537762
79.6843238525992
79.6737027012806
79.6947032982751
79.7604699411754
79.7839378521352
79.7828964454012
79.7694275409015
79.7175108201031
79.7412708973334
79.8002162448941
79.8286084693426
79.8371291403836
79.8448213550175
79.8258537243889
79.8056158358574
79.7996936452604
79.7809739662164
79.7814310455003
79.7761754026938
79.7303000651473
79.6998069606433
79.6414154605259
79.5572994474563
79.4965205836109
79.4160390528256
79.3120649963999
79.2359346918299
79.1691665960907
79.0877674419254
78.9875691739796
78.8822022648862
78.8088132032879
78.7595997779893
78.6387747673356
78.5185200204495
78.4474525779795
78.3687531153044
78.2584736496926
78.161420474513
78.0594309869886
78.0210274012913
77.9223213188478
77.7582161141725
77.6348923535251
77.5700313710544
77.4853228759929
77.4053993491789
77.3380130141315
77.2636571803369
77.1720206537594
77.0601670280767
76.9152866043292
76.8491595785719
76.8156467245911
76.7283419551578
76.6214219169535
76.5909869361887
76.5480443520817
76.4925877874111
76.414045440828
76.3127980469948
76.2455479619696
76.2498512267236
76.2109411813908
76.1266691330307
76.0463538431547
75.9875727681106
75.9141411248678
75.8628485282966
75.7877452492353
75.7112192006921
75.6435574457302
75.5395237916439
75.4258920851727
75.3795269181104
75.3677195379921
75.3020706997671
75.1810661742647
75.0397403859472
74.9541602200505
74.917522367025
74.8665376863429
74.80150789982
74.6546438470985
74.5259428701052
74.4495406993591
74.3647875695857
74.2167517221559
74.075083865885
73.9617930844373
73.8740065407003
73.7447435120747
73.6465684232465
73.4816516789265
73.3318685862553
73.2305150099522
73.1279974747116
72.9529786803526
72.7938376136369
72.6709700406899
72.5375179679614
72.3158443908014
72.1930747798832
72.0764030454086
71.9505698806508
71.8450090062936
71.7455543143815
71.6430989159068
71.5446215642398
71.4122464894616
71.2912209412883
71.2247764677118
71.1211007992367
70.9889419598354
70.8991284189136
70.7171257735921
70.5176781585609
70.4198488420228
70.3509074007355
70.1472784010764
70.1357636891086
70.073224957222
69.9252729668248
69.8007468926351
69.6815898352247
69.5117195876902
69.3445503526947
69.2029816935437
69.1211286237749
69.004534929665
