1798
3999.43349933624
650.420452594757
1
128
4
94.167845083823
94.2318673571166
94.2777291874473
94.2253793550068
94.0584714211109
94.0133284823466
94.1297969699404
94.1523694778355
94.1427231071202
94.2141760863566
94.2351620824587
94.2246410886149
94.1812543548943
94.1807880466715
94.1689772862455
94.2533916625829
94.2973244302167
94.2191507089178
94.057250279524
94.0340042798159
94.1174439182658
94.169587243252
94.1797114152606
94.2282303784934
94.1776916163212
94.0885271457433
94.1323839533473
94.1883619801768
94.1121898089978
94.1931815145165
94.2447520148425
94.1641220656172
94.1585713278607
94.1755451929961
94.1659916694978
94.2580622355669
94.2917406132783
94.2042755184081
94.1826306269626
94.2931081248189
94.3178053829438
94.2858689223078
94.2797300563686
94.2491196509522
94.1689655040205
94.0903024934705
94.0845919284856
94.1953178864703
94.2720518224536
94.3105225530544
94.2662282295318
94.1579103272779
94.0976086789959
94.138511113166
94.1932665049885
94.2729930041546
94.3207989825432
94.3842996553587
94.357893972144
94.2500405370786
94.2807664676854
94.4676758226187
94.4127936946242
94.290435600842
94.2549738133548
94.2099940645078
94.2500545624832
94.3414791252408
94.262023574256
94.2206698743395
94.2930244960475
94.3628525754438
94.3525275231577
94.3610874751952
94.3139800952271
94.2570996257101
94.2881190661985
94.4473906235905
94.4387429697734
94.1797034851228
94.2219096424694
94.4269001951942
94.4542584182507
94.4163056341408
94.4050779924633
94.5175208609429
94.5242474080002
94.4141615406709
94.37493935953
94.3905074284227
94.4032662417865
94.3794925959398
94.439851072882
94.4645813803207
94.353339338569
94.4119621766012
94.4691375031164
94.3957171044557
94.4334405888583
94.4717275727222
94.4481942862209
94.4457741666083
94.480339547747
94.5714208055235
94.5617201449958
94.5393598946355
94.4548858546536
94.3624427854534
94.3377487106473
94.4492743391115
94.5264386791338
94.574447052984
94.6141114648356
94.6284394993043
94.547378949175
94.4272876916968
94.3814180060105
94.4363139112717
94.4498135153324
94.4651954694208
94.5318367714793
94.6243527915839
94.6070424365991
94.5402242134258
94.5011280532196
94.5619587884405
94.6244452660044
94.5929243032201
94.6764140600303
94.7126799800011
94.603247267624
94.5240460585658
94.5068931591687
94.5747015412781
94.7209402085106
94.7386961847216
94.6468033871089
94.7081349736069
94.6660908280662
94.5925548538699
94.6446279271486
94.7804082822902
94.7155197978211
94.6785751542125
94.6916006840119
94.6717885198849
94.6316143414509
94.5792548755425
94.5862079498843
94.6383938383489
94.6945141103982
94.8228574228195
94.8572639974609
94.8870203892953
94.7605617213307
94.6194279818952
94.6251460876754
94.7409315252379
94.7579051380423
94.7871536893435
94.8106462745774
94.7987372141055
94.7524785860572
94.7772113416582
94.850992686412
94.7656021763928
94.5958185052175
94.6227574831059
94.7094497106768
94.772752521403
94.8555247824252
94.8522280625942
94.751129192161
94.7577132577931
94.716065281665
94.6402542543525
94.6879206744726
94.7208867302468
94.6193291543352
94.6260865032484
94.687568367118
94.6796478349477
94.6603962790314
94.5798990504886
94.5458048433234
94.6330826929128
94.644403438609
94.5642260664482
94.4518624351089
94.5029025383272
94.4258067025883
94.2915233574665
94.3079051185962
94.348174282942
94.2863233862727
94.2880593452644
94.2701318785284
94.1958799120988
94.0601106618796
94.0697100345863
94.0753074383009
94.025623581038
94.0064310458847
93.9877063868311
93.8237438157148
93.7353584841126
93.7962109489511
93.823816033378
93.6187906495002
93.4066306611461
93.4086234664537
93.4895499608531
93.5363500483066
93.5057884883656
93.3980988943492
93.3755957700588
93.3155690795901
93.2345147871404
93.2082451775223
93.1468464630749
93.1459484789711
93.118953378185
92.9796757037591
92.9146625617406
92.886622409098
92.8481818232009
92.7586481054074
92.722367269411
92.6308242979077
92.5580940377592
92.5917499473773
92.582736055794
92.4420782266877
92.3162634694468
92.3010552128974
92.3066738245446
92.2299461430075
92.148581059456
92.077327463073
92.1148646838132
92.0872742997505
91.9551355700357
91.9547839428428
91.927268025551
91.7270646024331
91.6953829844678
91.721667350238
91.667268657214
91.5672900288552
91.510500898846
91.5065536949161
91.4236912602627
91.2686534613681
91.2995937737137
91.3112186349892
91.156317919349
90.9693444674633
90.9497197287509
90.9769118587676
90.9684309232404
90.8792339356299
90.7870412912109
90.695033030324
90.6116252039294
90.5547338404041
90.5227101000095
90.4157908350077
90.3610750039191
90.3067061014081
90.2305343660856
90.2343081431296
90.151114543973
90.0262377076808
90.0371322570486
90.0275881661124
90.0368373014597
89.8942660551542
89.6947926625044
89.6803273051734
89.6820391028912
89.5690041765624
89.5499009256577
89.4727639307938
89.4791107912713
89.4613571435143
89.4353752494618
89.3589382939718
89.160820920281
89.147045501308
89.180202322087
88.9918663152095
88.8826136264222
88.828346242229
88.8630897235143
88.8951825498851
88.8742928608958
88.6632914635235
88.5416436514986
88.5214831651857
88.4744847699617
88.4470687161384
88.4907260739638
88.4068170301833
88.2565858035313
88.237990614443
88.3689072409621
88.2909787925937
88.1349382681903
87.9615513048249
87.9098927406472
87.9355198495151
87.8998987064398
87.8238608802297
87.7762247453945
87.6923577448924
87.6966518466161
87.677987632617
87.5808778936849
87.494354004812
87.4974809251782
87.4440131670558
87.3663162102535
87.3017451697559
87.2782975439792
87.2391593903828
87.1875587569674
87.1034179214771
87.0876278121124
87.1371061828063
87.1251449724458
86.9510578030965
86.8648283632388
86.9384051962874
86.9071692195448
86.7741029326529
86.7607833449607
86.7377271787171
86.7038322710559
86.662476702103
86.6399122980888
86.575626155009
86.541115112263
86.5436634710572
86.4755261028848
86.4599073839404
86.5165008773519
86.4452778039541
86.4368354869613
86.4136843083632
86.3621910171508
86.3526467659343
86.2901115315008
86.2235630755961
86.2645340428038
86.2668627752955
86.2040513492023
86.157682749592
86.114273459977
86.1060814561169
86.1220831373143
86.0999263560278
86.1578463554086
86.1300709019466
86.0517019528802
85.9771832519486
85.9719648027983
85.9873526980653
86.0193317398124
85.9198004837247
85.9197063919851
86.0642595169763
86.011629400816
85.8879059872327
85.9276723159808
85.9208579756891
85.8536373648881
85.8579887757159
85.9466148386616
85.948097334017
85.9251317605667
85.9008557969998
85.9161464387569
85.8631977913665
85.8186391077894
85.7380077375128
85.7637742358588
85.7537655114064
85.7239715409011
85.7259712527487
85.8143260605167
85.8578406191329
85.8220732174088
85.7735388062298
85.7492246070393
85.6761414241921
85.7234418809342
85.8100775139548
85.782959155845
85.7220245272581
85.7854399443597
85.8302174099818
85.817483512189
85.7418065087543
85.7442459265533
85.8332584870204
85.8403796752966
85.816081331224
85.8882366296133
85.9278324318521
85.8461672345053
85.7478784140801
85.8063981250556
85.8902089455039
85.8880450822979
85.8777502650859
85.908145823777
85.876285124106
85.8589481126551
85.8603291136623
85.9166494228469
85.928214762805
85.9171655520221
85.8814132245096
85.8583005575907
85.9001660671949
86.0365811466658
86.0959855078781
86.0827776265844
86.0834238342218
86.1134349876358
86.0904015025915
86.1104015986265
86.1072217763194
86.1001474242284
86.1043794980052
86.2516876770079
86.277141433576
86.2043302520838
86.2576409640798
86.3394241031737
86.3106335954134
86.3117858888516
86.35447415476
86.3479897866212
86.3808854403373
86.4541894085312
86.4039151575147
86.3848219447971
86.4674767045733
86.555579468174
86.5995381722556
86.5906483763538
86.5917008391199
86.7106173482237
86.8195389673918
86.8440792313888
86.7775996984599
86.7728702952899
86.8120346631959
86.8733298421613
86.9775367865191
87.0504236341263
86.993803754994
86.991123145392
87.035648724985
87.0768659616802
87.1297068046679
87.1953108829462
87.1572811647451
87.1988052015142
87.2254502526773
87.2772468101373
87.3830170245758
87.4302235183916
87.4220391086961
87.4423108968317
87.480667767728
87.4949137426797
87.5222767839457
87.6133305716929
87.5791324333128
87.554312116622
87.6182462059822
87.6547243692094
87.6612225156949
87.7075547731788
87.7088612339728
87.6594306911592
87.6382752946785
87.7422345485576
87.8079890092883
87.8265119679402
87.8397988585069
87.8840875698911
87.9418399455803
87.9262164487174
87.8480462098407
87.9302205732253
88.0485001503109
88.0707504768266
88.0342812381244
88.0646964585478
88.0725949023728
87.9989497582143
88.0201733558764
88.1393569903028
88.1756710470556
88.3029643180827
88.3169058275897
88.242517580165
88.2822432932497
88.3845500935177
88.3927909433519
88.4145539921038
88.4565980140554
88.4903859352082
88.4875081542486
88.5278783829453
88.5286366531251
88.564917139979
88.634731640471
88.6727067997311
88.6917379575618
88.7321383407833
88.7292807109569
88.6924971362218
88.7068004749551
88.7916424668061
88.8503771189363
88.9090792366905
88.9463052682722
88.950542421907
88.8649623596049
88.8359287286088
88.8385921259365
88.8812713184369
88.9505025558229
88.978069741306
88.9603762182591
89.0059593744493
89.0112648962052
88.9377702536183
88.9133002284293
88.9774847994111
89.0032368428577
88.9834847308841
88.9547312298847
88.9238245728591
88.8294766695346
88.7619876131033
88.7190688410429
88.7303113147576
88.7228115992726
88.6694777398748
88.5949543198205
88.5594268480128
88.550431045833
88.57800463519
88.5713822368166
88.5600216528627
88.5118607277338
88.5332857216601
88.5423382655392
88.5051245793366
88.461727432012
88.4613225431947
88.4105294904835
88.3863207192382
88.4281840920138
88.4161342498166
88.3129558297708
88.2056064595497
88.145562284239
88.1645472613256
88.2208121153522
88.2997660195086
88.2583154853007
88.2125758598065
88.2444865256715
88.3126965936815
88.3576727880921
88.402864337449
88.4981869419194
88.5588534573082
88.5609154767051
88.6021347068709
88.6575215631689
88.7301201813798
88.7545320721088
88.7631315734659
88.7589238256676
88.8258880394333
88.945480576058
88.9862178508627
88.9759581962061
88.9960057272214
89.0062836204832
89.0558369961051
89.127611525942
89.1399122293679
89.0539218253673
89.0726670187798
89.1160942695433
89.1554440982821
89.2062926290965
89.2409253009915
89.2315237780484
89.2414078033018
89.2875282981727
89.3036367870226
89.3153431741724
89.3783451417286
89.4381026019764
89.4747752210474
89.4637827417484
89.4994130588115
89.4995303251042
89.5078899629133
89.5959430261647
89.6528731776312
89.6161949509389
89.6492960706366
89.7406788536115
89.8286378804741
89.8686864851866
89.9437678369653
89.9635138564106
89.9325492796828
89.9576726250767
90.0493580485677
90.0883495953669
90.0833020689442
90.1132174226842
90.1577230611217
90.1810689690409
90.187239434968
90.223612360483
90.2468340390121
90.2779120756764
90.3528513328994
90.3607689153976
90.3567546031715
90.3481485780993
90.3896851173641
90.4321648519251
90.4758428597025
90.5110139282913
90.5213641552513
90.5708054178403
90.6122782903262
90.5895376866197
90.5748336648792
90.5718635315236
90.6289201095768
90.669487471391
90.6719633559487
90.6747970383813
90.6937435125049
90.7250159045182
90.7981111318262
90.8431912107912
90.7956353767518
90.7189818806833
90.7306227903171
90.8054889507152
90.8357831149917
90.8618318683261
90.9046641502747
90.903842708199
90.878814246411
90.8847912062387
90.9199857741203
90.9731004350976
90.991927230581
90.9600327095065
90.969010774924
91.0023462116438
91.013835566207
90.9775490164379
90.9789233134641
91.0441620208215
91.0594919912561
91.0570456387804
91.1333675565254
91.1377062725764
91.1186786847932
91.0910467257098
91.1155386597079
91.2051120670656
91.2357631638977
91.2436669119993
91.2437458500677
91.2025194451964
91.2039501516861
91.2547732308429
91.2965150517972
91.284593666695
91.2702598228133
91.3159926924324
91.367061005482
91.3433049868919
91.338616096552
91.3697751653095
91.3825015474536
91.3982790224241
91.4251273420801
91.4029052941261
91.3826207602086
91.4180803118643
91.4430613973376
91.4345316094845
91.4530026458388
91.5008706418533
91.5414075817502
91.5411927171899
91.5282354026495
91.540910865845
91.5332225922589
91.5417086044493
91.5879949025941
91.5765435920474
91.5209288786447
91.5014419457268
91.5384351400212
91.5757833782157
91.57422837019
91.5604400504744
91.5863028243055
91.6016291185812
91.6082533321645
91.6742758950849
91.734996404626
91.7707541724857
91.7472996244555
91.7033373973446
91.7175013793759
91.8011391146815
91.8421389812579
91.8513995339946
91.8811963339483
91.9325191338575
91.9562737844888
91.9734354746551
91.9644528094093
91.9333598579613
91.9664002762785
92.031877832377
92.0291587866939
92.0262795434371
92.1381758236233
92.1760048926595
92.133040033182
92.1169802793089
92.1375669554181
92.1680820270878
92.2318769058403
92.2552014542248
92.2735932387878
92.253284840515
92.2527959192377
92.3267048164096
92.3104403199832
92.3142344411439
92.3923229889618
92.4328515698234
92.448532223831
92.4263165815499
92.3939748979398
92.411351223967
92.4747779862635
92.5072772694248
92.5475826643487
92.5927386988594
92.5922789608645
92.5596498870064
92.6014272360739
92.6632132411923
92.5802110974483
92.4952895298917
92.5534723010731
92.6103282675851
92.6116003224955
92.6121298715565
92.6116254561668
92.6099656677055
92.580783154637
92.5907516429204
92.6608868344498
92.6976646155979
92.6490051313381
92.6081978353217
92.6720136527377
92.7670583280664
92.8476390623369
92.8540182687157
92.8267177814408
92.8015480497648
92.7683092101077
92.8142278979774
92.8689032276702
92.8852050178591
92.8546371009488
92.7629650364753
92.7184405705132
92.8038957345471
92.8871800148031
92.8097531523957
92.8003257419635
92.9176967297918
92.9187582185247
92.8486996723843
92.8638989816438
92.8553753701327
92.8336386818695
92.8783641745688
92.9030835480394
92.8912378048486
92.8373628538201
92.8414807293132
92.9203476671793
92.9421194515799
92.8632507674735
92.904354137028
93.0090776710803
92.9195954477421
92.9219888926824
93.0521780905019
93.0338545673732
92.9229925474584
92.8481289438003
92.9310605446243
92.9930908727973
92.9842534851641
93.001659306744
93.0147030211639
92.9921746775184
93.024299230817
93.0456169356314
93.0256944729385
92.9956771664021
93.0293202011315
93.0068020087272
92.9620525890597
93.0206988173271
93.0695848303886
93.0630665344702
93.112214341481
93.1309287385416
93.1256083829287
93.1648848520829
93.1179580407591
93.0876322172359
93.0547796442604
93.0298368724444
93.0138154740645
93.0251723796834
93.135421328861
93.2035596957107
93.2089607431012
93.1818325539225
93.1858147034581
93.1477695009223
93.0958659256204
93.085747055257
93.1260522056838
93.1324511622029
93.1518024900643
93.1308171044092
93.0418506248802
93.0281541750379
93.0714904213976
93.0898421077659
93.0573658722316
93.0092079973995
93.0533100163666
93.1283655339203
93.2112209994984
93.2317378879182
93.1847740099199
93.2154679243495
93.2832709711217
93.3077246354861
93.3452105623408
93.3507478090654
93.2917298415607
93.1488004994369
93.083969948826
93.1457326520896
93.1657693413803
93.0901342547372
93.0885199328371
93.0757408847984
93.0379442662546
93.0423587829703
93.0429205648882
93.0557928010784
93.0958520368132
93.1333614671655
93.0913401687788
93.0138604985912
92.9653557990173
92.9775581873019
93.0533417515562
93.1174830237753
93.1883751381424
93.2656162227747
93.2321549231731
93.1216622581464
93.1633233070172
93.3155149949883
93.2942353947554
93.2322603411379
93.2754787253184
93.2811256071441
93.2577264002639
93.2534163526601
93.3286412887777
93.4341255213033
93.4795734082953
93.4862632159965
93.4778185855625
93.5434735377519
93.6897232374616
93.829842524185
93.7426241735772
93.6650379474105
93.8323099427317
94.0184405719755
94.0875819390095
94.0229004938065
93.938283809732
93.9831045890594
94.052353496732
94.1501922466176
94.2092835931714
94.2986733515738
94.4835117808861
94.3784614786812
94.2592232069042
94.4040906712258
94.4987433107278
94.4624089073812
94.6660514072863
94.7718650998316
94.6445695558231
94.6358787535297
94.6780722253138
94.6705363574881
94.8182588020679
94.8531987158137
94.8152170775643
94.9145654227478
95.0738784564493
94.9989250498673
94.8322104726433
94.9229093102637
95.2376577375358
95.4571646214228
95.4354504246351
95.4635133418973
95.5337029580852
95.2385075493321
95.1182085358412
95.3435984793882
95.4769634995707
95.660860793742
96.0779286172645
96.1004377583927
95.7479493025321
95.7292385741894
95.7970983340258
95.7099352649893
95.8654116474765
96.0597728849749
96.0508113697451
96.1839665518162
96.605152737617
96.5490365296079
96.34376625353
96.6323065993081
96.5983364278931
95.923641965904
96.036684663747
96.6036556589856
96.7189126916075
97.3137318457849
98.0169148617131
97.9888309486442
97.8859328554386
97.821714258455
97.2064204314705
96.7097927342262
96.574191099736
96.2954944072161
96.0951638812232
96.0128855239659
96.1377656464954
96.0722576405761
96.0505753315974
95.9382736069883
95.652180203804
95.6451637091068
95.6054488805541
95.405546798432
95.3504968807357
95.160799081662
94.9607912021826
94.9689654122126
95.000428064491
94.8746643381738
94.8029548740164
94.6873658223244
94.6962771693542
94.7903113967962
94.8450859962159
94.6715597878196
94.8311874982572
94.983543890987
94.9136715129573
94.8044586367985
94.8325982625916
94.9991140019473
95.0776817575771
95.0336548483129
94.9179033579128
94.8845550093803
95.0434876601091
95.2398429625031
95.2546003692809
95.1648489327573
95.25108011567
95.1816478768935
95.0658585165705
95.0505751836771
95.2376382504224
95.4656469639268
95.6239318083638
95.4792618695892
95.3884485833706
95.4268000258749
95.5233870695331
95.6973410442278
95.7769477194353
95.8738825461164
96.1168350172518
96.0365564108147
96.052964961809
96.1815778779749
96.5300018713133
96.9189793725173
97.0043323718265
97.0189001793428
97.243139771008
97.3945157395256
97.2778955097307
96.9194985338608
97.0839754345753
97.5657733622554
97.7825335066411
97.4842345299014
97.3188799616485
97.4567404448168
97.5750833958986
97.4064853079556
97.4464182068551
97.2709522895106
97.3098955826137
97.2996726664594
97.0886046280324
97.2173985808591
97.3085978167
97.0401057112203
96.7838979910945
96.7018486286324
96.8488834554136
96.8215346253458
96.6268858304182
96.8034591974129
97.1541804410588
97.0378801524121
96.7591981431062
96.9843455146625
97.2949939850991
97.1956844519816
97.1097326751612
97.0388418385763
97.2455259893085
97.5142847281656
97.6086465851463
97.2199667959744
96.9192179673779
97.0151443079859
97.1832663078062
96.9717062761625
96.9207791079583
96.7987097166757
96.4146583133257
96.1373553623477
96.2987313405304
96.3280720884146
96.150972086264
96.234990676457
96.2167807726333
95.9345416436627
95.8079986184492
95.8539060113025
95.9799619125902
95.9070181296619
95.8250891640801
95.7921361063612
95.771389532555
95.5794502760155
95.4659658787715
95.5805345425528
95.6656640934352
95.4788691303898
95.3918130222174
95.4176154435758
95.5163049062595
95.5613956143434
95.4794378276629
95.3692011123685
95.3165154719588
95.2389884073176
95.3542051549099
95.3802164540679
95.3827532598465
95.404636265398
95.3969648341532
95.4390489132897
95.4230288924176
95.244014697074
95.2393368947499
95.3407398910503
95.3774895175921
95.310051792131
95.2745594453357
95.2839818278002
95.330011965795
95.3274205678274
95.3424804621396
95.3530849346803
95.3140338160191
95.2847910086445
95.2983748699835
95.2870061929457
95.2721028420578
95.2241028575546
95.239314069863
95.2524241617686
95.2859438247264
95.2926072132886
95.3024758567386
95.3365150521428
95.3522772179451
95.3050926648708
95.2862773284758
95.3512056723624
95.3885512773794
95.3150539392036
95.3381145877765
95.3266474290473
95.3304719274267
95.3610184845493
95.4347994538773
95.4358852055316
95.3509741969404
95.3442195151863
95.3609201267006
95.3320883384912
95.3861696735929
95.4197522265891
95.4086871205715
95.3740226237801
95.4114526635928
95.4291671064077
95.3836746907571
95.3801753042347
95.344707570413
95.2785786703779
95.317800682173
95.330044149597
95.3008306826668
95.2547099921859
95.2466890573847
95.2475290055948
95.2410711036997
95.189853472473
95.1641609756928
95.1654130316026
95.0971174177478
95.0163877244658
95.0106338757476
94.9611843154784
94.8948443279611
94.8721147623193
94.9057548905027
94.8034695673882
94.7623542505378
94.7052176220122
94.5978839057411
94.5578171078187
94.4895893667841
94.4158565597989
94.446929447303
94.374072514209
94.2836082997673
94.2327724004978
94.1841210743675
94.1344119158468
94.0719820248428
93.9611940879017
93.915996201565
93.9102951863206
93.8323626195505
93.6616068132501
93.6095344722637
93.5187279318178
93.4499033870654
93.3545747200285
93.1948501417982
93.0155820643631
92.8835001468157
92.7094646935492
92.51197785836
92.3523907329859
92.2128791718826
92.0748389255808
91.8962776115416
91.6432022819105
91.4226472020989
91.2422949442992
91.0248245276297
90.7360072526978
90.59580560071
90.3099886142659
90.0310137272308
89.8523010214251
89.5875924906485
89.2942289068046
89.0532581900971
88.7040502325299
88.3589402008919
88.1718002651142
87.9422392873404
87.662568450969
87.3266414835892
87.0093189401732
86.7526874451647
86.378990343577
86.0531499082974
85.8449063362763
85.5346887162393
85.1590195492994
84.875552639915
84.6128573970368
84.3640128310103
84.0301857437241
83.5177331306426
83.2921055258502
83.3522147013159
82.9891792618825
82.6435292272112
82.4978850326448
82.3102618301426
82.0590240330247
81.8156993471591
81.4847895456749
81.1998285210251
81.1764648495601
81.0824027715413
80.8492959808103
80.6414873693343
80.4455183177796
80.2098002108519
80.0756825354055
80.0259229936609
79.7782547805438
79.49082152174
79.4215788276821
79.3479867524283
79.1273842001407
78.920530184568
78.7269739509677
78.5563070490184
78.3465469044861
78.1743998524845
78.0312428861247
77.9206556894808
77.7495680511405
77.5942886615386
77.4846327911584
77.3851342941004
77.258565780598
77.2005224681097
77.1424824728078
77.0644065294661
77.0177846556888
76.9764840237551
76.7601882406165
76.7086436536684
77.0101560709634
77.0089446132181
76.817325528272
76.9061766453749
77.017698639195
77.0445959654109
77.0982555251567
76.8541721908097
76.5363416212332
77.1158047131111
77.5212803135783
77.6103369498097
77.7127761794668
77.757684128114
77.9291291227895
78.0283899185791
78.077508184572
78.1267036182873
78.1862144875364
78.7249580302566
79.2425501939881
79.19799976374
79.2157223394504
79.5631979397111
79.6728270977288
79.6985404875881
79.8688017183959
79.9935339073616
79.9544685538228
80.2234181235924
80.4541504978975
80.5100298314045
80.6776549336748
80.7478626094605
80.7746760604932
80.6545176830244
80.4919027156221
81.0459297740447
81.5299179604714
81.522546721535
81.4395807155212
81.3963003907923
81.5627289023996
81.8810233857916
81.9390743349274
81.8827990403556
82.0574093569912
82.2955139124114
82.482619629682
82.5570299503361
82.5842023608769
82.6444777804174
82.6450217381964
82.6057441033935
82.5159908950953
82.5490823531892
82.6728172058624
82.5191925305732
82.2051851665862
82.0218894554236
82.0025971162033
81.793365418399
81.4064001005374
81.1617954638057
81.2959580769134
81.241619624803
81.0376816060699
80.7965450593116
80.6127072997304
80.5294949256008
80.4047654401273
80.2663054228562
80.1267185938432
79.8520506442097
79.6438660300732
79.6798401329438
79.5017636513236
79.2125305069877
78.9801953439722
78.7511691771071
78.4357826204698
78.159919291725
77.8366394848113
77.4214320789994
77.2557688283186
77.1277757031925
76.8278056631852
76.5247480124786
76.2626025294546
76.0120791730856
75.7698975887044
75.5890357062718
75.4844218857376
75.3094735004481
75.1322632287807
75.0753982510395
74.9822963493588
75.0520956821475
75.1147079337913
74.9756939275041
74.8421054606198
74.9296319528383
75.0485703369587
75.0592421400347
75.0925197757465
75.1651361017057
75.2356064750637
75.2764945708409
75.4609220966417
75.6782714770641
75.7842973763241
75.9313490765908
76.1072728560785
76.2307491430008
76.4581983123661
76.775695852098
77.0189991812712
77.2102071720041
77.4105216991128
77.6351294896487
77.8381442548452
78.0385648720086
78.2514745441213
78.4603057336637
78.6625633149947
78.8199871637754
78.9947926312579
79.2451247146043
79.461974210866
79.6231877032768
79.7248185115736
79.8472128136491
79.9819080793913
80.0912539536383
80.2017071119793
80.3099241978553
80.3688696566213
80.4337491114615
80.5194352173974
80.5986089317336
80.669338212057
80.7745731021629
80.8714013325139
80.9440685332059
81.0210916045737
81.120198637794
81.2173096692636
81.3058512976857
81.3865801534317
81.4993742668843
81.5999452110809
81.6629919756057
81.7378979411998
81.8343943601653
81.9238624996521
81.9933658470362
82.0345101426433
82.0795288055303
82.1162122875677
82.1522985680414
82.1843229473086
82.199011498241
82.1919576040027
82.1858465013945
82.1820280461841
82.1830284896241
82.1670251445671
82.1463727695131
82.1328408372643
82.1202939570321
82.1074745626697
82.1042533406685
82.0977571109226
82.0778276587069
82.0558364021136
82.0321477827881
81.9965926817393
81.9749333730543
81.9587638337794
81.9354477022223
81.9230605676501
81.9003047435643
81.8919146680867
81.9107683074777
81.9089941811349
81.8949228489707
81.9107059664235
81.9564933607498
81.9854655999807
82.0334165470256
82.0724790704962
82.1111900689898
82.1641680808929
82.2345195828313
82.3119749766138
82.3757088777511
82.4397946237758
82.5142396743085
82.61044292233
82.7201008409907
82.8142601083926
82.9084017901659
83.0110082940099
83.1052141695272
83.1817569740339
83.2781740459339
83.3864005506916
83.4440935680608
83.4895148613595
83.557305225609
83.5651678261889
83.534952690083
83.5268938802383
83.5190879934757
83.4599991341323
83.3884322316427
83.3646288926434
83.3423543137555
83.2836587112276
83.2321327193538
83.2067377898458
83.1661453550534
83.1014421304668
83.0184865738619
82.9312788391065
82.8615417376164
82.7941706730102
82.7123178701624
82.6338133718349
82.5625956932415
82.4572092796727
82.3424639657289
82.236780218799
82.1336540674124
82.0230665029207
81.8795632452527
81.7126636356551
81.524665760042
81.3637365207005
81.2166397484083
81.0506135502081
80.8984205064974
80.7710427307787
80.6421027275727
80.5228447741048
80.4573693654604
80.4044271400971
80.3245417742791
80.2316147151909
80.1536173941659
80.0568343098097
79.9814792362214
79.9072514728528
79.759323386371
79.6073556209559
79.4568793133881
79.2690138551307
79.109838377034
78.9182215600259
78.7188806129681
78.5717829875301
78.3842390524388
78.1913240145902
78.0267742901328
77.8484529525705
77.6682735556461
77.4946642030746
77.3216815086632
77.1340244881034
76.9719661000662
76.8121220360941
76.6813436016723
76.5295752437597
76.3686299565316
76.2310312926631
76.0821933354662
75.9544362377724
75.834752427679
75.6907643943681
75.5661316263588
75.4567657426191
75.3625067609604
75.2578504244648
75.1636777944197
75.0669623586793
75.0041175350085
74.9578873238455
74.8930326023632
74.8822201905729
74.89832509105
74.8995502988921
74.912940522556
74.9502750612881
75.0253006582288
75.1295517647014
75.2265286716966
75.3276064521445
75.4705427031744
75.6163412928179
75.7837972471229
75.9689803206244
76.1960025249558
76.4358533712613
76.6674181641071
76.90689645285
77.1543182880193
77.3725976117967
77.5838667133635
77.7979983243143
78.0104953431345
78.2113094799
78.4090436454164
78.580724124947
78.784906936034
78.9666285514337
79.0847964823201
79.1861520479433
79.2947065235991
79.4027604499617
79.4972097934945
79.5736005030026
79.6823743917683
79.7975788911135
79.9071659949302
80.0210773880391
80.1621433293323
80.3131128960758
80.4634758296117
80.5726675093397
80.6913551148576
80.8326185799412
80.9690279732658
81.1107119992286
81.2838259947271
81.4431047070651
81.5989403849895
81.7262376287405
81.8882701606185
82.0365150790692
82.159447361946
82.2947214620095
82.4382041896902
82.5400076031812
82.6458629691309
82.7422813254185
82.823133326551
82.8938629900403
83.0025427069618
83.0919138170382
83.1502889173911
83.2053768058452
83.2834427833892
83.3442257918596
83.4088879642754
83.4703719041041
83.5441034622619
83.6442687948633
83.7011359407763
83.7303918699394
83.8122096903712
83.9089446918602
83.9945212377998
84.0668633694152
84.0934519255561
84.1199905007539
84.1499292988885
84.1771808496022
84.2037415063319
84.2159535096911
84.2344174962425
84.2512481105576
84.1832335455075
84.0980818440974
84.0476862361347
83.9484524781869
83.7818515123276
83.6126034869227
83.4554033546871
83.2891720942659
83.1197764706224
82.9705860055974
82.9099955653163
82.8788851601985
82.8348880682618
82.8505781942393
82.9133926860251
83.003307486874
83.103692023452
83.1845020927358
83.2809263521703
83.3672787648751
83.3846442340094
83.3686227993452
83.2996605448194
83.2170483998614
83.1303226741365
83.0404067109291
82.9795832920269
82.9204545674628
82.8840270065479
82.8631137157528
82.8403070595782
82.7909960881965
82.717822404638
82.6556925186913
82.6274593991869
82.583196810837
82.4714390726948
82.3560188910919
82.2970335092838
82.2288220914031
82.1445600118067
82.0442468870921
81.998347728707
81.9608699671195
81.9092471015345
81.8515185577925
81.7769582245197
81.6998508885097
81.6474581663101
81.5808814941914
81.488067810847
81.4405402939636
81.4076573002941
81.383882203962
81.3299996288128
81.2405153897429
81.2520645857134
81.2762165718801
81.2310968862769
81.1972666022713
81.2118814105578
81.2357142204
81.1895143465868
81.1010189788034
81.0390375335448
81.015060130517
80.9810755573582
80.9920653725919
80.9706538780784
80.8928508855457
80.8411655507151
80.781081279301
80.740091895191
80.72477282812
80.6787460395022
80.5687701628497
80.5098996232051
80.4720494238327
80.4219295120523
80.3766449247373
80.2936904942319
80.1853806189862
80.1136270685656
80.0295327667971
79.9727201118223
79.8835855845211
79.743329710214
79.6112960126374
79.5494927355021
79.4876138124367
79.4263694879394
79.3008213344623
79.1766337486013
79.0839600676958
78.942141762706
78.754813881003
78.6399487137988
78.5499496213497
78.4441139068803
78.3289251646984
78.2415471277929
78.1238481311866
78.0399870973005
78.0070293163382
77.9429600569777
77.8345209504667
77.7510651525495
77.6220717979362
77.5634192577472
77.4966834196943
77.3885038345287
77.3188798725515
77.2479484695669
77.1482488122925
77.0403652441726
76.8569098589977
76.9997605879768
76.9419262368845
76.6963985669135
76.6190698748499
76.6064726532804
76.4927750636108
76.3559377785081
76.2524263030788
76.1349951834399
75.9273558193758
