1798
3999.43349933624
650.420452594757
1
128
4
95.1641683279296
95.1476637992587
95.2402371868658
95.1941688814974
95.0803593306515
95.1698471091351
95.2932839293593
95.2447081200096
95.1784819166951
95.2457741667215
95.2129844295717
95.1405114038428
95.1622468362999
95.1917051736172
95.1414328401906
95.124606624006
95.165805431618
95.2812094634278
95.2847188611352
95.2690942476449
95.2449392162591
95.1674132146489
95.1743579183501
95.2767431936262
95.2815006415137
95.2905929950082
95.2675366182788
95.1758943121388
95.1459529420732
95.2176062577761
95.2889129034194
95.3242608217803
95.2445528892522
95.1558751590122
95.1649377979201
95.2723979296026
95.3739008583347
95.4354240217529
95.3596241446978
95.2407985913782
95.096885776926
95.0777564456832
95.1150620437157
95.1015421608921
95.1488527073753
95.203362894164
95.2066853157142
95.2701779532021
95.3565032185208
95.4261390515437
95.4329015841306
95.3866512297188
95.2899870668657
95.274360908115
95.3232953626327
95.3474745855415
95.27516063542
95.2408482504583
95.214145743756
95.2211495811565
95.2790904935918
95.2995670949127
95.2494321224446
95.3053454135094
95.352835687966
95.3429831089748
95.3212021067255
95.3074692035397
95.3233175864289
95.343254455197
95.2807691869994
95.3617821338569
95.4098873395443
95.2827248303999
95.2371506060545
95.3304390339285
95.3859959588156
95.4066921549763
95.2847778453655
95.1576121093551
95.1553159141634
95.2335192270927
95.378148892879
95.5016103900309
95.5169851891653
95.5674409430061
95.5044082357415
95.3359808119256
95.2244596745743
95.2542878957167
95.3147221753469
95.3468771754873
95.3831274987569
95.4460737802987
95.4888946952818
95.4806164759202
95.4083951404941
95.4007967126829
95.4320061878501
95.3910847394219
95.4071413238136
95.4940238628039
95.4973093565337
95.5399324186438
95.5528026778039
95.5458340957171
95.4049939858856
95.3042863790249
95.3981627204185
95.5075262819416
95.5053377519709
95.4492410354761
95.4816649678767
95.6153816860621
95.6326949520535
95.5262121222589
95.480123600648
95.552832340193
95.5175296181591
95.4280682015556
95.5185577216042
95.5858103765433
95.5328181314021
95.5333272381741
95.5299732898748
95.5563623627836
95.5060611776722
95.3925732082518
95.4247327370162
95.6015776996081
95.6697059895167
95.6181156844143
95.6095937242475
95.6755175293249
95.6089276162683
95.5353802496126
95.5498624538517
95.4676344144768
95.4593431214357
95.6250580843294
95.6604405587267
95.7192859420709
95.6629267544314
95.5126713229169
95.5060800075841
95.6184262462239
95.6444528092118
95.5883431660717
95.5448595689668
95.6395973189868
95.6742469500627
95.7081818979693
95.7687400325514
95.6607119504138
95.4602823337352
95.5276665363244
95.6167678077064
95.6742971472554
95.8067836240235
95.7933365006296
95.7106146416515
95.7622335486807
95.692011904191
95.6172018687653
95.668702613207
95.7725068443567
95.7500477104932
95.5939151100061
95.5447743586804
95.6037649368147
95.6994567589985
95.8933241945234
95.9848438437534
95.8978757076725
95.6938426367193
95.7039610687854
95.6841252560822
95.5168852199886
95.4441633710575
95.4642409261014
95.5319964695886
95.6673497557075
95.691795415241
95.7065358106173
95.6638957665677
95.6377577346126
95.598767476232
95.4430692925806
95.2688572428706
95.3118409992819
95.322064366941
95.306483341372
95.3450841941752
95.3938098157121
95.3162616687112
95.1860133735169
95.1805277302615
95.2472216500343
95.2458712853841
95.1657105124632
95.1121931199516
95.1575517247366
95.2205097561707
95.1816326807589
95.0006588548071
94.8305253158419
94.8003545431658
94.913502126889
94.9039515549965
94.8006132652167
94.6905566210645
94.5998800149327
94.5924681078475
94.578793976583
94.4736904031579
94.4479424707954
94.4208248693362
94.3820411858473
94.431231030844
94.370396953303
94.1786816472268
94.1206891374387
94.1190227099808
94.0559294814076
94.0133222527349
94.045845094157
94.0442777510495
93.9717362071425
93.9038281705016
93.9101156754552
93.872686722959
93.7973885304518
93.6591840318542
93.5427363271634
93.536535081284
93.5147840834836
93.4995175562383
93.5233155474828
93.5158494634114
93.5862675617293
93.5130631867096
93.3764856552216
93.3366005311994
93.3208986671526
93.1966183071826
93.1856170573832
93.1130957689668
93.0297535891377
93.0065236360522
92.9923159217509
92.9435989545229
92.8741899740834
92.8065900110053
92.7989902488899
92.7500514478526
92.6440996244301
92.5541229128265
92.4896284018046
92.3846297593596
92.4398350306385
92.5266545661583
92.4446714142127
92.2505124768837
92.2255949666874
92.2121659636492
92.1645631507013
92.0744512421327
92.0643112761768
92.0670604234666
91.9715897848516
91.8229911335219
91.7724561385545
91.7114663384978
91.6532501137811
91.612313477555
91.6230429630475
91.6397546188429
91.5840177332909
91.533404660551
91.4518983989402
91.3449263196132
91.2446853236288
91.1450101934522
91.2111547264582
91.2124671883253
91.1563409026208
91.1321052821905
91.1118762986089
91.0007069037245
90.9701222430553
90.8605196458377
90.7629500235505
90.7071833476123
90.5950177517263
90.5453457624515
90.5775334424301
90.4693559804869
90.3885880025364
90.4028246891491
90.4611306653032
90.4016468710951
90.2811475604264
90.1945028938354
90.2181492732679
90.243617512878
90.2265331805226
90.0824239061222
89.9526665001215
89.9086453243671
89.8855005624109
89.8824355288581
89.8880882343838
89.7843630593862
89.7257765724701
89.6527859761836
89.6134783261009
89.6204318003181
89.6647387605013
89.5832102058958
89.4830772826985
89.4212653359494
89.3940686559896
89.3813230783095
89.3401840173309
89.2922206506505
89.2925320272968
89.1970938424419
89.1755430421404
89.1671499735877
89.0396974361946
88.9081479759847
88.9319646116371
89.0135884375309
89.0328772051122
88.9501939968262
88.910438519255
88.8311630337706
88.7525736339482
88.7399218995724
88.8242702681897
88.8176039101786
88.746013876112
88.6253717164244
88.562232064436
88.5704796089393
88.6166154137485
88.6105040741391
88.5267937692524
88.4219855382882
88.4085718679377
88.349186438628
88.3300793325209
88.3570182234801
88.2816492235523
88.3305946813619
88.4613026818372
88.3350028325917
88.2197975879209
88.1851966597008
88.2041148006907
88.2588150907772
88.2622428782285
88.1838532269312
88.178534471821
88.1091599180798
88.0981677826452
88.1976716848244
88.2138240368893
88.0800345280512
88.0445573748995
88.0554774985596
88.1166778571363
88.139685529694
88.0940299395681
88.0184109432875
87.9970415720192
87.978987361077
88.0091193111691
88.0255686351434
88.0431688107133
88.0434398824433
88.0480151554838
88.0184511461353
87.9866597117307
87.9426186198242
87.968692830174
87.9226237586006
87.9274122106765
87.9256257178073
87.8891961005112
87.8558636979542
87.9099242212443
88.020440420032
88.0137323599097
87.8120257500487
87.7118761819467
87.7279040824395
87.8357327657181
87.9218733554381
87.9149852996277
87.8313407000719
87.9025730754902
87.9707759652257
87.9009674366713
87.8424065570524
87.854655792682
87.8564617003162
87.9330589215312
88.0008211056484
88.0247081850567
87.9772114470085
87.9188526987983
87.9579888512035
87.9617602521967
87.8508701173906
87.8942368423097
87.9730912451693
87.9459459860191
87.8575511608012
87.9123208753623
88.0324810357416
88.115464572353
88.0868208230328
88.0510899323741
88.0272960662931
88.0532971925221
88.049550119631
87.9896564926584
87.9994299265538
88.1372182594547
88.1352607426044
88.0740617209272
88.0443912692879
88.1675256631383
88.213572078742
88.1272560294143
88.1708980590484
88.2737540081715
88.2719395194134
88.2827205784597
88.330749536568
88.3219006029721
88.2715278211211
88.4186769190198
88.5465927439709
88.4584013921659
88.336485010548
88.3530139261678
88.4265426091901
88.5081835833799
88.457050009523
88.4986825185465
88.6233821366467
88.7062650622099
88.7556061041742
88.7880759047664
88.7279572297478
88.7056022033325
88.7211402025292
88.7959465789046
88.8997128115729
88.8967655163811
88.8525893567097
88.894085596697
88.9093986521036
88.9768427069275
89.0196107675176
89.0054518005887
89.0504320803534
89.1063364075152
89.131997005709
89.194273286557
89.2421197934181
89.2705858127835
89.3124665382402
89.3207605387465
89.2786507837212
89.2647535526629
89.318637754489
89.3663198160368
89.3058684144838
89.3807773096337
89.469538922774
89.4551143177389
89.4603673404767
89.4638084500473
89.4138944099645
89.5083010698781
89.5818788185607
89.5365978095336
89.4726365136762
89.5511058475367
89.6565843831258
89.7145874498685
89.7165095184928
89.6965007822655
89.6820623977453
89.6773869043693
89.6759637040111
89.7318241511356
89.8132517488293
89.8353979342538
89.7963972252881
89.8096004625764
89.8376830195197
89.8713869222541
89.8796918731909
89.8958006465114
89.8851494630255
89.9148291563707
90.0028883159046
90.0719322617719
90.0885721320515
90.0949539500545
90.0982321657953
90.1180176162122
90.1653383839895
90.2316017301656
90.18102914987
90.1577475620162
90.2158715902155
90.2761528899399
90.2393857016433
90.2320196446589
90.2944019922824
90.3066061397221
90.3032320938838
90.3595467654369
90.4171801814927
90.4779847583575
90.4446233513971
90.4457393171841
90.4242282339877
90.4284188617512
90.4907540884923
90.4967633030011
90.4475362934358
90.4633858175355
90.4889731328216
90.5348062887828
90.5516507267706
90.4975509979598
90.4502021875568
90.4077560587845
90.3753989687275
90.407243898133
90.378217248074
90.3678103796459
90.3440567395502
90.3071139111267
90.3203137664483
90.3227180921735
90.2825788654439
90.2941435895343
90.2751154523098
90.2687351067085
90.1752539973807
90.0675681921752
90.1069665996312
90.1144521383454
90.0706804012649
90.1030677756532
90.1079286288395
90.1043048002025
90.1092796079855
90.0764260099263
90.0451858017846
90.0076368423893
89.9335119667829
89.9439255728844
89.9793936933875
89.9547687418459
89.8162409310004
89.7708613243335
89.8127974201226
89.8317700255281
89.8112756609089
89.7979678658364
89.8285862764886
89.9261279148188
89.9960611366232
90.0299498644196
90.0391013039209
90.0505222867859
90.0720853460055
90.1503158682509
90.1931587663375
90.2163711423747
90.2590122653273
90.2571977109097
90.2658544966508
90.3423167160207
90.400604478851
90.4359643123229
90.4260644620279
90.4361758280696
90.4791872566513
90.5380856278641
90.6332128801944
90.6381625922969
90.5805844377238
90.5628495919297
90.5812924727884
90.6017403158618
90.6197256696316
90.6570098037329
90.6974649577122
90.7151364849278
90.699825727513
90.7780134128342
90.8275108923948
90.8289280019239
90.8565853564105
90.8675401957942
90.8340255857364
90.8612774393029
90.8948300163661
90.9264796887023
90.962564137151
91.0447821271452
91.1105192422584
91.1504740346545
91.1671584405229
91.2000368557176
91.242567742177
91.294131725401
91.3300469901
91.3393171775788
91.3578853144748
91.4057428644125
91.4176725154072
91.4307011811411
91.4967195083789
91.5785368807522
91.5750891753268
91.522549482211
91.5375617391853
91.5946630241364
91.613690351578
91.6404509225794
91.6975266262054
91.7332767896492
91.6739891313599
91.6434881497223
91.6876227322912
91.7506160691219
91.7647841047801
91.7945625718325
91.8813689440647
91.9277083452118
91.8904795922257
91.884704765876
91.9122441843414
91.923050263263
91.9216188957714
91.9279983411479
91.9874175233179
92.0137740265004
91.9688986891149
92.0180927629304
92.0719679578485
92.1098452996875
92.1499649993367
92.1284298670198
92.0970750396734
92.0965915430923
92.0980653432907
92.1333433290393
92.1163742551509
92.0798615403306
92.1223342210455
92.180730443322
92.226742684141
92.221055877941
92.1989304325157
92.2335281971578
92.2672284339723
92.2486289816206
92.2301866803279
92.2838784431345
92.2910540909933
92.2765110664134
92.3006501179764
92.3111125510353
92.3315122756947
92.344329063236
92.3205312985454
92.3556498596998
92.3808931358785
92.3990671086392
92.407961831206
92.4057500157608
92.4363126255883
92.4645310683545
92.4859952310595
92.5005338342251
92.5047407788768
92.4958904811089
92.4599480500564
92.4641100628216
92.4850641835101
92.5184088449813
92.5709787730197
92.5966191733454
92.5479905021614
92.507446253281
92.5494407176462
92.6054112017061
92.597962837089
92.5883646231466
92.6011450136332
92.6034500743693
92.6347220230431
92.6712487159948
92.6349480501864
92.6413457320155
92.6690496773627
92.6810834493238
92.677927814491
92.6596478293169
92.6405574755152
92.6148704122837
92.6437474922912
92.7098580641342
92.7139281021868
92.6807356711914
92.6950005187903
92.7557693055836
92.7904360535782
92.8026104009261
92.7489435597316
92.7566204550565
92.803651487384
92.823328836907
92.856535090769
92.8880342376693
92.8961149283983
92.9594299209745
93.0051094151822
92.9824042830445
92.9824629665444
93.0200068345118
93.0493112701179
93.0547546907379
93.0685843148521
93.1282843869685
93.165308397185
93.1903854264914
93.1863938905071
93.1261910545771
93.0908244514369
93.1045661790659
93.2044449760217
93.2914649563102
93.2659304241052
93.2683163997773
93.2669756792501
93.2285457054601
93.2344182723352
93.3592716837299
93.39048085212
93.3341266167238
93.3487716387184
93.3508405010709
93.3978299901712
93.4862413235646
93.4941413952304
93.494651904636
93.5031667710907
93.5227650085701
93.4760979237679
93.4801701558632
93.5770219018493
93.6567238591261
93.6827298468087
93.6294289260542
93.5099928042907
93.4805295031156
93.5233806547502
93.5542644968649
93.6395951204104
93.7187614193076
93.6580888954665
93.7024013665808
93.7341956384392
93.6365404003765
93.6299105805795
93.670299918775
93.7562088247768
93.7771505027858
93.6957177619552
93.6410004031202
93.6341333053361
93.678960981568
93.7173340802742
93.7343481461142
93.7872778966741
93.7943344340952
93.7463730627863
93.7519256616376
93.7725289922123
93.753029154926
93.7644539245906
93.8128978801802
93.8518490519883
93.8252605786708
93.6861311095205
93.6993068351934
93.7487129473473
93.7620373457968
93.8153936079455
93.7821976118539
93.7319300364127
93.7517155695969
93.8767804893865
93.91206085049
93.8218197615889
93.8411116500908
93.8479516033623
93.8641344272467
93.9642364558064
93.965279570347
93.90198549686
93.8647541869617
93.8646860143729
93.8566963662747
93.8709917868297
93.9057538724403
93.8727606877117
93.8730059934634
93.8750597196786
93.8830683631014
93.8798618705643
93.9250019106922
93.9564800300629
93.9893848522067
93.9413115087416
93.9822289488201
94.1157982449677
94.0929833845612
94.024489015743
93.9554106711387
93.9617912869045
94.0244789232482
94.0358985209268
94.0161679697874
93.9951268598165
93.969483175087
93.9951010568797
94.0417110734285
94.0308020718735
94.0231851180458
94.0967731227414
94.0690708610209
93.9436544483531
93.9260034859555
94.0185644544507
94.143819210104
94.1365878660875
94.1155494437295
94.1309853776832
94.1085179711041
94.0825738612866
94.0623336852403
94.0050636839841
94.0256613265922
94.0642543138474
94.0659819284232
94.1223557658412
94.1160090237831
94.0326818694723
94.065672586031
94.0990219075143
94.0191058586639
94.0599810963841
94.095844416662
94.1917208913543
94.2147340590571
94.1496060182368
94.164551428983
94.2294911076018
94.2082020106813
94.1467995895021
94.1660153700087
94.2034215302252
94.2000970974622
94.1976292476599
94.1262407310128
94.0234020127284
93.9121367939701
93.8561864855733
93.9540482920053
94.0320841807075
94.0233929130956
94.0143256130588
94.0650221314786
94.1237230042942
94.0987613059618
93.9809496208477
93.9348033832031
93.9779345334512
93.9543779946167
93.9166963946069
93.9567683101323
94.0187218586717
94.028963657271
94.0779869480759
94.1726483050451
94.2411680669269
94.2701285918785
94.3213224289195
94.2900040247232
94.1807842074789
94.152974773228
94.1746721486477
94.2564513796912
94.3520519586209
94.2526179263284
94.1816538651137
94.2877280228862
94.3598059736421
94.3630390212748
94.4616323680317
94.5774883105942
94.6304189698579
94.6516234116676
94.6552603759294
94.6269430771613
94.6731515725713
94.8314228134046
94.7969918237858
94.7592516682121
94.8510725576662
94.9614713530931
95.0672172858211
95.2006848309385
95.3600958847457
95.2271139977585
95.0928662337627
95.232586528775
95.4094155697968
95.4035591683374
95.3583977011933
95.3785575152803
95.4686221409578
95.5397015432754
95.609179254718
95.4768557247253
95.3721749647869
95.3900219706873
95.4284528242165
95.4780464268603
95.6202127382392
95.7626086451039
95.7476690545655
95.7569011034763
95.8375874470846
95.8710817591589
95.7847746787611
95.9665350993307
96.1807834384707
96.1041633603163
96.1021761699701
96.360674879176
96.4879536265002
96.4903961637648
96.6554680867066
96.4815089131146
96.3650243921215
96.5394523496303
96.7755020497469
96.7351829593973
96.5363775579684
96.5311239842712
96.7152336552543
97.1829604535028
97.2668137280872
96.9147871254224
96.9057251972109
96.8445279124694
96.7282700612758
96.8312051421931
97.0973532087375
97.1466226757383
97.1607408991094
97.6069011880182
98.4447419235906
98.7487155823183
98.6953976639242
98.1474527417083
97.6165594859396
97.2785034229376
97.1789020178922
97.1404743589587
97.1891892465989
97.0569904034071
96.7829376962562
96.61322919237
96.6404972270961
96.5890671048834
96.3758209130046
96.2370452218739
96.2082860649543
96.2748178695039
96.2402375931534
96.0559575874333
95.851096981429
95.7373298103569
95.9281250768611
95.8392733113528
95.5207294370794
95.450671912316
95.5750233076783
95.6609216460487
95.7080808271238
95.7554910685212
95.8114918611893
95.711611921124
95.6185651244177
95.7908993176844
95.8893729548122
95.6197231739495
95.5635018147461
95.7535437361931
95.8119838353393
95.7451571870986
95.7573345227319
95.7915194106153
95.8086186258375
95.8209945329225
95.88434483027
95.971636462294
95.9054674579015
96.0420313691951
96.2484569439498
96.1670451105794
96.1393121873378
96.3051549280484
96.5219991190732
96.4735496524237
96.2087284262618
96.0761201254846
96.0673252379124
96.3053070845148
96.6529723349158
96.6798690851985
96.7427593524423
97.0116710942386
97.1078508661229
97.2655662656585
97.5011805542347
97.3839180598654
97.2569737573481
97.3693078324191
97.7027638542038
97.9862852111758
98.4300238420887
98.5962252926148
98.1292599405647
97.9633128633915
98.1874657662439
97.8701614595583
97.7817667098856
98.0071945241016
97.658912459204
97.4833684947349
97.6275738253253
97.6955129110888
97.7449933069381
97.6268742524064
97.8188961268784
97.590564425963
97.077491238122
96.9353973564802
97.1884480025654
97.2727300477932
97.3451999025689
97.2869136059666
97.1563144783639
97.2340525940146
97.3492046726799
97.2887697427556
97.492711505527
97.9141265696118
97.8635204045073
97.556522761956
97.4653832258107
97.3602527278913
97.5029971343286
97.6192546019989
97.5866316358795
97.3518895074736
97.1318574516699
97.1593813952476
97.1457041384791
97.0214175210513
96.9819014880113
97.12595073307
97.2780469315239
97.0366962570471
96.9439330640229
96.9598811876437
96.7240770005429
96.5453071037948
96.669758963736
96.62276458619
96.3984728315409
96.4262067940176
96.5137257119379
96.3909490271968
96.2627776019632
96.1019243377523
96.2488085836833
96.2545503593054
96.1785287804747
96.2899349495048
96.2926057158916
96.1362986877661
96.0328991472737
95.9841708886409
96.0716977922639
96.1387612423392
96.0480117264294
95.9805104793015
96.0579520866889
96.1271093953609
96.0779804261198
95.9989701991366
96.0071483754395
95.9603206483836
95.9162749904569
95.9167260292156
95.9261576265472
95.8972302088077
95.8603796468778
95.8527290009485
95.9191009949133
96.0092283728788
96.0536395036276
95.9908979060377
96.0063364640804
95.9802923839748
95.9801667391777
95.9768946624585
95.95837727083
95.9648425184633
95.9406194731733
95.9541904002599
95.9558002515783
95.9456175784121
95.9275294541179
95.9034915871642
95.9406924458414
95.9578644511668
96.0147139419595
96.063747629145
95.9685314814144
95.9129412967904
95.9822163702828
95.9554326884023
95.987631815108
96.0075496970077
95.9978751993803
95.9537282085407
95.9362380834801
95.9939112051544
95.969302023041
95.9356741724566
95.9589321450028
95.9838084504133
96.0001969902301
96.0211650319743
96.034196447863
95.998372148398
95.9601058774507
95.9268845727394
95.9897749471234
95.9818180412179
95.9390657398155
95.9247327929301
95.9616311482723
95.9702326682843
95.9604881040728
95.9488179581796
95.860692173513
95.7820899198368
95.8109489734828
95.8068704019307
95.7534160468893
95.711537844106
95.7202223045385
95.7200786832087
95.7282188166862
95.6947885594498
95.6429079280797
95.5265946826245
95.4707320434471
95.3939316681542
95.3646464530438
95.354587930384
95.2909643257755
95.2246788834957
95.2025085702855
95.1405555489728
95.1228932287976
95.1220093471744
95.0572805037301
94.9260154871525
94.8524932563745
94.8121587050964
94.7521512967237
94.7042147070238
94.6754858821771
94.6181822187275
94.6037066026721
94.4292940872064
94.2689540186417
94.2272706785232
94.1492759378309
94.0586500019416
93.9507665168417
93.8490458084445
93.7817196702724
93.6310450609492
93.3845923498693
93.1529749125801
93.0481592943902
92.9358693286556
92.790674266784
92.5815160858172
92.3843171035861
92.186715633399
92.0388167493548
91.8203888181333
91.5871133236062
91.3966677622142
91.0918237329609
90.8726695454369
90.6917436762228
90.4615410346614
90.2577092083122
90.0194856419843
89.6345184904564
89.3746132953578
89.2125531493772
88.9620816423745
88.6700027207476
88.3693175594344
88.1770086528412
87.9127402293762
87.5880380086027
87.3320384448697
87.12388122411
86.813275981477
86.4945565710096
86.2742758766772
86.0708863850984
85.8235113657163
85.4561685816855
85.0256581693323
85.0113518991867
84.8560129801085
84.5041478532692
84.297028964531
84.2157902244085
84.0184954843585
83.7728250769426
83.4742131303555
83.1513877362653
83.0813428190947
83.0741738147141
82.8693260997171
82.6264736391783
82.4607045944223
82.2899294972143
82.1210184363469
82.0773268149192
81.8869211454409
81.6003313466036
81.5082763823634
81.4669348436085
81.2808094220033
81.0859760978652
80.8629974187051
80.7017839824386
80.5580303516628
80.4126638298299
80.2740080102571
80.1583908810387
80.0021184373784
79.8715182101975
79.7530567223866
79.6767557293335
79.5945453888238
79.5067881981751
79.4346149839984
79.394891957152
79.3389920606661
79.3084785855663
79.1704948884754
79.0299314000841
79.2350397816498
79.3346341583038
79.168516687809
79.1647936345964
79.3143813489766
79.3648135546142
79.4100203628927
79.2568924272078
78.8988581368333
79.3244268539497
79.8280454489018
79.9063015289268
79.9827895908078
80.0308978060522
80.1650645356286
80.2450852699545
80.2754178789094
80.3436058441607
80.3337155862753
80.7321705709923
81.3017223974233
81.364398750408
81.3089994205358
81.5639613332296
81.7187747221569
81.7330828872478
81.8161777368318
81.9596245124765
81.9293199092779
82.1145217974925
82.362141042583
82.3965366973729
82.5265236284594
82.5690154267977
82.5869744147043
82.5203307948005
82.3207534780376
82.7219556020745
83.2498629448095
83.296805958877
83.2050895459196
83.1708283947385
83.2998493501375
83.5745785207713
83.6433272273065
83.5455014144825
83.6507075340781
83.8957932950209
84.0864834433089
84.1688253862893
84.1998744292594
84.2881727984298
84.2982358998037
84.2518555284438
84.1724013258118
84.1311587342516
84.255430452726
84.1979811242706
83.9215871874209
83.7068631168718
83.7266816983745
83.5799747673453
83.2439863593594
82.9381067018743
83.0502118952073
83.0631004333629
82.8576265668733
82.6252107686406
82.4522428399238
82.3710477201415
82.239087720034
82.0842829953551
81.9616619637426
81.7661645969946
81.5482851707233
81.5673004538723
81.4564376605716
81.172744427752
80.9327165321241
80.7600160695862
80.4893816353368
80.2106340508881
79.960159428716
79.6000680802219
79.3880754809911
79.3231272532672
79.0859038388961
78.7553161183942
78.4857884909398
78.3078201023397
78.0973249153933
77.8945086930402
77.8125246144128
77.6927712926257
77.5073369796078
77.4543140081979
77.3652760483143
77.3722932097695
77.4570997812778
77.3919476760984
77.2528082284144
77.3046328953972
77.4214492492335
77.419216173882
77.4386994281713
77.5097014960211
77.5596599826741
77.5951818461757
77.7600702629057
77.9566658542818
78.0356179503353
78.1738399825117
78.3428278375113
78.4430980186276
78.6308501404429
78.9523711291281
79.1879644021604
79.3320413539601
79.4876299501544
79.6851651369348
79.8871565960374
80.0931268889956
80.2959142361913
80.4975245988011
80.6844072911033
80.8048122932764
80.9304871455989
81.1673981316086
81.3844246175441
81.5152985494534
81.6225184014986
81.7462050189543
81.8671789080809
81.9691869757825
82.0384429473147
82.1261212385346
82.2029769847077
82.2679771033958
82.3591581932457
82.4543646042665
82.5226678026466
82.5815364997785
82.6746445978028
82.7637501228586
82.8326926094272
82.9209609869536
82.9909759362367
83.0607947265423
83.1337336134757
83.2035233926274
83.2826572256331
83.377388904319
83.4707224047871
83.5465805465315
83.6125006279573
83.6928604144154
83.7540018440465
83.7851594017246
83.8095695423093
83.8320707585976
83.846765526982
83.8561228283048
83.8652686626653
83.869679105143
83.8657671531103
83.8625100803376
83.8432487014886
83.8115591897242
83.7947304598706
83.7862177316453
83.7680124338589
83.7652189983588
83.7638935912692
83.7470961781218
83.7423082122578
83.7309425388265
83.6910856705935
83.6704748183422
83.6616862867901
83.6370961695142
83.6028754263953
83.5931347203918
83.5937763161325
83.5979964519079
83.5955371733631
83.5929287846798
83.6202516286572
83.6510278452688
83.6745910627979
83.6923328573815
83.7394400720573
83.7792577380467
83.8061144717065
83.8810209978333
83.9699257853395
84.0423528660715
84.0835337139763
84.1449201155339
84.2320686249122
84.3062442732255
84.3889585261329
84.4742460583341
84.5643647864083
84.683041964328
84.7823231693263
84.8491272779973
84.8997392220363
84.9664469396832
85.0250691513016
85.0617795281614
85.0730617655729
85.0620930377145
85.0494737942273
85.0194710828007
84.9948099059482
84.9762290677313
84.9415068214372
84.8943126719421
84.849474635545
84.8223406455922
84.776804492386
84.7209793916154
84.6654948279269
84.6131571666946
84.5519761139289
84.4872291561148
84.4291215081053
84.3574323004046
84.2735866769696
84.1878664257099
84.0988238501488
84.0253476832475
83.923648435418
83.8119023975348
83.6977035665454
83.5745053848678
83.4385665905113
83.2978039196099
83.130821824197
82.9720474072585
82.8397681802188
82.7205282371356
82.5992234602486
82.4710942362642
82.3603996466131
82.2902689314775
82.2254455792555
82.1530600442341
82.0818406930288
82.0067678395763
81.925102947267
81.840198660943
81.7567338282497
81.6439185414761
81.50082279032
81.3439655339185
81.1872296573609
81.0482288406745
80.8969163404387
80.7238837584915
80.54531000503
80.389893194146
80.2244440481696
80.0622429083518
79.9115375093038
79.7284435314121
79.5263709782602
79.3896919286308
79.245910297864
79.0816761681394
78.9308641637789
78.8092157954489
78.6756236433641
78.5249133786036
78.3839554170925
78.2603426423674
78.1309027327776
78.0260630421075
77.8769185245329
77.7258756811008
77.6226995454302
77.5409775944147
77.4484552285386
77.3392962157407
77.240857587756
77.1882161580811
77.1313306401937
77.0908458641229
77.0627057026524
77.0490510568504
77.0649608353066
77.1082462711397
77.1515598084923
77.2235662408454
77.2769417281498
77.3433554327791
77.4426467643475
77.5698252995737
77.7230117486926
77.8692345821866
78.0321270600692
78.2200613122812
78.3944228400718
78.6051240014616
78.8497894358452
79.07586068454
79.2516734847264
79.4465226573214
79.6544883918632
79.8466063503598
80.0248751200629
80.2110142284149
80.3625018498685
80.5133394711138
80.6592391735595
80.7930026853464
80.9348355587243
81.0650986420482
81.1513048489836
81.2281968424175
81.3037392178485
81.371914633433
81.4516947694514
81.554994580412
81.6648036847297
81.7740708580327
81.8937765884905
82.0192140070528
82.1463691483797
82.3071494916997
82.4343504804897
82.53487907671
82.6590624971458
82.8309138301655
82.9790406520701
83.080346159794
83.203424564378
83.3441395740033
83.4744156411739
83.5984223529705
83.7297088738291
83.8433841535221
83.9469157266713
84.0776126970608
84.1913483411406
84.2690285635152
84.3356477436575
84.3968045435829
84.4555434251892
84.5401616954917
84.628665720878
84.6673771032172
84.7118056412413
84.781707962212
84.8399599891036
84.9083515331542
85.0012525680073
85.0877587787848
85.150248072758
85.2153260163039
85.2825311533528
85.3379576101485
85.3829128104586
85.4374552579231
85.4893437921453
85.516304214721
85.5470789087117
85.5752983029802
85.6086252255079
85.6494767577863
85.639158521576
85.6061131356242
85.5243303377955
85.4070949313494
85.2943787455271
85.1666589970969
85.0452950899853
84.9069978970439
84.7452192491524
84.6042251804609
84.458956070967
84.3555827594237
84.3040217423369
84.2772853358818
84.2670144628678
84.3052116321262
84.4235834666958
84.5421316944217
84.6239835091347
84.7219204310932
84.78517852474
84.8150839347965
84.7975350715653
84.7530095103633
84.6919496880962
84.6559039067646
84.5847788592403
84.5120896945501
84.4660544237616
84.3990608382124
84.382295805669
84.3534374727499
84.2870784889256
84.2606538685969
84.2118734549817
84.1237606298913
84.0309300096034
84.0142962632158
84.0005005071185
83.9019659690066
83.8053603591959
83.754383816306
83.6894751783954
83.6456321291415
83.5676909552519
83.5146340267642
83.4521546965025
83.3373340952588
83.26602199711
83.2564785608304
83.2393010552129
83.1607537660379
83.0681214967886
83.0602346076101
83.0181778999325
82.9759299924533
82.955955933234
82.9529026610721
82.9556376992205
82.9655887170286
82.9305856552923
82.8772020080906
82.8663306890737
82.8532139736363
82.8096765070519
82.7919816063306
82.8050555227376
82.7866531975834
82.7426399878624
82.669632256775
82.6165475521225
82.596745600558
82.5699031484291
82.5215682471965
82.4458074947377
82.43039797196
82.3940661638648
82.3377538334216
82.2904218803746
82.2394503056434
82.1773448548387
82.1292129602714
82.0705602603166
81.9884052182226
81.8593388053823
81.7856829128602
81.7508762135755
81.7255037279865
81.620663472777
81.5463735317138
81.4638900226243
81.3501749360529
81.2644733644164
81.198409006617
81.0932703631808
80.9898160240404
80.8907365482683
80.7690904507419
80.6306251035389
80.4999731993232
80.3985137651226
80.3622036797062
80.2653550912523
80.1465061504705
80.0590866490388
80.0215075032567
79.9626649717414
79.9345053500432
79.8699525838165
79.7786499794926
79.7119480108589
79.6535025448947
79.5406533740191
79.4748709347863
79.3618259790173
79.2859323456451
79.1546317241535
79.3462966488009
79.3258491887792
79.0582112151652
78.948041867149
78.900727040966
78.8115392894912
78.7221443245902
78.656950182251
78.5918101967942
78.5159196991251
