1798
3999.43349933624
650.420452594757
1
128
4
95.6439474247384
95.6717717126293
95.6049388198418
95.5448081308478
95.6927523475908
95.6539266972277
95.655456947156
95.6352296995679
95.6275989324511
95.5083702385243
95.5681067217638
95.5825118603463
95.6023119482748
95.5618882649198
95.5716779013852
95.4994260505346
95.6348787192249
95.8031666668548
95.7741076463718
95.6226529513465
95.6455393268303
95.6433477194572
95.6574008321809
95.6191294204893
95.6081140135982
95.4428327382477
95.5509121844225
95.5791993490171
95.5440694471957
95.5104261803065
95.5352077158141
95.4354659245205
95.4438837253092
95.5637757230218
95.6435620925312
95.5255011928425
95.5481286620106
95.4665658714378
95.3798087974356
95.4353885923908
95.5339368756255
95.534687347184
95.5732300672127
95.5458317981072
95.5250944111884
95.4916918816276
95.5440476545568
95.5816974656964
95.6917601121921
95.5528718037938
95.3175352549946
95.0958979564991
95.0928713362131
95.096767535407
95.1968105348583
95.2874940944455
95.3929402693034
95.4063044701944
95.3997096574163
95.3631512105935
95.3643323246989
95.3826861284182
95.3055256475035
95.1689345957897
95.2607820385417
95.274041268
95.3408811932069
95.3194017347151
95.3026493530549
95.2206679286194
95.260880471869
95.1922258056508
95.2243078786159
95.2741928827618
95.2870525964474
95.3198439923521
95.2531856510467
95.2059631576377
95.1211522951076
94.885169911427
94.9175447961248
95.1988754657755
95.3784238943318
95.3499519353734
95.3960894667746
95.4104459184859
95.3940964141127
95.3600758125016
95.2958244272888
95.1656644972021
95.4340497834412
95.7147601975452
95.640417993886
95.6096655807429
95.5986564455986
95.4508237393788
95.1784291457342
95.0726912500966
95.4601905272843
95.8652801529482
95.8918923439418
95.6125351029768
95.4730890880797
95.4741030442
95.4460834078043
95.3165025185427
95.3736914327124
95.5081879114599
95.4616244834265
95.3912357714531
95.6806155493338
95.9625859961729
96.2830685267721
96.1542381669487
95.8993095824503
95.8255175565264
95.7971555201857
95.8207676555208
95.9618679271507
95.9002235887836
95.8704968505902
96.010080894267
96.0097830297782
96.0020551872966
95.8216891127178
95.5215067028127
95.6751645123412
95.7462734776292
95.6637073818844
95.7220309956514
95.5964440966335
95.3965492117599
95.4083369249701
95.4302000498504
95.2920510756145
94.7731962799417
94.7646800110933
95.2429196363889
95.2023823424966
95.1507635721746
95.1713937650589
95.0275263496162
95.2877372880381
95.5491400977587
95.5167136950789
95.3592022010347
95.4951438384128
95.6896727708303
95.7358524927017
95.9024310714679
96.0415352272867
95.9555672254854
95.8170519729768
95.6039995621456
95.6155048591402
95.7591111072262
95.9001755928094
95.9296990302797
95.9384834408014
96.0037450146897
96.1838472175297
96.0860782102097
96.0056254720756
95.9736013877411
95.8796876245282
95.6607170873389
95.5661949115915
95.7007838782485
95.8238206583694
95.9194698710158
96.0729338046065
95.9763074518931
95.7709908812272
95.5407161079087
95.707196492045
95.4405368689632
95.5414392047012
95.9259944669621
95.9699832387754
96.0617482700035
96.177844600514
96.0642546568704
96.1198643393862
96.1836159205444
96.1707177512008
95.9340811405603
95.597728046488
95.6546267793904
95.4776522365109
95.3176296121465
95.4744703294186
95.7373350313373
96.0723239883891
96.2112820205063
96.1139235203557
95.9350944154669
96.2217590976088
96.3742321555723
96.1167642123623
95.8001842756414
95.6889392935779
95.6509180190977
95.5696026227292
95.5341095807123
95.4959966544015
95.2970500228535
95.2798840215114
95.43147325074
95.825400986512
96.0554258318761
95.7681309908279
95.7898563783548
96.0964317452471
96.0483865043408
96.1294482061593
95.850000291803
95.8175206326217
96.2525666296267
96.299534616823
95.7417509566741
95.2632808382726
95.4268639769636
95.5899627731744
95.5882358405425
95.7788854936497
95.858865996922
96.0564158825804
96.0178537312059
95.898474983441
96.036191935447
95.8716801760974
95.4289996749069
95.5091460665833
95.705468058501
95.9235944961445
96.0415647337086
96.0635590450997
96.2018274610411
96.2197956217844
96.0660687538208
96.0523070278513
96.1837094358327
96.1142419837078
95.9916921075562
95.9435943608354
95.857440349019
95.9156862444755
95.9802735676979
96.1055798337365
96.1853761860819
96.1694040013162
95.9520675804243
95.7531155873088
95.8656554802963
96.0077960994793
96.0026744964902
96.0192694282971
96.0983453400137
96.1921594309844
96.1183856003888
96.1111226287255
96.1512512689858
96.0481647717751
95.9379951243258
96.0137555612403
96.0227848516729
96.0049722897721
95.9890461821831
95.964464051005
95.965945798952
96.0463510568379
96.0926133002471
95.9722699802203
95.8666693785968
95.8456762922019
95.9382006521874
95.9369277586328
95.8999574397104
95.8615911369178
95.9197301179947
96.0746486852655
96.108907647945
95.9734278434957
95.9438025365235
95.9677136102426
95.8468657842218
95.8035198618087
95.9153690595129
95.953306340044
95.9775972529739
95.963546299446
95.929541807704
95.9374955816329
95.9403049665687
95.9208796005332
95.8234021545245
95.7848831013155
95.8141555828031
95.8082981374399
95.7940520012615
95.8674798108793
95.9065508905805
95.8634990632155
95.8884745338498
95.8484583925601
95.8734580816008
95.8723865966718
95.8062671657618
95.7687227101324
95.7735684172428
95.7917544167718
95.7485631436095
95.7576162741887
95.7800401538626
95.7754764533594
95.8168479737745
95.7357320281939
95.6601336657427
95.590573418767
95.5776848528687
95.6551048234253
95.7880744861931
95.758120962052
95.724200967345
95.7096410467124
95.7494509647623
95.7027301515446
95.5738831258637
95.6091352741775
95.7547471593783
95.7686407768289
95.7564418706378
95.6984847145978
95.6867689745164
95.6886245083164
95.6454429342541
95.6413838895981
95.67939985977
95.6345589688011
95.6559517090614
95.7072324967969
95.7388599819978
95.6680157049535
95.6710003936908
95.6571028695133
95.612830630163
95.6133456469281
95.6332969046226
95.6752561320629
95.7763374161352
95.7393265656541
95.6487488968725
95.6823429365524
95.7331355871422
95.765803062101
95.7239188496848
95.6690308426488
95.6113400515523
95.5679423961469
95.6677894672354
95.7770418949112
95.7400716502883
95.6166657218211
95.6258409464435
95.6820781025883
95.7233322840073
95.6798357222468
95.6718001802349
95.5966480184559
95.6117211850811
95.6490354580461
95.6757976590344
95.7164083195524
95.7126452314119
95.7016351712522
95.7178038983804
95.6956257784926
95.6919410130765
95.6841749024065
95.6826184798169
95.6175180733215
95.579796532334
95.6563518180783
95.7204506754812
95.7348106367113
95.7335876718533
95.6481286747261
95.6671697608934
95.6843967028191
95.6509274139051
95.7114615299176
95.7998410618187
95.7257345373998
95.6768977919857
95.6247536486978
95.6233523664111
95.6823976325126
95.7025996524932
95.6608421682171
95.6943086781091
95.6800908174991
95.6908966223247
95.6518986753592
95.6823737898303
95.7489631693328
95.8311191561321
95.8013628229617
95.7791022937966
95.8056471588688
95.7509863178375
95.6348312352903
95.6098516517406
95.6346702123576
95.7299788795337
95.6802852987734
95.6947252323908
95.7498204844209
95.7636210941125
95.7547586488879
95.7923832792535
95.7511193360111
95.7775543985495
95.7121874250019
95.7414989674799
95.7442160077228
95.6912879741683
95.6978559006637
95.7730259629963
95.7167809482537
95.710624148773
95.7082222343097
95.7094359227665
95.6960650683331
95.7513010933716
95.7934842910013
95.8249912952449
95.7092965317928
95.7776836984983
95.8366297436668
95.7476507637037
95.7051558781151
95.7807837692927
95.7998966247764
95.8639304861548
95.8590495092448
95.8163590695832
95.8004933105907
95.8161004958131
95.7537798592549
95.7752240946401
95.8197268111977
95.802561754152
95.7746597414483
95.8436117020609
95.8604216717838
95.8483185239167
95.7868240165991
95.7908994944587
95.7487794438987
95.7846779957576
95.8835492343998
95.9285386306821
95.8943670237222
95.9079973717935
95.8295258994657
95.8349404083849
95.8863207677727
95.9121360502186
95.8186997171047
95.8403301491809
95.8274320600615
95.855585487497
95.8567956196094
95.9242366971072
95.922719199423
95.8762540960054
95.8167576428751
95.8786279909256
95.8581662497784
95.8481978351032
95.8581605451804
95.9073194082159
95.8357459908703
95.8237461085776
95.8897898007863
95.9917711166996
95.9976151434161
96.049839833881
96.0244579125382
96.0133548188796
96.0040990376396
95.9864732252891
95.9157732408887
95.9754085826773
96.0411762907316
96.0460311310403
96.0559163183248
96.0283876250841
95.9551169776443
95.9778264231863
95.9848152919486
96.0602541951968
96.0168101082181
95.9673378332198
95.9483448704081
95.9560257176441
95.993156287738
96.070847110024
96.0685426344513
96.0571744020664
96.0637166250407
96.1875997616513
96.1707419796258
96.0711927309843
96.0226525656776
96.0925489298611
96.0906633128515
96.0850930281693
96.0820370477072
96.0921079277142
96.0432196051601
96.0845342650541
96.0723937287126
96.1118739392502
96.0972915250153
96.1125254593312
96.1209317023934
96.213902149562
96.2117584393061
96.1726832981098
96.1069875779811
96.0538091841664
96.0875776783348
96.1835137446135
96.1095686285184
96.1026930915196
96.1369951604067
96.1553417045368
96.1329753734886
96.2080978402828
96.2231955590072
96.1503865059163
96.0999352608212
96.1608948753027
96.189021577144
96.2472097632238
96.18972996296
96.1916965974071
96.1915665604766
96.2119360993197
96.1502599494519
96.13576354134
96.1858677421263
96.2719843341377
96.1614778270303
96.0965854691363
96.1355036859945
96.1839347839954
96.1336612698713
96.2137797403111
96.2386636321984
96.2389948746374
96.1362535758301
96.1067539449226
96.2130026848296
96.2722367875928
96.2137579397959
96.2563704072291
96.2623715508592
96.3777559957001
96.3398707607408
96.2891264084775
96.2703646658084
96.3537571425639
96.3903157807348
96.3769374916937
96.3717147051896
96.4360121316019
96.4059923873471
96.4284485023848
96.3530519310117
96.3238863143516
96.3075205925032
96.3860651880499
96.4534985807769
96.4819470955069
96.3400590312615
96.2769513129648
96.284284954445
96.3554851250158
96.3401460709565
96.366849187691
96.3344051854876
96.3187107328612
96.3898994269023
96.4731272950106
96.418328709055
96.4314483994945
96.3800677188531
96.3100293737559
96.3057610315958
96.3753173470038
96.3566422595497
96.3738099448011
96.4441639137374
96.4452827928807
96.3806309244501
96.4231017091858
96.428022446572
96.4997095815232
96.5483523742557
96.5800610555925
96.5930005126814
96.5896220808743
96.5396640538157
96.5980281528051
96.6219178201395
96.6573237636487
96.6593260463168
96.6165472706573
96.537823832365
96.5704383775735
96.5756884206197
96.5992286499288
96.5539800528122
96.561344029517
96.5838220361462
96.5596695408367
96.4919183383086
96.5495693837518
96.5694206968537
96.5842952227633
96.5762515572369
96.6147218963129
96.6299106015979
96.655407171223
96.6192511465959
96.6119488712471
96.6017802730528
96.6639748013471
96.6696976873595
96.6515942933677
96.6708754869828
96.705523254116
96.6681777117567
96.6709705868397
96.6911323421216
96.7277750123034
96.6950609396484
96.7137981765202
96.7070341404323
96.7236410549743
96.7050730866378
96.7132590105785
96.6845371037426
96.7142206819166
96.6835346984977
96.7137280948302
96.7527421201138
96.7753451846171
96.7332171551261
96.7382546675869
96.7551169287073
96.7898793190345
96.7463474785963
96.7327447313795
96.797003003239
96.8368628474438
96.7639260296974
96.7655358368615
96.7522206530416
96.799095784208
96.7996174224343
96.8129794923735
96.8099247373314
96.7590550341157
96.7347469462856
96.795059822347
96.7456180956473
96.7704899989579
96.8080321671914
96.8048859859564
96.8107253150057
96.8606347655202
96.8087992995726
96.7907862652422
96.7797183019673
96.8160916575663
96.7992412724423
96.8000482773434
96.8137916936407
96.8184553470904
96.7525882681994
96.7416111226099
96.7706215827305
96.8371938974023
96.850743050009
96.8536730810301
96.81557339565
96.8076587690225
96.7794149077013
96.805898168606
96.7774037164244
96.7328837594552
96.7470343056062
96.7863429752633
96.7746602123227
96.8018035101173
96.8264681283127
96.8624438670831
96.795809957094
96.7631753875995
96.76409590395
96.776040473927
96.734079329204
96.7709398393514
96.7989405784742
96.7926315261988
96.759613879085
96.7733549583802
96.7747189351626
96.7839874980092
96.7626853031042
96.7633904491398
96.7631825669207
96.823653876848
96.8021132499226
96.7638238230571
96.750715811088
96.8042716891856
96.7788107266701
96.7921376092916
96.8064703980303
96.8426302495773
96.8103580627256
96.8026229264376
96.8096343089925
96.8474549414126
96.7962141863291
96.7989485057494
96.8319593397565
96.9039838328482
96.8420850394929
96.8404719154767
96.8710119733564
96.8961423147111
96.8883573694756
96.971859136635
96.9438413044316
96.9569893269379
96.9290320107498
96.8433638998273
96.8596775593102
96.9788478827343
96.9141082294431
96.9198918640582
96.9796374455166
97.0157765812277
96.9478815010219
96.9295021578555
96.9485519019745
96.9524908571942
96.8909520802073
96.9328528231406
96.9768378818876
97.0060829229429
96.9447691883862
96.9917143427841
96.9960525400379
97.037376162065
97.0444639330385
97.1060303494031
97.1157059224456
97.0452974726866
96.9198434733211
96.8955696914512
96.9049517585233
97.0016940663521
97.0073401657554
97.0493655716472
97.0619848648214
97.159425095285
97.1354942198553
96.9933053911132
96.9527443267923
97.0445206263749
97.0655158011799
97.1220796724881
97.0586605142426
97.0698579807351
97.1395371563195
97.1777633315561
97.1380530989392
97.1264131303893
97.0601025054832
97.1384774088595
97.189142155677
97.1825250245188
97.1195140681051
97.1022535490181
97.0267401305789
97.065963353097
97.1414838655484
97.1305938048598
97.0000093493062
97.1308650409201
97.2786619599165
97.224503470848
97.148060437363
97.1405813853108
97.1084966962723
97.1745603744224
97.1446176060907
97.150493400856
97.1896238395562
97.2344832052749
97.1104456622713
97.0851338992683
97.1370441808351
97.1182117470906
97.1009819866749
97.184270540281
97.1883192629914
97.1805041530131
97.1438125321571
97.1794472064093
97.1707075273369
97.1977003306698
97.190547965432
97.2072048939842
97.2459453745663
97.307227235408
97.2985472223872
97.2764847357124
97.2007529324152
97.241862670766
97.2618991878505
97.3209043814544
97.2798875594012
97.1928740319551
97.1185540737922
97.1925667479166
97.1382932918563
97.1040771915265
97.2883305279101
97.3424484488918
97.2592093723055
97.3424696189593
97.2800355971495
97.1978166514093
97.1445802367797
97.1897464110902
97.2500710424048
97.3062423810978
97.3028574927671
97.2358867793107
97.1355883639386
97.1965850395452
97.2770605024145
97.2793778969614
97.2284571131143
97.2398300795449
97.2255977162624
97.2491239605696
97.2657223834127
97.2575529022592
97.1853346668659
97.1723869013848
97.1823258758979
97.1642085472305
97.1214763442833
97.1223031222951
97.2424773597781
97.4183918704462
97.4604564436414
97.6102836116579
97.7035646169801
97.8343797746453
97.9256322627112
97.9768559852802
97.942889278788
97.8906588582725
97.7911632658615
97.7809464204765
97.6773556337528
97.4542459964179
97.3662993202877
97.4969603401873
97.6437115416193
97.7319435907161
97.7329521920235
97.7568876350727
97.7471660444987
97.7403395165442
97.7007804164722
97.6572634108664
97.6100895871684
97.6520480864522
97.5555423322743
97.4141639775009
97.3581324327363
97.3976436059338
97.368845337582
97.3853870821064
97.3671136773165
97.3879307088958
97.3092938278895
97.2630540570715
97.3395132449986
97.3861815280259
97.3462941396331
97.3254935042701
97.3561748380587
97.4878680853717
97.5021269696426
97.5760438051754
97.5776984931983
97.5285578225151
97.4702669240035
97.4461262023317
97.4635637454639
97.6046049010262
97.5626799246005
97.5620243035561
97.6326373369337
97.6216391675842
97.7111846269748
97.8652864433126
97.7194957483616
97.7525818838454
97.9087871368112
97.9569694474099
97.9585473230287
97.9396633446234
97.8395145005774
97.9388782214904
97.9910795696632
98.1250434803836
98.0679613566799
97.9703547062155
98.0423370072136
98.1709335839786
98.1064635925625
98.2174001601927
98.2070403549415
98.2143593438376
98.2811248976807
98.3375860371514
98.2255487121466
98.2152282290791
98.1444934735876
98.1966176238467
98.2073062530631
98.2850933721425
98.246891113901
98.3347533581717
98.4063733409541
98.4874409940555
98.4893557335196
98.5828761716246
98.522543579751
98.5205425111862
98.3368530466892
98.3459355310024
98.4140979395689
98.4789085529029
98.670801535433
98.7227784379203
98.6298344897396
98.8255752683466
98.825799913328
98.6903477444061
98.4852880634075
98.5780587983509
98.5807363409908
98.7779523947406
98.8188226489197
98.7759485961884
98.8401927290991
99.2813181033579
99.0653794537985
98.7503263539519
98.7596967068279
98.7671717537422
98.6352281542955
98.9595796514803
99.1332450008242
99.2982307713464
99.3057620086517
99.370755982915
99.2308981837866
99.0708133434259
98.8884710749115
99.017405240685
98.9546437347601
98.9886027829778
98.7764765217676
98.5075523956836
98.3278386855336
98.3244067809724
98.262028465672
98.3287368829768
98.3473629513447
98.440975084888
98.2673115202864
98.1097839422834
97.9711456311862
98.0302023106995
98.1106381883612
98.0430462804956
97.9538173735065
98.0555556437454
98.0549104197072
98.0994159697556
98.0188068908494
97.9326259981315
97.823119758609
97.8784845640384
97.9319797912799
97.9967733938438
98.0676993623222
98.1616975367841
98.0827018731734
97.9693543755695
97.8905551593291
98.0333354850387
98.0289346796603
97.9969603888207
97.9697168165652
98.0547892663216
98.1274009618932
98.1683315049799
98.0096930220573
97.9589703550648
97.9865590095953
98.2997582507871
98.3220606520459
98.2015574278416
98.1175375549189
98.1713242877104
98.1771275751606
98.2626688050275
98.260260430736
98.3486673937372
98.5081949866251
98.5895958132498
98.294678919093
98.2496086067804
98.3422713888438
98.5884663323788
98.8099515577677
98.9940257211126
98.9040754803168
99.0462125297602
98.9103266139069
98.784119963332
99.0152368033376
99.311968128689
99.1398747780312
99.1195662713587
98.90797067025
99.1113027717581
99.1309885182063
98.864905144507
98.4463560420546
98.6222950626361
98.9563738918006
99.2743170799066
99.0652864229897
98.8298573817654
98.6330403586434
98.7359656583801
98.7184221934849
98.8638243456285
98.8210086884484
98.7279094956801
98.5316987850107
98.4883403130622
98.465187756964
98.7674272567765
98.8313389694327
98.9743377809423
98.8813886749322
98.9429390579404
98.8588992804569
98.7717675199128
98.6458578824567
98.5860668114173
98.5277802697865
98.7316533458703
98.7295870881973
98.7745338940729
98.8328514901213
98.8754276726454
98.6465939220071
98.6785410263199
98.6144059753885
98.5771757194601
98.2275351575121
98.1978355296444
98.1632967604823
98.1054424157749
97.959611310304
98.0423663274959
97.9931619756697
98.0296063964263
98.1432411114359
98.2265814205225
98.1055503802491
98.015812868469
97.8065666117699
97.8012868412575
97.9265245141848
97.9272198792707
97.6963927284706
97.5251091772997
97.4653545235515
97.4681636933863
97.6552534013101
97.8267301537521
97.6017759287369
97.5487556135699
97.716655394383
97.8559981189032
97.8158473138148
97.8670117748152
97.7383316463675
97.6840044302523
97.640646947305
97.6418360608668
97.6127228074066
97.6509305078974
97.5444730669142
97.6132772118881
97.6565712284592
97.6165043252571
97.6578411499329
97.715541636907
97.6669923624786
97.7234218089486
97.7339899621454
97.5974473076478
97.365976898624
97.267169520313
97.3393488065431
97.5610621773254
97.5643182727897
97.5834807610381
97.5259244661253
97.5565037747291
97.6175927960056
97.6857974760045
97.5921736129077
97.6092344110004
97.4507603504666
97.2766456785057
97.2176613747142
97.21264734183
97.5006873406609
97.5635411413798
97.5166931717235
97.5853113336959
97.482973788943
97.3216459652906
97.135236893073
97.1212816945649
97.2805095220543
97.2261206820729
97.4477711059645
97.573184954518
97.5456240757862
97.5487705397146
97.585335172282
97.4933958008276
97.2879840412073
97.3186087799933
97.4906090494631
97.5276373187246
97.3963669162486
97.2297471402532
97.1652735983165
97.2543999909256
97.2468938583635
97.1330688814968
96.9468075486283
96.9726169235924
97.3480860916741
97.384212446424
97.3152750908588
97.2483932114644
97.3091464224313
97.1956358364787
97.3254590140667
97.1548419242452
96.9432006381225
96.6321324096537
96.6874666588241
97.0048562452261
97.0553337518191
97.2205066256859
97.0260289983398
96.8868424881009
97.0350265956231
97.1252440164558
97.0041756133148
97.0684058844342
96.5839188531511
96.3195075853285
96.4745617475046
96.6507645403111
96.6803304055888
96.5561059427009
96.5801280279499
96.487119210844
96.3856397643093
95.9781902537581
95.5809494522001
96.2299775976763
96.3141143297472
96.4925263189237
96.4583805718106
96.4092553650719
96.13914395755
95.8076095050883
95.0780559248033
94.918505025363
95.232448829279
95.4446216660138
95.4824975081867
95.2089329899723
94.8801762856686
94.562361084281
94.2069109550569
93.9100951682471
92.9520697263186
93.4813795039397
93.4034879744646
93.6653773659186
94.0310719481506
93.7477097710899
93.4228813047721
93.0356405618954
92.3366119907543
92.2112288016384
93.0034288245697
92.8564576073672
92.8466772689678
92.3900152644916
92.3656296775955
92.3186386029549
92.0305777018744
92.1929684954139
92.4621646734946
92.3039958369818
92.096414087906
92.3523323986381
92.5376532401482
92.0682877236655
91.4079470899506
90.7073131304823
91.6537382567398
92.061461433684
91.4780113080999
91.6908557389252
92.3771357651402
92.6163812629036
92.4390984983853
92.0391562954349
91.5398776678344
91.7818775492644
92.5604201038601
92.5939331000835
92.4826034522626
92.3542380121791
92.3930971493634
92.2544312913668
92.4928082971967
92.5512885447419
92.2908024219953
92.293082765811
92.8961343946523
92.9785062432368
92.9219803382789
92.9534176600703
93.0174774059398
93.1073059494224
93.109967925251
93.1700415157001
93.1881421401825
93.1485211901218
93.0326698346246
93.055085567737
93.0453962241418
93.0251252705662
92.9695948016441
92.9728168221812
92.860241235413
92.8947574959038
92.7067918590152
92.4504750635805
91.9509061248292
92.1195645245951
92.4490302013688
92.1353593795455
91.8303619966461
92.1712630606626
92.2625684967367
92.0350642817385
91.5515297301816
90.2079903971375
90.0548002162112
91.3404934916726
91.5271324611679
91.7202245473638
91.8099012710531
91.681939635471
91.7608968228969
91.1367085929416
90.6042036868698
90.0688860464759
90.3546196665456
91.168274631117
91.3864162383227
90.8135024997913
91.053827853647
91.3185807425085
91.0036517231754
90.6592887888753
90.3931696148662
90.2005403476486
89.8000186216696
90.2819849389126
90.1916316116887
90.3957991594332
90.7122345748981
90.4046782769888
89.8946135669184
89.138817675709
89.3835511160523
90.6375969881495
90.9226529016793
90.5923486440683
90.3090258503176
90.3332529908997
90.6850694535265
90.7997498386182
90.2021392946615
90.0182513084636
90.4124155094572
90.7109799390092
90.8511572085775
90.7674813841062
90.7446442379867
90.5663090378166
90.015854631859
89.724204777651
89.5479730229471
90.2031850886213
90.4891944035139
90.2124869683487
89.9206342711834
90.0845685089252
90.0151694257329
89.2325866791495
88.4516201498751
88.7712146265876
89.5963019429709
89.4774210007962
89.4268836295925
89.1547619795144
89.2909438052097
89.3861400005877
89.3582995825015
89.1412441614554
88.8424531959703
88.2182068222427
88.4709233585931
88.7533923766073
88.4850080035777
88.3749026746039
88.4239151079898
88.3458302968493
88.0051981606752
87.8553921535628
87.3384638753464
87.0512452198679
87.5433057656857
87.5821626149923
87.5076527280993
87.3596408177664
87.2959975947668
87.0881332015903
86.8056399925297
86.7036647567567
86.7015381326146
86.28419984788
86.1095061574946
86.0879976569494
86.1079314535076
86.5008104151446
86.530877407239
86.3181960918121
86.3175125451266
86.7165262038617
86.8290944303634
86.8467302846476
86.8536471820223
86.8359014690974
86.7628210559613
86.8072492336758
87.1336402171288
87.205301929198
87.2582340722877
87.3694528301317
87.2609368633435
87.1675660839525
87.4989904536137
87.7911150980378
87.9141432142223
87.9703203084534
88.1141014777109
88.2496203365772
88.3534140525913
88.463686066521
88.6109712046302
88.6991243123432
88.66722382525
88.5256419262383
88.671511811134
88.9478960021926
89.1697581128879
89.2962803696596
89.3723799765766
89.4483356551899
89.5491626211659
89.6464097408293
89.7104330189159
89.7189099778798
89.724610732102
89.7981783103361
89.9335815060027
90.0306962214804
90.1396833548219
90.2515353470007
90.3250716509026
90.4109409574086
90.5041441627445
90.5685313868766
90.6636855294355
90.7586833304731
90.8451169991135
90.9249127152572
91.034764590155
91.1262045046468
91.2040648759555
91.2576832273995
91.377754225428
91.4995001744205
91.6055878303935
91.720552538528
91.8403651619657
91.9442409467238
92.0415074993837
92.1071730522571
92.1952942060097
92.2936482867317
92.3932656762005
92.4817804858535
92.5726702920188
92.6617306589423
92.74249461892
92.8258413110622
92.911985047995
92.9897097022197
93.0793893483112
93.1419272723379
93.1925520916931
93.2489903980074
93.3102114517053
93.3747638582761
93.4331577787078
93.4567164106813
93.4841120666324
93.5474929113981
93.6136442306788
93.6330975795237
93.6604973759154
93.6854007294911
93.6981210213092
93.6909544310083
93.704441150322
93.6869675385319
93.6319327850064
93.5928520604681
93.5840677763902
93.5262745780135
93.4460350120511
93.3745967508699
93.3052085457792
93.2003427484394
93.0891532396469
92.996798200664
92.9046147525296
92.7891152681778
92.6863371233827
92.5697858609016
92.4618375860147
92.3514123404447
92.2399081666152
92.1322142931648
92.0460955818825
91.9511302796958
91.8706655199663
91.797776015189
91.7373958466896
91.6622025025343
91.617035089337
91.5745904346497
91.5303107211117
91.4865467828733
91.444619260478
91.387922013054
91.3379541771788
91.2724153788224
91.1973543831896
91.0634022640899
90.928390200061
90.80915531282
90.6918853215206
90.5478450581928
90.4142949296975
90.2855047111327
90.149225145443
89.9857330925347
89.8251676954839
89.66085682848
89.5092430716658
89.3346198290812
89.1504024981003
88.969674255991
88.8202614077198
88.6429054773328
88.4920554999055
88.3850855697304
88.304529516164
88.2156063346819
88.10258461979
88.0001443393991
87.9681173993954
87.9310460678133
87.8896477875298
87.8502763557355
87.8698030110701
87.9256606649482
87.9756802945795
88.0237864482833
88.1468723277907
88.2871121474193
88.4283227387181
88.6057929930756
88.8354856629701
89.0693822164661
89.3187228781054
89.561616674861
89.7797141752084
89.9862013300481
90.1989593052356
90.3425039278595
90.4826406766047
90.6532885953716
90.8277058867021
90.9670948007187
91.1000907021258
91.2344747795087
91.3703457834896
91.4679984907782
91.5232350667158
91.5673488932033
91.6505812261017
91.7211659966878
91.7651746927576
91.788754429187
91.8318789948452
91.8395287985048
91.8300898790335
91.8701109464099
91.9281027937317
91.9684884169915
92.016762362873
92.0362391611172
92.0338635103524
91.9754688297586
91.9418702136523
91.9726189963776
92.026550491602
92.0779669023469
92.1203386208996
92.1052649940621
92.1140964783354
92.1299654433771
92.1447892727977
92.1570021608698
92.1652513224989
92.1375839080091
92.1384475490441
92.1754555231763
92.2032127386922
92.1811769067607
92.1579221125576
92.1572974540132
92.1653967876798
92.1674180598932
92.1481534443041
92.0698556744613
92.0087857378325
92.0444772792042
92.1601329770159
92.2923941199949
92.4181252215576
92.5303892162634
92.6497722043134
92.7589198470919
92.8473117635504
92.9088913762681
92.9808929296343
93.0389042655016
93.1157943708889
93.1930031910937
93.2871993857979
93.3569386075436
93.40090167486
93.4370909448114
93.4661717468648
93.5236871229606
93.6035301131423
93.6319503801318
93.6610280176766
93.685069221431
93.7280941828604
93.7718734537787
93.8144926704549
93.8120484372681
93.8190539650176
93.8629937934864
93.9120155820542
93.9037549553072
93.9174119283381
93.9456232290596
93.9802480566518
93.9750939585066
93.995621760608
94.0449618988913
94.0652095993794
94.0240515031322
94.0086333064409
94.0223325557859
94.0600134175768
94.0942211091244
94.1180882288284
94.1155183357981
94.1249397741811
94.1221115972592
94.1070724077837
94.0816310184747
94.0909750705442
94.0741179777
94.0456872943814
94.0408795096005
94.0242851468362
93.9072026001248
93.7515402033897
93.6415763238003
93.4832528443336
93.2231139968024
92.9928386436418
92.7938501513537
92.5980298762018
92.3470263445357
92.1025667559133
91.8677733780435
91.6721934210116
91.5325355988259
91.448493601466
91.3777326341169
91.3818286874431
91.4582582727109
91.5694376685588
91.6553574898696
91.7190253668844
91.7314753122274
91.7474737092607
91.7452082626412
91.6539788014365
91.4484845241513
91.1647717735994
90.7769753807866
90.3497187280573
89.91861343991
89.6086064200535
89.5732241673582
89.9085002138146
90.4843535257124
91.0991124137764
91.6151980498657
91.9819465125858
92.2738717893282
92.5097062576374
92.6371606545711
92.7402802247444
92.8051305496871
92.8862453684529
92.9255690613684
92.9681524185601
93.0323973258478
93.0419587148767
93.0474205793968
93.1196821369328
93.1155409504058
93.0894941682169
93.0764089933355
93.0822050140973
93.1115998803333
93.1131498797668
93.0668198470429
93.0840778847098
93.0891866537143
93.158769157886
93.1756853230358
93.1229925174076
93.1541940726897
93.2171448260805
93.2092625334015
93.2056379325435
93.1970780896939
93.2185743357036
93.2261035538719
93.2642507319025
93.2815255592456
93.2561527996148
93.2770383597509
93.302790151098
93.271874719983
93.2649335720026
93.2524692684755
93.2615170513189
93.2590686075031
93.2530677661665
93.2569924287023
93.3003939801269
93.275082417529
93.2824230683351
93.2773165391526
93.3021122152345
93.3174410707999
93.2692019406575
93.2139092579878
93.2140855679719
93.1631385452455
93.0689081550737
92.9505442308255
92.8342957736154
92.594184854489
92.3256880096298
92.046355521546
91.7236337348498
91.3467926463947
91.0427535858017
90.7568379472884
90.4852486839517
90.2285179787353
90.0662498975154
89.8784728512979
89.717991147326
89.6140134950874
89.5567044662486
89.4603953283596
89.4152923916589
89.3911450852473
89.4749392853092
89.5528927991236
89.6800609936389
89.7648296707204
89.8685231385119
89.9738680000509
90.1722174820969
90.1549235789814
90.2921426921345
90.2070156224993
90.6484297899089
90.8872657846931
90.6455602191296
90.7573266334026
90.6245887633597
90.4554408180871
90.4374187096997
90.5562715920376
90.6041816637469
90.5970764835236
