1798
3999.43349933624
650.420452594757
1
128
4
94.0373028027265
94.0707982674269
94.0779985152214
94.0488419355617
94.0222522189622
94.0945146603085
94.1194152256167
94.1849340044167
94.0817593229439
94.0173282290229
94.0120628247833
94.0267029894325
94.0131065509141
94.0315029092521
94.0392736202141
94.0345051640442
93.9714376690358
94.0861611116555
94.0579579431599
94.0622530446584
94.1027770019663
94.1530629115623
94.1030056400231
94.1396630409245
94.1391724182096
94.1579190745256
94.164135179443
94.178958910236
94.1124932653442
94.0981135408539
94.1090505530378
94.1415945341515
94.0707264778101
94.0282418480432
94.0654053086216
94.2102281081936
94.1404162279877
94.109299261075
94.0828119938624
94.1184024706867
94.1163019018312
94.0744781306917
94.0221753167305
94.1137271414241
94.1922856398173
94.2043497990368
94.2315737658037
94.2942969335394
94.2098201687081
94.0185868212106
93.9063824244203
94.0609606314516
94.1392258374044
94.2292878318226
94.4019258919679
94.482598695606
94.4301792123709
94.3203260165144
94.1352220355444
94.1337798263259
94.2578972263938
94.2295508441747
94.0310914516382
94.0887552405
94.353346979592
94.4999653453388
94.3991382890288
94.2919543461031
94.1136154216663
94.0324588287731
94.1834632442912
94.4420749731906
94.3580930389076
94.3565412450708
94.3726465844296
94.2713869732998
94.1233402539261
94.1748054928438
94.1670437894333
94.3464947831211
94.4617353434641
94.5325349562486
94.5312536001236
94.3760538148423
94.2190811359142
94.2272676200876
94.2504111424855
94.4071132494443
94.40835704189
94.387358700295
94.4992104245639
94.5046124404209
94.3943065258892
94.3673801895375
94.2588329125847
94.315652636856
94.29558570433
94.3978933765673
94.4706389383424
94.4891035687628
94.5253479162301
94.4764543201238
94.3034383991064
94.3347355569821
94.362070992517
94.4193987067324
94.4859856125051
94.6533301779054
94.6981610456368
94.5896043722706
94.5259688588824
94.5345286148194
94.4542331341231
94.4236052171161
94.4194259715702
94.45374817455
94.4920328086021
94.5459321110106
94.5776309403678
94.5384119393184
94.4680023434072
94.4741399395077
94.5830166076282
94.5910941947825
94.4497832551172
94.538672400605
94.6229546532418
94.7409201025624
94.71162921157
94.5943294127368
94.5700031431881
94.5336846638857
94.4876048869355
94.5275705704351
94.5745241577497
94.6609693268988
94.5838109942367
94.597690884644
94.6366667761702
94.6539498940301
94.561469663646
94.5211659081286
94.6545407310856
94.7576295353338
94.8001975306274
94.7060748583755
94.6987087863068
94.8752269665478
94.740741647775
94.6975052837444
94.6954794596881
94.6891163605657
94.649900722238
94.6607204996862
94.5841552901444
94.6480853718365
94.7125446291918
94.8239658606837
94.8237628555649
94.7949430571574
94.742971208046
94.803395623355
94.7412235904322
94.7591083441771
94.7488013501897
94.6367177385629
94.5423813058407
94.636695461071
94.7381913740604
94.8360764296397
94.8190650728384
94.7689299598876
94.6179610184965
94.5267484476679
94.5649586573159
94.6395191671323
94.5901821166889
94.5785759827174
94.5922199700821
94.6115704623168
94.6079717561763
94.6426338878212
94.5115552555554
94.4294956696825
94.387579597313
94.2356125590953
94.0532877253293
94.0274225027281
94.143424641814
94.3450222114313
94.2077417450112
94.0540738730542
93.9723344890529
93.9239256380395
93.8297567462845
93.644095362731
93.4694407331488
93.4279349728123
93.2605517714445
93.2644196633678
93.426434561795
93.4217232634638
93.2877694455151
93.2605795797025
93.1507706337157
93.0270885959682
92.9014848951435
92.9233304932129
92.8690645202306
92.7009452757426
92.5668950745728
92.6065858748957
92.4972623391392
92.392758532813
92.2917320852686
92.1433171277493
92.0125842206335
92.0088608991687
91.9605507321891
92.0027244726574
91.9561884109593
91.8054876092023
91.6466890196249
91.6338308229181
91.5309613850906
91.3771695999631
91.252796966662
91.1783425150573
91.0944321204494
91.0435477014254
90.8939720008342
90.8264901669605
90.6886881813911
90.6931348529177
90.7176299886695
90.7689174023911
90.6621367310057
90.5026608521166
90.2937415311475
90.2084215802316
90.1278078915719
90.0917870913911
89.9626646474163
89.936687264559
89.7370192533635
89.6352166433942
89.6577132375256
89.6768388730241
89.5308772685433
89.461001961139
89.4269519760144
89.2953490154746
89.0468736188811
88.9980564764372
88.9092388792665
88.7287868062684
88.6611715184867
88.7824324555168
88.6886661494236
88.5330797641301
88.4147026240365
88.3129800845332
88.2514032794163
88.2622938918185
88.008324175233
87.8826924721317
87.803878053083
87.7502502931792
87.7269544763692
87.7146763518944
87.5572460049326
87.4325180002125
87.3562088205367
87.31976482973
87.2169826984591
87.2053955223048
87.0223194118867
86.8471703487006
86.7747292796854
86.8756479448382
86.7450962892878
86.6249987466526
86.5336679690699
86.4801397163315
86.4411631636796
86.4217918132289
86.2875158837663
86.1088731365104
86.0152695611334
86.0675109782798
85.9710540949387
85.8759585138121
85.6736168429074
85.6739233670884
85.7171065052067
85.5535623815354
85.2956061501231
85.2326192720447
85.3011943652523
85.2981792169379
85.1122014880271
84.9928602710705
84.9791716817609
84.9910808871257
84.8577293945764
84.7231493153803
84.6380684241703
84.5348531318277
84.4258910082674
84.426117696024
84.347154041639
84.3061503986213
84.2389566686451
84.176235978849
83.9627367446064
83.8991201689508
83.8824901853383
83.9396103865433
83.8231101120974
83.7143460311186
83.6661696306438
83.6470256052734
83.5351537582526
83.4532896816156
83.3843770920221
83.3643781785415
83.2947503948353
83.2411898850206
83.0803246457087
83.0497419562411
83.0595758462795
83.0438283160302
82.8930034571817
82.8223054143436
82.7849413948785
82.8310983395243
82.7541861688925
82.6766442162073
82.5848636158586
82.5663430230591
82.5854598090658
82.5620145889632
82.3970088719388
82.3753362616903
82.3571979622179
82.3311582596839
82.3330389204912
82.2903427153392
82.1615019530041
82.0616002797319
82.0190825259194
82.0860729895061
82.086516281854
82.0713613724541
82.0134889206436
81.8709440797071
81.7771751284374
81.8867596391606
81.8479722459183
81.7843986027511
81.7726316940414
81.8116899567846
81.7611608538529
81.719467582578
81.7366819989851
81.7675142753444
81.7022495670822
81.6767487111213
81.6762977108516
81.6940579626179
81.6419188786041
81.6326999143587
81.5773843222802
81.5778698590186
81.5472634139121
81.5697406680347
81.483222206998
81.4085930446505
81.340668223778
81.4232883728728
81.4580155478225
81.3872386036339
81.3470806994175
81.3927749195345
81.3759008410101
81.3041726533351
81.2485928898264
81.3321817913191
81.3109972008717
81.3307649920554
81.3150929734214
81.3152475165398
81.2584202707938
81.2858081678638
81.3102413664348
81.3506396327477
81.377071139835
81.3543791206137
81.2823579506363
81.2964832271061
81.284921086874
81.2921023600195
81.2916875421538
81.4035023716891
81.4233363903399
81.3871266372183
81.3205384350944
81.381201162377
81.3659981317994
81.4461751683485
81.4714244820726
81.5212480528904
81.4819252744034
81.4290277308277
81.4372641683028
81.5232407200542
81.5332446987199
81.5536591665479
81.5091126949758
81.5243065914673
81.5237358922989
81.612174837299
81.5732713451725
81.5955307827036
81.6759188027905
81.7055940649341
81.6743018483535
81.7255153034853
81.7601362507839
81.8320847916229
81.78660328271
81.8292003875364
81.9226219554092
81.921625740849
81.9271483588516
81.9955636189635
82.0235988182925
82.1616806129666
82.2754542263489
82.3660974102044
82.2974887098613
82.2444975531709
82.3268628390732
82.3968881310051
82.3520837930785
82.397447436912
82.4544817860185
82.5433272596015
82.5354123089183
82.5395930678956
82.5500677911551
82.6879083956502
82.7569825965379
82.8600258036769
82.9146359323706
82.9284454606106
82.931572328422
82.9737659373904
83.0180512702756
83.0987199520138
83.1256770999444
83.2282188835358
83.3086834077207
83.386855307982
83.3502950924212
83.3593254553165
83.4261480327565
83.5081527862744
83.4842944624615
83.5305976788585
83.577387261295
83.6790951017161
83.7724442539228
83.9223496536355
83.9906621179109
84.0352926375115
83.9857873324991
84.0140747462886
84.0417068864822
83.9921032545206
83.9527852366612
84.075799051979
84.17061796038
84.2154976932852
84.2101540805578
84.2089495360206
84.2115161440296
84.3127618194318
84.3666189511974
84.436368122483
84.4709459628049
84.5459134865332
84.6130187931658
84.6949760077764
84.6911920851991
84.6694190956536
84.6368209615341
84.6782681040037
84.7355796776886
84.7310022685717
84.7274949486994
84.8232301794153
84.8769290552166
84.9379044721716
84.9335157550779
85.0044064390577
85.0807629326722
85.1608513136465
85.2028370910227
85.2108665572082
85.1658417316085
85.2549188698445
85.3169972377933
85.3718635850404
85.4799137774085
85.5350080069708
85.5166063912596
85.5847729108272
85.6161877221169
85.6606254314997
85.6846864512487
85.7105117076296
85.7178112089204
85.8113074684781
85.8411444421758
85.8919891319591
85.9529619195627
85.9856797928116
85.9845945888978
86.0905931650576
86.1123300750905
86.1266606270891
86.1464133402656
86.1736060659686
86.1488642683306
86.1414373315523
86.1769075600439
86.2756400618059
86.2069797889865
86.2568598161571
86.3297571181183
86.2539514168531
86.1398783406032
86.1579397829722
86.1782959249348
86.1140619388095
86.1301983249103
86.2250536698124
86.1732385247038
86.0706763806392
86.004807360153
86.0007348242093
85.9790219075324
86.0109207200599
86.0251077352661
86.0107726460466
85.9534236947271
85.9748532197497
85.9855314719828
85.984422631462
86.0135064884164
86.0345974481142
85.9898953995893
85.9681671859587
85.945893305949
85.974953072772
85.9466788561798
85.9413334711829
85.8962985391391
85.8849709443077
85.8504682739672
85.7625416875408
85.7455495912481
85.9005191854447
86.0011641308676
86.0271102392232
86.0391524207318
86.0644910500793
86.0543660532208
86.047407142075
86.1015870663173
86.2072213225927
86.2137239717585
86.2783499016041
86.2570794550142
86.282461441008
86.3459281510006
86.3638484407457
86.4132254597038
86.4620241800748
86.5179606325647
86.6004519432637
86.6444706472284
86.6873822259943
86.6746598660182
86.7202954423835
86.7586885833325
86.7807332051159
86.792984325706
86.8359913822966
86.8283764194962
86.8730116625423
86.9431833446096
86.9563628958915
87.0004825725664
87.0786930396048
87.0946663909006
87.1402079117586
87.1548700291468
87.1499431832828
87.1931262009303
87.3167998013163
87.4132149971265
87.4795816001496
87.4918280827712
87.4954737627686
87.4701026129791
87.515514440673
87.6096939965353
87.6147000681695
87.6406771630966
87.7086182581621
87.739957176625
87.8208171247695
87.9040778871642
88.0091466137609
88.0435755132757
88.0606086378456
88.0592206994064
88.0906134196419
88.1458299142057
88.1585360423693
88.1308570110475
88.1939731941439
88.2551388051656
88.2867845345953
88.2996265141319
88.3678085186699
88.4467422275095
88.4778539359374
88.4780539202767
88.4783469745807
88.507777980622
88.5748219470703
88.6273593194898
88.6457673554671
88.6186152892684
88.6445897393029
88.6999935309961
88.7879936040556
88.8457686783199
88.8597182156623
88.8414894721975
88.8286613723102
88.859357018226
88.9038474756471
88.9241385677887
88.9770638098464
89.0286362896535
89.0156664992676
89.0316883934837
89.0883491124708
89.0971546438144
89.1329891752389
89.1193967773572
89.1243832038236
89.1492913693524
89.194119210802
89.24257874337
89.243279391697
89.2372383638191
89.2959892580885
89.2964856279408
89.3012187759246
89.3476416667081
89.3634582130245
89.3782220103737
89.3934209786726
89.3916021179038
89.4313980829131
89.4156077880777
89.3747337922841
89.4126980004228
89.496595739948
89.5239763943719
89.5940828794888
89.6282033258417
89.5917858922999
89.5764106589842
89.6177943890502
89.6442699686844
89.6857757153299
89.6790429422809
89.6906221187026
89.7157039942244
89.7423361647722
89.7861186267251
89.8062328541684
89.7674174988457
89.7881025566222
89.7833465869616
89.7959879608483
89.8431383496203
89.8758269131784
89.9174705953066
89.9174534198445
89.8929256655985
89.9406577197429
90.012816139731
90.0241455638896
90.0453299226187
90.1069743161246
90.1057583101194
90.1264801193513
90.1340068773029
90.1443106796619
90.1840818382989
90.1525112388018
90.1041433167561
90.1010601052466
90.1099341550854
90.1293057643238
90.1351390997516
90.1560695716717
90.1708796008717
90.1997166596562
90.2501332548198
90.2737343066396
90.275141313569
90.2789000528113
90.2873632328104
90.3370517216183
90.3755656785381
90.4158670610316
90.442487134282
90.4134102850684
90.418497646325
90.4743328931356
90.5262688379486
90.5647878723653
90.5901213575379
90.5923885437355
90.6607590064193
90.698108101047
90.696422684783
90.7718420684953
90.7899044854022
90.8295011494793
90.8690481931854
90.8768280785262
90.8900143486645
90.8753147499104
90.9348529128191
91.0439347378588
90.9954662804095
91.0128104671069
91.0764693450413
91.0374278912193
91.0135832441587
91.0385998730962
91.106845714288
91.1493280330038
91.1844548326476
91.2324457288945
91.2557079518242
91.3499606016233
91.3968431480218
91.3522033993804
91.3747802859461
91.42744236203
91.4494331630089
91.4186106451468
91.4435747568959
91.4743985907992
91.4520411609433
91.436142249273
91.4618254484246
91.5665626322445
91.5223386772625
91.4701579863942
91.4984106207913
91.4726159428501
91.5514951276668
91.6369543370643
91.5903058313044
91.6044574330092
91.6800795618834
91.7032306224425
91.7056085150097
91.6977124354003
91.7397060689307
91.7322907837288
91.6492766585692
91.710837232385
91.8639919639705
91.8394789080582
91.7600765933337
91.8028417825474
91.7680644562491
91.683249197293
91.7249492453441
91.78442578948
91.8218607352462
91.8342718042728
91.8179748740322
91.8671424348052
91.9043827149984
91.9266270984708
91.8895363300244
91.775965682681
91.7450660633697
91.8785865875198
91.9804895138785
91.9731603237221
91.9872057516807
91.9660092701355
91.9617597352701
91.9424515641852
91.9581485485965
91.9849185233288
91.9405853153611
91.9358432207046
91.9888859200118
91.9617158143616
91.9576507106667
92.0894744098551
92.0639427093658
91.9509311779084
91.963336374641
91.9847115270743
91.9828632569431
91.9794170547186
91.9775520125731
91.9958860685223
92.0532002820776
92.0651143590288
92.0477942074709
92.0908260009234
92.1041927134925
92.0699696293971
92.1137946291955
92.1327300620913
92.1556535640798
92.1708301324703
92.1574742100665
92.1331830641336
92.1545570331242
92.2210792743425
92.2349882065068
92.183882250075
92.1641794659072
92.2441712687436
92.2958153045238
92.2014698527737
92.126202967279
92.2122770238735
92.1996015348962
92.1444630933071
92.1721276354752
92.2012594228529
92.1469639381439
92.1574300392202
92.2139312011399
92.230493874253
92.2429138587253
92.2087468578923
92.183565648353
92.1859468660147
92.0985876752525
92.053465443811
92.1118409685103
92.1259101596353
92.0852602576455
92.0465696872155
92.0638212740873
92.0719414520457
92.1292249851153
92.2755422348292
92.3576303551484
92.4220039772783
92.3885026513371
92.3942837341632
92.4622759073678
92.5236228246149
92.5670079934222
92.4837142047922
92.2804924916858
92.0861389791805
92.028482469384
92.0773796832092
92.1077611256656
92.1340854652572
92.2353139425233
92.2798696079864
92.234462468288
92.2605644909614
92.2776927462966
92.257921053855
92.1578642033668
91.9713876575509
91.9537122667759
92.0761349554359
92.1489444238251
92.2051513343848
92.2601035958227
92.328627066469
92.3566997914382
92.3447706401328
92.3662895472973
92.3719827549543
92.2846029858888
92.2969777225984
92.4218078502091
92.5101403158979
92.4496636646245
92.4313927656413
92.4908005443482
92.454882867277
92.438552837234
92.4085082983566
92.4815733526068
92.60609444167
92.6688239965202
92.7358133046114
92.7452280062819
92.8960552283673
93.1102923397594
93.2457532390996
93.1117699600829
93.0289791800546
93.1760450617775
93.3593483084456
93.2575244281143
93.1322591515021
93.2709622827935
93.3266931473245
93.3968612571502
93.625834835647
93.6509963725122
93.6411285114441
93.6693252432805
93.6259176174528
93.5664087774772
93.7183939393483
93.9743062616643
93.9714673490134
93.9004211320322
93.7892278039944
93.885917589871
94.072526211523
94.2320411588767
94.3607402279243
94.2526353993433
94.1653996496807
94.2974028616275
94.2870123132221
94.2245793139717
94.3796634304159
94.646171123395
94.5810028243471
94.27486206241
94.3343303771816
94.7158002435775
94.8112619645297
94.7466748697216
94.8979993365472
94.9247114069179
94.7680393446373
94.6675624806812
94.4322170776859
94.5197458654633
95.0514411966195
95.1647024505653
95.257919075964
95.3506213872376
95.3319406224276
95.6870392670741
95.7388108984346
95.7325658477541
95.5123339645203
95.524162432348
95.7548834907791
95.6052435716742
95.5525126573201
95.9560282586935
95.9563631184752
96.2268853331814
96.5043464148258
96.8723024841838
96.5936282417232
96.4964200950634
96.2761729303698
95.7104348860206
95.3781270600253
95.7533655448488
95.9694601326604
95.6130806033453
95.3929644721079
95.4081162188459
95.2845067713774
95.2511198050031
95.0836038091022
94.7726070754558
94.6287507304731
94.5784499646896
94.458819952498
94.4331319103761
94.362523255906
94.2057683664372
94.1326097338628
94.1809046386761
94.1754615806877
94.2151267634178
94.3084026969809
94.2616343723128
94.0095888144429
93.9093437228124
93.9879770352541
94.1576232167244
94.3178091908176
94.4173595310707
94.4839802266969
94.360312642312
94.2691344842758
94.2598854506012
94.2679892831801
94.2899019583751
94.4323761573163
94.5530512574618
94.2814601192878
94.1924866259724
94.2450705975989
94.4794181650348
94.7702782801493
94.7884437012716
94.769970604907
94.7072595097798
94.527748221425
94.6839086664236
94.941546254773
95.0197154205712
95.0449492688228
95.1779148953796
95.2121863621284
95.1596662221275
95.0718916231047
95.4086124434963
95.9709558642344
96.4346742074591
96.5603440591043
96.4533054107746
96.5611239261065
96.5086602090007
96.3421130734124
96.6320664499504
96.9663579412784
97.1158424850886
97.319707689454
97.6104877410621
97.5182835948041
97.0408229694856
97.1272691027921
97.1115863750687
96.8860640693632
97.1247309428004
97.1962727994947
96.9166838577297
96.6653776811927
96.639923088369
96.7124536647908
96.6943386172906
96.7120457713828
96.7023838268663
96.3491150651346
96.314970290884
96.5081849496985
96.7372847760625
96.594241057579
96.5069879551748
96.4628136821151
96.4060609433101
96.3337728300558
96.3454126025271
96.526489987878
96.9189965358632
97.1453460589423
97.0860386678063
96.8639094565165
96.9104745599141
96.8344679214675
96.7415475228365
96.6712013870094
96.4155921643455
96.359760687422
96.3251417158954
96.2387792407132
96.1432781115168
95.990264706626
95.9822915270663
95.8170531040147
95.6783003940295
95.467318657745
95.4936077451293
95.587420900298
95.5998800227787
95.4335256900867
95.3019228279795
95.2060160818071
95.1866980317604
95.2427524845603
95.1067836185993
94.949742985853
95.0079178011978
95.0327187770504
94.9689202464197
94.922136044148
94.9829053221121
94.9144266049508
94.8517547435871
94.8552072862302
94.7542288574017
94.739821649742
94.7287135149144
94.6561358051711
94.7184827384918
94.7824399846855
94.7282584291646
94.7713381230329
94.8282420798169
94.7520873058103
94.6741876390472
94.5813114886035
94.6946275992246
94.6607842390728
94.6679414897542
94.7980552295401
94.8446125265166
94.8293202902002
94.7199914303655
94.6085602635757
94.6491005468977
94.6796276426653
94.6844565145309
94.5979333657147
94.600733911488
94.7023109443872
94.6653376330241
94.6007882008434
94.6251898300108
94.6041060485104
94.650575694972
94.7054421271689
94.7382197997584
94.7016504494453
94.7243786116122
94.6889210509837
94.6664299462077
94.78101415407
94.8206725319103
94.7511835394159
94.7111822536583
94.667590563501
94.6959916869141
94.7294038681023
94.8174317845678
94.8420946155164
94.8466190495556
94.840390538196
94.7872578220548
94.7456730688837
94.8306860823478
94.8833980000877
94.8310336016014
94.8083717155204
94.8253029255223
94.7863307249838
94.784641107124
94.7451377807317
94.6704797247886
94.6210543165837
94.6386333170214
94.6016297711967
94.5682145591249
94.4976226293784
94.4763924521184
94.5621648982052
94.5379185693547
94.4253633332274
94.3343619627159
94.2937672335672
94.2205171452808
94.1485578321472
94.0825085934408
93.9224875120578
93.8042226478273
93.80990829055
93.7966728806661
93.7183743346907
93.6729690531514
93.5076126708993
93.360757219551
93.3071663986926
93.210816257889
93.0703991000319
93.0352151386134
92.8588060731373
92.6905412238147
92.6662001083744
92.6455936757179
92.4984834711552
92.3789769366415
92.2282393477538
92.0791111500163
92.0001578661223
91.7770910102273
91.5228489792703
91.5481995683252
91.4844486027819
91.3605162961698
91.1219377758753
90.8770416347732
90.6495304985038
90.4746996174089
90.1919621199076
90.0190048315454
90.0596034271846
89.9937900642189
89.8176402511606
89.6165044107546
89.3081336763855
88.9969223056563
88.7823655696488
88.4964663516544
88.0729005858839
87.9402524938559
87.6807433059909
87.4849614525436
87.2712289015004
86.8194212996138
86.368331799083
86.012706221149
85.4821858515333
85.0536480044697
84.8990237503664
84.6067180937487
84.1710621159804
83.6677076653374
83.2047466409521
82.8546478020596
82.3849777825399
81.9965627138525
81.6891685771211
81.2356721523643
80.7178167804277
80.3179510192375
79.9302450660188
79.5124407078655
78.9942283450616
78.3364868795382
78.0887222540388
78.1645413926546
77.7644991815358
77.3772977492934
77.2480113424101
77.001090546598
76.6364827815931
76.3011811025365
75.8340596876833
75.5300812503757
75.651364617066
75.564091772453
75.2691348842884
75.0151382717356
74.8331478514168
74.6007954984946
74.4739631004938
74.454723411345
74.1727538074042
73.8587277965447
73.8373259561878
73.7953342918661
73.5672947190471
73.3228789435148
73.0942103715875
72.9133069353735
72.7045655362246
72.5186921929178
72.3341498372813
72.1644701057984
71.9899169237629
71.85206241318
71.7277108957392
71.6399458367117
71.5289859896203
71.4379735530599
71.3512589981915
71.341271296691
71.3100803480833
71.242781052257
71.0050432570905
70.9615521305041
71.3623966378151
71.4094633704338
71.1694029066609
71.2739526958119
71.4274229907437
71.4286270088789
71.3987381981565
70.9818164402552
70.4537858742629
71.5664650284717
72.1228713480975
72.2232381786371
72.2707094555497
72.2895697613783
72.4707250161192
72.4365628608753
72.3931626525787
72.5168174314727
72.648214215286
73.7029027274438
74.5547315622019
74.4574030765566
74.5107333978641
75.1036127373959
75.3299045846568
75.3930765250478
75.6557865861655
75.9641359322038
76.0374875526678
76.7664644137099
77.2465928285101
77.4390419476515
77.8304839201321
77.9545832845954
77.9936977544499
77.840414441597
77.6621269545743
78.9760781671956
79.8468660661622
79.8625505186452
79.7656599599128
79.8215928517419
80.2846956567075
80.8798591458276
80.9560154555491
80.8854603766076
81.2792756961548
81.8287582660626
82.1671028455039
82.2598779696068
82.3213948538363
82.3822093569516
82.2941186633375
82.1699396802071
82.01258107182
82.0550475206007
82.16962322698
81.8882057698389
81.4255880067539
81.0833827994536
80.9386495986802
80.6027810854284
80.0651465910602
79.7520505631029
80.0938429537078
80.0029840014344
79.7030699363002
79.3869620151971
79.1760686934943
79.1046832652302
78.9984984266952
78.8281557864856
78.6228241844429
78.2628377174086
78.0497721609006
78.1575491922386
77.9738144227734
77.6140707535902
77.3175819942237
77.0451004329012
76.6626400036473
76.310052566136
75.9472882410086
75.5108368553697
75.3839014766328
75.3070473460755
75.0521456158845
74.7480262460185
74.5143719883673
74.3379420051776
74.1172957458535
73.9521813094178
73.9206829657663
73.7786471870729
73.6356115196294
73.6340378432876
73.6025058379178
73.7494748029674
73.8675408405328
73.7395396256166
73.6032676762197
73.7251191813558
73.8606469251947
73.871894972404
73.8847622906852
73.9089069935554
73.9303596976743
73.9323116631799
74.1445463325076
74.3866308777098
74.478784727382
74.6187599299729
74.7437180571963
74.7895781101505
75.0589905849571
75.4303212935853
75.6265680260564
75.7536942765199
75.9155360887779
76.0908192318294
76.2452669167687
76.4094413333576
76.5860975849939
76.73259643646
76.8708454746162
76.9346592535949
77.0500885170153
77.3296743058116
77.5497168075043
77.6626982854648
77.731470756576
77.8132450939024
77.9248103885772
78.0252356886307
78.1145764047233
78.1876281456104
78.228799949482
78.2935106417998
78.3955821322729
78.4847938574681
78.5618954720863
78.6516303896329
78.7278856154673
78.8117328469007
78.9009861312027
78.9896222673504
79.0815384323142
79.154029567392
79.2045037789044
79.2844698296456
79.3697837909398
79.4341824072662
79.4950409827908
79.5473683748946
79.5884882674545
79.6372459816924
79.6826340623178
79.6762257652799
79.6625604711802
79.6582257583034
79.6080237692495
79.5430819849282
79.4763914125214
79.4298743994241
79.377352616886
79.3120509969301
79.2585211126329
79.1687747315756
79.062260145139
78.9872444917204
78.942885679371
78.905276186765
78.8470055941685
78.769930866701
78.7145182936028
78.6549317442362
78.5969276034114
78.5565563338501
78.4929029741519
78.4558464589328
78.4342370917884
78.429656018936
78.4538218174952
78.4775540635577
78.5143082146337
78.5415894729765
78.5690451602516
78.6168990418407
78.6800619361861
78.7465048143222
78.8350336163323
78.9231864569875
78.9980426900784
79.0739423582031
79.15260084062
79.2645995435707
79.3859351600403
79.5275322771847
79.6341260428504
79.6854603099374
79.7636335189118
79.8870082816058
80.0221678484538
80.1580288582886
80.2664511878382
80.3577679201834
80.4048381209058
80.4296545703938
80.4560719942949
80.4611835378997
80.4500706175013
80.4136064016592
80.3279116383655
80.2259041913933
80.1233426622319
80.0321936731877
79.9587650305647
79.8669283009591
79.7844586466827
79.7242800614975
79.6224133770603
79.5024197728636
79.3959068901914
79.2779645975649
79.1479094214416
79.0219906231689
78.8815191720197
78.7394739626627
78.607963452762
78.4742204518456
78.3085095418662
78.1360328986831
77.9531610496066
77.7393435407066
77.5038944707246
77.2430929659414
76.9642585708425
76.6724335120515
76.350454956335
76.0502884717974
75.7861575068619
75.5341749207525
75.320211124361
75.142637468066
75.0075191391029
74.8753042605835
74.7307837247927
74.5943533862388
74.4419624299671
74.3036616616609
74.1671426152388
74.0158116215261
73.8352931793013
73.6226634667641
73.3820898298329
73.1289831076
72.8736580813733
72.6088624740749
72.3147958494474
72.0202195498154
71.7308747954754
71.4459825945928
71.151243780109
70.8548364998429
70.5523783703651
70.2779508542835
70.0450940904179
69.8298712550899
69.6049561702948
69.3817246980759
69.1723672375048
68.9903563468727
68.8331306059179
68.6904982094443
68.5354430235474
68.3874237553864
68.227694269691
68.1107490457361
67.9664195591996
67.7938347097605
67.6302970714386
67.490522590689
67.3269594043925
67.182714731834
67.0566044794211
66.9567770106836
66.8849562752669
66.8158591006139
66.7775816251608
66.7666293293923
66.7735812890598
66.8132497768964
66.8549335594274
66.8966307496662
66.9686859270341
67.0889627198852
67.2261539384315
67.3765440508799
67.5433356353865
67.7216554860192
67.9439930969434
68.1855952501537
68.4222238572335
68.6962246178997
69.0163158983716
69.355397399671
69.6465168449895
69.9054445906237
70.1676730232974
70.4791430052653
70.7765994848003
71.0333539582581
71.3053653484757
71.5943625117632
71.8771192249813
72.1668393114129
72.4295634828622
72.6572729736708
72.856242909426
73.0422238438709
73.2458515633582
73.4448957699976
73.6393815790565
73.8455604000253
74.0682061143586
74.3027309787385
74.4862383942296
74.7133797980988
74.9534487373757
75.1561566020581
75.37238117837
75.5898554789717
75.782703774012
75.9760726530686
76.1592691021255
76.3619796626897
76.5702333199952
76.7838843124702
76.9762217365779
77.1716149391499
77.3487881818882
77.5404543794772
77.7391510205454
77.9029390631383
78.0657390067358
78.2107736940582
78.3622776794154
78.5128211552704
78.6353499058641
78.768866022299
78.8731354903369
78.954050913009
79.0496014810311
79.1717021967217
79.2437519428074
79.3099965328631
79.4257968641101
79.5378359134202
79.637095084236
79.7172524137048
79.8044602904133
79.8789240704556
79.8919175583726
79.9348296493121
80.0229582737467
80.0614123610183
80.0784312401991
80.1184313550834
80.1255103061423
80.1616583083814
80.1994778362375
80.2317852210782
80.2480027518892
80.209204028905
80.2286374772167
80.2676378046818
80.292602777952
80.3305252045465
80.3216467666714
80.3059168991718
80.3023121817406
80.2891691381542
80.2864400755755
80.278045593055
80.2370263351151
80.2399337866255
80.2361364814506
80.1931969150286
80.1481424577897
80.0755720389521
80.0096612713467
79.9222382128418
79.8126226990294
79.7284520095809
79.6835442715888
79.5989239382045
79.4714072633479
79.4179716842782
79.34409275704
79.2599253496449
79.1607953824164
79.1032212630522
79.0286111607436
78.948884245147
78.8390904992908
78.7345092702203
78.6076471575181
78.4937233042296
78.3785220761741
78.2944770116605
78.1973436481083
78.1009915832231
78.0434905932218
77.9755544155792
77.9002613439132
77.8448485133073
77.7474373198683
77.6938394150809
77.5998730755323
77.4865268468196
77.4278374659215
77.3375989532927
77.2393216080285
77.1773733361363
77.09969269618
77.0184691894064
76.9789887571772
76.958511828374
76.9476576895716
76.9421040603392
76.8690784405197
76.7978239626645
76.7443206619472
76.6506736833709
76.5422409779129
76.4822838734286
76.4480335089382
76.3778245063309
76.2648035392993
76.2506577730628
76.2053453654443
76.0833723389535
75.9867492632824
75.956601137546
75.912591886397
75.8702550130986
75.7776618305313
75.6345924162811
75.5235458277769
75.4641114751488
75.4211289959369
75.3729483061247
75.2120982162706
75.0787551998626
75.0009697314878
74.8884234328342
74.7271676730836
74.6067590729451
74.4886209698033
74.3570179788738
74.2747925105688
74.1745507320381
74.0248369168286
73.8899696067309
73.729579302538
73.5655962394853
73.4244928533549
73.3039605436266
73.1482937590977
72.9795275902964
72.8103696461867
72.6992753118782
72.6553661531345
72.6180528245562
72.4461820887429
72.2980283723563
72.2476075537217
72.2019610359911
72.0647708526785
71.9399821566592
71.8124583894214
71.6504856179578
71.4880485265935
71.4064099912974
71.292505543645
71.1058201269154
70.9032536893799
71.0449804327474
70.9779930938723
70.7577475155083
70.6301995727876
70.5052120244125
70.3607830887555
70.2504276500542
70.1079537622396
70.007180451796
69.8875841087847
