1798
3999.43349933624
650.420452594757
1
128
4
97.6936118361919
97.6413306224668
97.5237833749555
97.4736732139848
97.4854556490565
97.6040471222836
97.5339443318186
97.3694379597205
97.3012188274362
97.4001311559057
97.3988193316328
97.4444227297625
97.4732514936893
97.5446454857995
97.5421274156586
97.4775157799166
97.4110337491508
97.5203240399639
97.5925738371587
97.6313818454749
97.6332487752105
97.6160723549828
97.4941523263755
97.5575878543403
97.5728561760364
97.475523526553
97.4819160948004
97.6389937799248
97.5251560516938
97.4147123278274
97.3600387212485
97.3967487899998
97.446193822001
97.5215897308736
97.5374973932189
97.5158273921678
97.4155886890318
97.4769924419818
97.5067528985983
97.4851277598561
97.4366342774492
97.410215180233
97.3565628502989
97.4161339312951
97.382035662441
97.3370636021448
97.3767403922364
97.554324210051
97.5183856992601
97.4317159106571
97.3784369533374
97.264936200154
97.0588701334557
97.1002792737134
97.23430296181
97.3646313661822
97.384428646866
97.392337084247
97.3336404659393
97.325582104184
97.3123977789064
97.4328783695698
97.4655528371592
97.3764660898054
97.3242735567576
97.4386283280277
97.4483869868791
97.4524584583123
97.3068947457661
97.1580934393363
97.0690924429372
97.1891911591452
97.2714727776956
97.3102012339161
97.3293000753085
97.4141787833736
97.3718779526124
97.1893098038937
96.9969761605643
97.1653015387521
97.4450307659023
97.5946276041499
97.5619828594312
97.5393515870676
97.4204436128089
97.2369626087598
97.1951163144431
97.3256970823143
97.3420339227092
97.4646555535782
97.5369665952394
97.4818132367186
97.3652827624269
97.3801151876269
97.3259994447741
97.2693834522467
97.3565143930611
97.4207301532909
97.4145065008296
97.49642075904
97.5216809028536
97.6141388968467
97.6840695405787
97.6097053579878
97.3871912653352
97.3865490202025
97.4619422023492
97.4870514412157
97.4435989252625
97.5357377346865
97.6398550754804
97.7427789352842
97.6991802559922
97.6401013067968
97.5466203106383
97.494164062577
97.5692204843594
97.6271983352738
97.4617630219998
97.4749620252314
97.5784155918037
97.6685425822484
97.6024825072638
97.4762077348456
97.3797342528695
97.4365620200948
97.4892066522627
97.5010404187994
97.4059920596592
97.373987950351
97.3109641353854
97.3223428079494
97.2742098176136
97.1332367256144
96.9943956877793
97.0111812625189
97.1785926235491
97.415875623702
97.4067941764097
97.4203947878709
97.3871499486059
97.3079259991316
97.2363471335706
97.3824683827546
97.4787221484889
97.6077723771965
97.5723298942015
97.5811321463591
97.4958017030337
97.4876300152868
97.5255869490141
97.59189746112
97.5442364670996
97.4746559995586
97.3181247241563
97.2422362008551
97.383285783922
97.688720439056
97.7962424642377
97.7283094120203
97.6041374667688
97.6564638709324
97.6286059115466
97.6052404822511
97.5513686333332
97.4778344485279
97.4175596450681
97.4899865081405
97.533897283829
97.6456374713214
97.6682058249397
97.6586279984097
97.4977589053689
97.2917953002269
97.0542890910797
97.1711790273146
97.3592660618963
97.516541386788
97.5696479271244
97.6368712536569
97.6691684908207
97.6319662604389
97.5428040938222
97.5924884514965
97.5270452978183
97.388733072622
97.2225837797329
97.1644401336972
97.0817982960823
97.1820186167176
97.3905365591069
97.4772452081088
97.3737059778647
97.3869833476847
97.390036274269
97.4519438814247
97.3354743801078
97.1021489321476
96.9500383371159
97.0114588847622
97.0406700995914
97.2174952159562
97.2196123283936
96.9483771578706
96.7599361327818
96.9653560233085
97.0624475285629
96.8869606249706
96.6421048558208
96.6689840040251
96.8229567503328
96.9360599143419
96.8686710159958
96.836993422839
96.7832220509166
96.7535373708659
96.6073907264687
96.5969921718669
96.6674462434751
96.6856866327482
96.5490988043491
96.5289755063232
96.5648976728499
96.6355903881805
96.6202296764151
96.5232266241231
96.4564368744719
96.5237426251591
96.4988934504285
96.52702771024
96.4138501299152
96.1290595670431
95.958341851407
96.1513316197647
96.2776872372133
96.3454384822759
96.3170042706335
96.2940848647795
96.2145721092956
96.1695563003968
96.0941010834921
96.0699721348178
96.0495217028442
96.1001570531749
96.0443381270973
95.9619226968503
95.9229506534413
95.9352535473626
95.890918722453
95.9763943758356
95.9364306620999
95.8307191072809
95.6518885637785
95.6396627961248
95.6783231160399
95.6051740578841
95.5603516597649
95.7081182924417
95.7297153306822
95.6836543540773
95.5527144122507
95.5628075075295
95.5655926448028
95.4947643064935
95.3148704939457
95.3179130317936
95.3637676328235
95.3935044103382
95.3399236489054
95.2558623833982
95.1693535660173
95.168919930239
95.1447996797125
95.2084429020594
95.1751459063021
95.1226802519398
95.0915329095529
95.0970743194986
95.0407719048518
95.0790771257005
95.0036735385239
94.8760824687539
94.7708488507055
94.8445469899882
94.8142040523376
94.7255026828193
94.7564103844436
94.7920774777541
94.578152315659
94.5072216798832
94.5743129652902
94.6520536098365
94.6160989034353
94.5281423405001
94.3665297970584
94.2752680031288
94.228274175224
94.3175602931617
94.4124905812328
94.4415099002199
94.332531116252
94.2861377203596
94.2165417206398
94.2657885021884
94.244845785605
94.1663738618612
94.1620082500579
94.1402136320353
93.978908451375
93.9728196645953
93.9182191889016
93.8710797580495
93.8262644284822
93.8486402903471
93.8549472718359
93.8312933609938
93.8152342247331
93.8669048987804
93.7919889243289
93.7826970171581
93.75585562901
93.6299639028933
93.5533252845048
93.714822167992
93.7156074619386
93.5293900709959
93.3665500994347
93.4495655769107
93.461701459592
93.4392390183262
93.449831013903
93.4447400699311
93.4119606885241
93.4783246457301
93.3949429807066
93.3947147998754
93.3445833555157
93.1925252323349
93.1569460738914
93.2903466752878
93.2903245489077
93.2246137539292
93.1969004416267
93.2298930941438
93.1610921790359
93.1237351999527
93.1369688119773
93.0981643953783
92.9768804747063
92.9567961797759
92.9715376437397
92.9609394217911
92.9073937668428
93.0100770472262
93.021784172347
92.9213386596864
92.8414140530943
92.8789704552932
92.9110184998122
92.9533491576646
92.844036630409
92.833931537458
92.9063279242331
92.9024696165843
92.8026520910224
92.79800356364
92.8033009055244
92.8404159533178
92.8239993496353
92.863233576868
92.8750182329135
92.8028299808189
92.7189022440072
92.7542667105405
92.7225654559567
92.777714264888
92.7940843645393
92.7856347039944
92.7692119035477
92.8114106337165
92.7942389913817
92.7378232867806
92.6543788661971
92.6737761773676
92.6527774681827
92.5949556264289
92.5514276113751
92.6646944905966
92.6405026964529
92.6005755934241
92.6340686918423
92.6660820377979
92.7121536395405
92.7597995026588
92.6363668833175
92.6401952803821
92.7019905467174
92.6780413207541
92.6619207009677
92.7313208015688
92.659830926702
92.62528033053
92.6568486240341
92.6949525318107
92.6478341354329
92.6572585484472
92.5932841971516
92.5865316359658
92.6280764551313
92.6605394318218
92.5681481390764
92.5127967091273
92.591937086725
92.7244404864101
92.7294022190957
92.6986408158678
92.6860670363931
92.6865841693894
92.5813151633279
92.5480788769404
92.534600829045
92.5641908682024
92.6268160393664
92.8152749701292
92.9158618476678
92.8405242517178
92.7624813229303
92.7525080576931
92.6916072199403
92.7703751335707
92.8411909898423
92.8160441169706
92.7221135865227
92.7337310684368
92.8281890048134
92.8179921495952
92.7689030156019
92.824067192442
92.7611322113715
92.8064885559887
92.8677056412977
92.8949141789863
92.8762623822659
92.8747528754375
92.9397421047246
92.9834633729461
92.9028408558344
92.9473097360561
93.0011485990997
93.0005928787102
92.9683260793207
93.0374230491211
93.0932912309729
93.1381249439846
93.1503486288259
93.1787561803615
93.107738216672
93.1172844019977
93.1671796755204
93.2411925161898
93.2560444647992
93.2640382179822
93.2384414261613
93.2596450813418
93.2525395506177
93.3212729612791
93.3170693906307
93.2843276810107
93.2635842705789
93.2693905505436
93.2757348795873
93.3334450973101
93.391677333919
93.498264074285
93.4969369633637
93.4827056539243
93.4590439651485
93.5079162717705
93.5285596826592
93.5610091333621
93.5542640603649
93.5542211531606
93.5020924708598
93.5062171095949
93.4921238761946
93.4983102449939
93.50272527496
93.5506442108174
93.5890401853854
93.619837732801
93.6079337314418
93.6647825475057
93.6843500978838
93.7186658049418
93.7070403112047
93.7839698885521
93.8513415616418
93.7994278856386
93.6874560971316
93.726392796203
93.7790935633552
93.7627656916576
93.7093172972965
93.7511135347104
93.7670722713849
93.7994217005351
93.8396585893147
93.9194527876588
93.9416816703887
93.9781837921082
93.985051563473
93.9658147231102
93.9418006559883
93.9680243663456
93.9649817106183
93.9390303566916
93.9434693907886
94.0526440754626
94.109803786696
94.0711141709673
93.9746988163894
93.9968590637859
94.0653929606948
94.1451106127125
94.1740420688643
94.1834348424335
94.1923541781449
94.2407064298507
94.2312197409952
94.257281683453
94.2608195864146
94.2387332157292
94.1942846240962
94.2314662504158
94.2622896979163
94.2467910958951
94.184757200593
94.2030111720076
94.1957257368796
94.1868846437077
94.2358362645639
94.310442717969
94.2496613207258
94.2233761855674
94.2382365929221
94.2506773598136
94.2565485669921
94.2569066181491
94.1827807991182
94.1155876771685
94.0433943799018
94.0738270218942
94.1099974710709
94.1031724701333
94.0376520485421
94.0265071522747
94.0208871399242
94.0220887810906
93.9535266993795
93.9218817876551
93.932837335446
93.9599065831253
93.967558743818
93.9742023148302
93.9218123225302
93.9148909596416
93.8777359365398
93.8395340486276
93.7941868643266
93.7936631796085
93.752952879844
93.6658095319576
93.5791758397813
93.6379765559001
93.7119569980491
93.7351662202884
93.7142206748857
93.7131790984693
93.6981517441461
93.7122758391197
93.7107574068262
93.7734798536489
93.8288652714065
93.8813112957745
93.9421263759565
93.9968514989823
93.9717599167512
94.0116848577594
94.0471020995272
94.05715889039
94.0702337566614
94.1089981254353
94.0883226739876
94.1388895283466
94.1985263818679
94.1917290735244
94.1718675403453
94.1717508635611
94.162196869792
94.1914317501308
94.2015215780844
94.1815502412557
94.1528630557869
94.2185279117274
94.2288603287993
94.224081176055
94.2409341733335
94.2541865809062
94.2824259201552
94.2812110044473
94.2685423770104
94.3622727346148
94.4081601358457
94.3351939445958
94.2785986424121
94.3339921814085
94.3911376211553
94.3953769052102
94.4037742416529
94.4963352853046
94.5050246734755
94.5405632609556
94.5922084089539
94.6264233361617
94.6103010174482
94.6068972251617
94.630007831317
94.6685761050184
94.6620163310242
94.7124414856183
94.7574212828561
94.7440248720875
94.7120011860066
94.7600059688234
94.7895293123467
94.8249993846883
94.8304679361761
94.8037338750137
94.8188661144369
94.8651374695547
94.8612068665872
94.8727386801014
94.9029505456789
94.9273421639292
94.9291314209157
94.9098039001772
94.8993846435385
94.9529838525297
95.0340354966132
95.0823275027151
95.0565625126861
95.0785645422693
95.0607720721253
95.0181358509342
95.0034834697927
95.0267172861533
95.0518961944272
95.096603084504
95.1349007559918
95.1407636872633
95.1208601779187
95.1126746623488
95.0966087016316
95.1148015735438
95.1140907028603
95.1059234558001
95.1596726687891
95.2140236734995
95.1803276930961
95.154650124508
95.1359565422488
95.2068280000737
95.2748539611736
95.2546429371966
95.2087712439133
95.2664556896794
95.3417023940876
95.2599137801406
95.1570625576162
95.2299192195702
95.2976134738663
95.2471637744895
95.2416912145755
95.3125396304905
95.3319870951854
95.3241046308936
95.3424303618698
95.3857993921812
95.3641052165341
95.3456049361548
95.3571548794159
95.3945842677804
95.3890693701643
95.3908212383801
95.3925094664282
95.3957644226126
95.3961037459553
95.3817332349271
95.3955722231793
95.4274933740178
95.402254994191
95.3952116566836
95.461214970758
95.4899308763878
95.4675055965879
95.4390283222854
95.4284156165211
95.4588090420316
95.4767442649026
95.4977702895233
95.5288662359928
95.5448958109408
95.5052889729624
95.4851635381395
95.5047517194139
95.5042989099748
95.5050080193376
95.5321452012776
95.5220783956478
95.5218310352785
95.5225045567932
95.4858955251687
95.4757237359911
95.5324539976774
95.5327371894331
95.5293089643871
95.5546222613923
95.568094522184
95.545555984857
95.6165236519815
95.6560527241806
95.6307354013921
95.6014787193752
95.5763452556585
95.5788525841467
95.6345703535323
95.7175842381029
95.7643024327673
95.6973226988837
95.7454714244626
95.8786921999538
95.8706631936708
95.7511166943731
95.7211790463118
95.7844633577452
95.8380676417168
95.8054728911174
95.7441270305258
95.7474075669
95.7959891865269
95.8357429142534
95.8814182346919
95.9429498083417
95.9377865056409
95.8474219044696
95.8184288896459
95.8206739178544
95.8844676380672
95.9778871823416
96.0091964615164
95.9786505092373
95.978994776613
96.0060522630738
96.0375666489491
96.0480401124862
96.0844292873135
96.1131720919044
96.0711576035883
96.0367274497645
96.0777127009219
96.1455907175142
96.2103735537539
96.1052340407246
96.0179822017795
96.0902431609819
96.1307591297868
96.1616982194075
96.2101924410668
96.0878413612076
95.9693076195968
96.0315771458216
96.1357725144132
96.1445634107595
96.1706596662044
96.2420006591641
96.1903901926195
96.15931350536
96.2618623951979
96.223192860213
96.1605956151066
96.1803870063741
96.1889961364762
96.2373588011305
96.281912815192
96.2292771797127
96.2361387764575
96.2789209987718
96.26554133952
96.2259934039729
96.2023054047269
96.2025285150766
96.239868835389
96.3030576840737
96.2987182126187
96.2493050430596
96.3224369132952
96.4455810995893
96.3577207444473
96.2535295618398
96.2727412528276
96.2410361391046
96.2258202215514
96.2109615942692
96.2959782013878
96.3859212398873
96.3321465787513
96.3311029604906
96.3796363583359
96.3706049966536
96.4038389518924
96.3769059530446
96.3723235075571
96.3627580701586
96.3601276960005
96.3759877663306
96.3102096337744
96.3173512963408
96.4335116947489
96.4024784070891
96.3890558440615
96.3753984903617
96.3467876100991
96.2962764144008
96.272061160095
96.2977806585096
96.3678562745894
96.4401371255751
96.485739469232
96.4941209638729
96.4067035086834
96.3841722418059
96.3532567392045
96.3532815136943
96.3512907542671
96.3575733888748
96.3948969493245
96.4433283627706
96.4636023500479
96.4484529798283
96.4053137573467
96.4394523772945
96.4834243924277
96.4565727744984
96.4109059995403
96.4021811149752
96.4489843555139
96.4884356009663
96.4407811562466
96.3553322598188
96.3542902571038
96.4524187165551
96.4880979972584
96.4367239384237
96.3745326192472
96.2923093134065
96.2633584116652
96.2768875429269
96.2924743007904
96.2998352746929
96.3180316090579
96.3325364080258
96.3163068081907
96.2988349855652
96.339187445373
96.4236990593759
96.4571346354721
96.5020545425429
96.5946449574862
96.688873685187
96.706817502313
96.6811782220719
96.6822916934707
96.6420751427167
96.5921320339431
96.5336095200465
96.5109468815289
96.5458458717434
96.5370872606114
96.4495399869392
96.3986326451036
96.4659528521933
96.4785658602849
96.4583829904744
96.4643207288986
96.4976457376337
96.5342352171864
96.5792149808694
96.5586995929837
96.5097650332587
96.403784783055
96.3195044485461
96.3583604584786
96.3908169690031
96.4009207352989
96.425869995174
96.5157868224683
96.5137583757321
96.4360951209644
96.3817036789544
96.4052643828446
96.4364510201511
96.4317167211844
96.4560112961266
96.527203189649
96.5770654775022
96.5680356814164
96.5194157795186
96.5651991063604
96.6969584070033
96.7092635578224
96.6701757698764
96.6420154248771
96.6942987139549
96.7879742409994
96.8654474818329
96.8976057924989
96.896298565574
96.9042479309679
97.0042726900538
96.99921670113
97.00233378589
97.0928987326787
97.1403888237504
97.0985376114714
97.1246433000198
97.1607832437838
97.1047199928157
97.1739793669064
97.2141131882788
97.201470328597
97.3555573177375
97.4567151496508
97.4913742393162
97.4836271215408
97.4706570285779
97.4923853342598
97.5021413380818
97.5378290127678
97.532054624442
97.3910129653955
97.5378946475404
97.6629615052268
97.6725508340142
97.7523163031814
97.8459296225136
98.1000666770948
98.2279434672842
97.8572570663202
97.677602158955
97.8609262342943
97.8136270172912
97.6369090031236
97.7760151851201
97.8923372704807
98.0927400360864
98.243354468455
98.1244443022251
98.2253167898897
98.3588311495472
98.2079827447811
98.1710071175178
98.3389969485775
98.3513226790605
98.3579698554657
98.3586027065434
98.6848046862503
98.9106889069768
98.7063949095126
98.5656820206843
98.5901054009268
98.5051972574454
98.5664075059437
98.9171748225285
99.1369119056918
99.0087800315246
99.1710217952547
99.645440379446
99.7461965536259
99.5844579640709
99.4391819193677
99.3100131899089
99.0043525268583
98.6934341439367
98.7837138402328
98.884840018674
98.4666858747329
98.3418694824559
98.3854192476555
98.229638438121
97.991601428603
97.678189287473
97.8944956658854
98.1503870658248
97.85525362851
97.6984685207111
97.6378997489234
97.4775454004985
97.4720077039962
97.5224378446468
97.546176979533
97.4814229079905
97.5086733439659
97.5283190626703
97.4950919130948
97.4986457030001
97.4902575309467
97.4546210203252
97.4508715348666
97.5994342198256
97.7057700359161
97.6888794235509
97.6659198735418
97.7202727440505
97.6333343226831
97.5578157445368
97.6047468780571
97.6742241859775
97.6588281532309
97.6140280192594
97.6151692470163
97.6400704770846
97.7198333334469
97.7365531109795
97.6053521106422
97.7299696519489
97.9504637769536
97.8028327560553
97.8692428969445
98.1635907227683
98.2616233331805
98.0225267957416
98.0866387343895
98.2094313424136
98.0834682576475
98.1696943986283
98.3287889930893
98.4082704433009
98.530280329866
98.5333340021047
98.6866744099665
98.9399886058401
98.8361398663192
98.7673515593856
98.8711423322114
99.0632509028895
99.2620627333988
99.3360415094901
99.3760069443393
99.4393165975353
99.2320000378777
99.2400251059841
99.6399505933159
99.7244719166271
99.584078846203
99.3182098300681
99.1543939772779
99.1342139890575
99.1415097560444
99.1472548800246
98.945023245279
98.7796022609778
98.6671596455682
98.7775356271438
98.8644620632978
98.7833922493075
98.6191608912552
98.5066047984708
98.6350071886067
98.8045724647118
98.9098134483973
99.0816575256315
99.1432281225415
99.1009605216394
99.1654437226172
99.2484891338751
99.3578468339329
99.3214924650567
99.3525413418203
99.4348723721748
99.0818373706648
98.7985957159085
98.7412426582511
98.6641599866215
98.7720757653776
98.8769562018383
98.7031300494188
98.5981892751633
98.6040159576938
98.532300306979
98.3618598462624
98.3608907915679
98.3012429655515
98.1857649858399
98.071243271039
98.0082318208851
98.1623862874174
98.258466214723
98.0994005314191
97.8417049849282
97.8099455472655
97.9071612547091
98.0002503422227
97.9528591856039
97.7903365634347
97.6693135255429
97.6433069575672
97.6211284501663
97.6664165851832
97.7963984563922
97.8138247720137
97.708368164465
97.5936890528489
97.6448835170775
97.6868813384436
97.6023330895881
97.536325958686
97.5518574493601
97.5410214555895
97.5154080372419
97.5604426654828
97.6505059760954
97.5713550226569
97.4503366330672
97.4519995292019
97.4341687788521
97.4339877524021
97.5034812494675
97.5658073465536
97.4710719626804
97.431725207302
97.4455840370458
97.4505072941261
97.3861147406991
97.2836492168282
97.274389368632
97.3774312204903
97.4996288099141
97.5056293540782
97.503278929377
97.5072034937787
97.4530258054576
97.4372481604192
97.4423882169357
97.4704215606022
97.4088834280985
97.4096143377515
97.2745109000621
97.294276823934
97.4150276669607
97.4404324415728
97.4474742659459
97.4545116824727
97.4530477001557
97.3669064012535
97.2912520830258
97.3710061322965
97.2990298082534
97.3550907785141
97.4622529809733
97.4606325974666
97.4440335987536
97.469252091767
97.4809669389167
97.3629115351688
97.2858376216043
97.3398863581613
97.398955919953
97.4164230114459
97.373805409414
97.27766682249
97.2336553788833
97.2979025599873
97.3372774855849
97.2897136693102
97.0985338365265
97.0923286290581
97.161636700005
97.2332263405795
97.2256679464544
97.1973742093635
97.056128088856
97.0095962162494
97.0725963895424
97.0315047249308
96.8880211111146
96.6704167582324
96.7642998817268
96.6978197475762
96.7924369108439
96.875379525216
96.7467490461661
96.6632492613522
96.7039645717858
96.5585567138145
96.638325900727
96.5879415335927
96.3236715332045
96.2242067842215
96.2099498394227
96.2480352553646
96.2565135172995
96.2402933329721
96.1155813153944
96.1005505999899
96.1594915241002
95.7012720298808
95.7421542264889
95.8280451025816
95.7935278414675
95.8471465282816
95.7740395712955
95.6292092900819
95.5530453852595
95.3310817924647
94.9161651444518
94.7815577725136
94.7259791071172
94.8382153037635
94.8454124852804
94.6943251836813
94.3874530045969
94.1289608020097
94.0780687771285
93.5512911653115
93.4090018374742
93.501759005955
93.1424610564738
93.3704235292177
93.2272606859634
93.0029181955815
92.7991520091794
92.5377344296284
91.9103643012343
91.9445777299671
91.8752462455745
91.8437771271356
91.6577715524622
91.2375559955044
91.1485050711011
90.8894972021009
90.5675191695652
90.5220206462493
90.4782640849988
90.1950571616596
89.8781773134806
89.754869304772
89.5955107222465
89.4405881424242
88.8368676295061
88.1516794430272
88.5458093106198
88.5050880910545
88.1734892230296
88.1656411903513
88.1703193883981
88.0334186298414
87.9198976939418
87.6522836115691
87.119508403763
87.1470884751286
87.2647489185369
87.1754297617344
87.0238329393519
86.8815135614191
86.6335389924934
86.3963287493302
86.486388391928
86.3934377947603
86.0506190773673
85.9706262350656
86.0487276793907
85.9037679300125
85.7864714949836
85.6177589506092
85.502763254433
85.3563471077266
85.2645992974791
85.1504907640612
85.0612951882397
84.9487720116434
84.8479386529897
84.7624846169441
84.724874090123
84.6405345200766
84.5981826844265
84.5286895401994
84.4755147379407
84.4441885338422
84.4730929517893
84.3292998702621
84.0141814435281
84.2568030209043
84.4751072366424
84.3171883031902
84.2778173982943
84.4241954499031
84.4235644814679
84.5825503139166
84.3706938791237
83.5820786449054
83.9698671260056
84.6620710172888
84.8416980662666
85.1024827140302
85.0323508782124
85.2014731671384
85.2540093436442
85.100444409122
85.0495332233602
84.829092974405
85.1388967207596
85.9610704162599
86.0949372965859
85.9300912526888
86.2306551387836
86.3566774053931
86.3238903280891
86.2865049737689
86.4154252208326
86.2379958835472
86.3642831768123
86.6328611825005
86.5692012760685
86.8387498679271
86.8913504902139
86.8999097154902
86.7488741618977
86.2409866568562
86.6503660487931
87.4451714786474
87.605493295747
87.5711424415533
87.4449182622537
87.4276192979996
87.7758965808516
87.8769721251714
87.6445027407724
87.7025614842072
87.9310791174775
88.1761773818213
88.3084119010893
88.3166724364134
88.3733569776546
88.2733763745223
88.137391832343
87.9456362028932
87.8204799908815
88.1810629526282
88.2343161368855
88.0131342379283
87.6876251531751
87.7469897986748
87.6582566792206
87.2435032018603
86.6273538696163
86.8919175454312
87.120931567699
87.1108016619194
86.9649791710582
86.7283557313242
86.6855103217352
86.6410819032837
86.5230008875182
86.4172743301692
86.1285681723843
85.7174750367985
85.8651693817218
85.8486238860918
85.6252397246214
85.4317095381749
85.3178696214316
85.0578771545558
84.8076163996123
84.6335773395681
84.1138663389807
83.8918477999808
83.9591163135285
83.8785829326161
83.7052309362853
83.5079485557208
83.3793496353854
83.1632360867989
82.9388185890536
82.9088244321611
82.8136945375992
82.5507726805969
82.5152890888811
82.3889215104688
82.4176051764824
82.6056176444251
82.6086309157411
82.4533540925474
82.4400657081372
82.5716806462873
82.6283925352257
82.6805925246155
82.6732093309309
82.7315591732693
82.7140978135668
82.8090117793348
83.0037042748582
83.087504555851
83.2293131949269
83.3841496359524
83.3657425730647
83.4370129988849
83.7397431647822
83.9926965352225
84.1389209077045
84.2741270311866
84.4534663555231
84.6221572576521
84.7805321332277
84.9451039919457
85.0938126201898
85.2373407746025
85.2905507587093
85.2867316582226
85.4515040010952
85.6740023978207
85.8478134681144
85.9564357263409
86.0478927386525
86.1273464286502
86.2328524426574
86.3247685394208
86.3897301607738
86.4231675180632
86.4477503934889
86.5040707814496
86.5675056555964
86.6085339968162
86.6887268802717
86.7827558825739
86.8379714027352
86.8977578205077
86.962877121387
87.0126546991161
87.0874029238569
87.1603508206568
87.2286110056038
87.2923066175405
87.3526664986808
87.4213254229488
87.4629405669916
87.5058204863654
87.5650077692602
87.6008564787856
87.6179581548069
87.6451948391912
87.6793442641382
87.6742907775596
87.6854373303283
87.7002028978921
87.6780757535735
87.6322496695119
87.6117745754284
87.6287423021397
87.6233128214568
87.5934256519571
87.575135713102
87.5821581300386
87.5838901819494
87.5723341458951
87.5521799537399
87.5360791639345
87.5179978195063
87.4884015512828
87.4681320537331
87.4511232280786
87.429711320091
87.3980361308967
87.3641817172357
87.3466471749075
87.336135102755
87.3355397124016
87.3430144498349
87.3576508491792
87.3566220116233
87.3577202528336
87.3897842208499
87.4216143994631
87.4324884074615
87.4618268447516
87.5399730867397
87.5966411904652
87.6312640647171
87.6693803449851
87.6991230124677
87.7810000517923
87.8572328463018
87.9093250479052
87.9881261769489
88.0574878479482
88.0954002510306
88.1630120503524
88.22761543675
88.2749806700343
88.3076897461738
88.3371965012222
88.3533605427282
88.3434054409626
88.3180850537514
88.3030372275672
88.2801887878323
88.2507348321364
88.2437593071532
88.2067334307318
88.1581774875175
88.1134156993273
88.0693466833229
88.0470749550452
87.9960432950733
87.930739100698
87.8846928930486
87.8268462660492
87.7527611831385
87.682727517489
87.6100766574537
87.5396680265239
87.4715195320548
87.4080172682383
87.3334461112614
87.251956531618
87.1608550130403
87.0267753505721
86.9103497697579
86.7953765526867
86.6475654310334
86.5182085135667
86.3990976942946
86.2968270838082
86.19706513922
86.0788092924992
85.975734169053
85.8822376566947
85.8271615294898
85.7717596300292
85.6912723942818
85.6398952514047
85.5728902629686
85.4869855922301
85.4142089975841
85.3336784161695
85.2394916690769
85.1128421800174
84.9916246926566
84.8723332325786
84.7161254453691
84.5742624480551
84.4481738776442
84.3072650759891
84.1739227021253
84.027320498939
83.8768747520026
83.7476379246111
83.6097530784222
83.4626506641728
83.3487509200051
83.2448103678582
83.116561825748
82.9832894817029
82.8475168083242
82.7161928433634
82.6302977737974
82.5185816250588
82.4118402247687
82.3053260200093
82.1972929235498
82.1017164294036
81.9992652448033
81.8974080843215
81.8065495605611
81.7392305147312
81.6935503141694
81.6275771319767
81.5551007079815
81.5112263933098
81.4944754673213
81.4789474714655
81.4646612918638
81.4580625607879
81.4809172620749
81.5234373869346
81.5786520929667
81.6296677927231
81.6977809916288
81.7980051287782
81.9144171410996
82.0388054320255
82.1900029576489
82.3546789810174
82.5171276437963
82.6480073125968
82.8011207662228
82.9893763665358
83.1840761723598
83.3686275537892
83.5125589315785
83.6362285880338
83.7896668423173
83.960375499955
84.1364011313737
84.2896543772629
84.4133400626711
84.4939283996609
84.5720769134877
84.6775866850432
84.7743083044091
84.8621756226381
84.9234460350197
84.9627168462751
85.0220429449703
85.093411545714
85.1763783414469
85.2660042582881
85.3415784975167
85.4463188129618
85.5718969557666
85.6925252694909
85.7937242000405
85.8731927266365
85.942389432161
86.0343555212104
86.1669151230114
86.3010669614099
86.4036311537591
86.4977134262877
86.6120005414415
86.7071730146698
86.7714837305031
86.8791145945772
87.0108120995153
87.088738381817
87.1498704750857
87.2277207423074
87.3093784956834
87.3500409414737
87.3714064614756
87.4189702183837
87.4937649097484
87.5864665085107
87.5940113352227
87.5908766877457
87.6354194731913
87.6896668981129
87.7556242107677
87.8430813993736
87.9091404912152
87.9635981043202
88.005889304718
88.0392086158766
88.0923624093792
88.1580940706609
88.1796851157388
88.1975252251121
88.2398056433634
88.2610000220151
88.2653043486621
88.2918806588951
88.3006427911407
88.2657691995082
88.194228350479
88.111351156692
88.0305754424725
87.9380731323321
87.8144733022205
87.6804814902184
87.5658555038048
87.4341724379316
87.3036295794853
87.2155398918632
87.1448596273985
87.0937638595198
87.0830682164271
87.0886506180279
87.1533221212175
87.2456721838727
87.3237727329474
87.4239632812534
87.4811122042789
87.4999942367705
87.5116813355529
87.5288424370112
87.498877652959
87.431485568179
87.3350347121039
87.2498373721314
87.2168540411138
87.1908499614032
87.1694887195622
87.1469871588794
87.1133991503406
87.0912215033526
87.0753480584468
87.0319753160046
86.9815074171009
86.9051761059906
86.8366819821951
86.7697277629524
86.6948062297151
86.6221140545397
86.5680843092797
86.5483808863082
86.5452646434668
86.4808752689505
86.4091744154607
86.3815020313778
86.3357320365433
86.2546330740604
86.2122582430801
86.171021800073
86.1537620325104
86.1231454107359
86.0859608952828
86.0331836586756
85.9920212669829
85.9759793412875
85.9563149124145
85.9255281323861
85.9678989092662
85.99270847289
85.9614755888996
85.9182934449455
85.8923662876217
85.8365193921117
85.8043308432408
85.8121295134487
85.798752455885
85.8235846752561
85.808024710253
85.7618542763538
85.7166454863893
85.699950781776
85.6566801383868
85.6042032088449
85.5429163650244
85.4968202868045
85.4538156609349
85.4173240159302
85.3624279212911
85.3064309005646
85.2871192536072
85.1799599378356
85.0853596977211
85.007159013608
84.9410803712377
84.9065050834992
84.8737541126174
84.7855583331555
84.696850694246
84.6179239364178
84.5839255388152
84.5147559350985
84.3559787710063
84.2476380323005
84.1653969421992
84.062440610491
83.9568489167549
83.8617116046127
83.7823092398823
83.643390044548
83.5290800404561
83.4551153885794
83.4170338366643
83.3471578958059
83.3126299520194
83.2283222696494
83.190325302547
83.1324454016168
83.056522417017
82.9572901034908
82.921631038212
82.8638434074313
82.7765419114173
82.6993356238251
82.5989714459199
82.286209354292
82.4327062935772
82.5025319675138
82.3272195517745
82.2189455299114
82.114240940145
82.0509459501078
81.9794418160489
81.9160419283457
81.8349970237199
81.7322722885655
