1798
3999.43349933624
650.420452594757
1
128
4
94.8003674532904
94.7624046442014
94.747647390643
94.7812780873682
94.7518496770793
94.6323521779537
94.731224121226
94.7926032503582
94.7936448272772
94.8050579253404
94.7533506812299
94.7364307634831
94.902297464531
94.897281635613
94.787490898518
94.7270637946351
94.727406548485
94.728757808047
94.664424197873
94.6448397274594
94.7554567733827
94.7240282656822
94.7433978237518
94.8398637008419
94.9010795579617
94.9007826331519
94.9120724680753
94.8897321985513
94.918609723677
94.8588200335333
94.751275845012
94.6733272844671
94.752250790474
94.8315507168926
94.8996379517528
94.8366211192222
94.8407219068574
94.8493641545198
94.8499475554912
94.8160551286321
94.883917170254
94.8887710976341
94.8522075290537
94.7593223742574
94.7611092515509
94.8218358721376
94.8456390932679
94.932551168934
94.9066110082345
94.9291888425534
95.0084441332794
94.939935144348
94.858793964842
94.6881855607407
94.6232527870403
94.8396643359184
95.0165627174601
94.9291342017105
94.8694598173768
94.8840948935973
94.9478606520951
94.9469564580183
94.9367325650084
94.9562360003009
94.9131147711989
94.9728066233689
95.0733400115934
95.0023318890209
94.9990180437568
95.0572422356135
94.9700510001268
94.812578685649
94.7476584942587
94.7522718825985
95.1555129938346
95.4107642757674
95.2987980757164
95.2435596414305
95.2065080409338
94.8818599503264
94.8344461514942
95.1436814829782
95.1173887398624
94.9310461636462
95.0221641338291
95.0024362739053
95.0683120058984
94.9779950415963
94.8393188587613
94.947795547487
95.1884778033027
94.9857508138749
94.8892014436763
95.0805857162482
95.2922118850289
95.6217028231685
95.3612579353147
94.9281337412113
95.1005772694528
95.3280169138014
95.1333646667779
95.1946338192751
95.2839462315783
95.4851277679833
95.5444041692763
95.6343038516482
95.4764981139201
94.928109400253
94.6697595126607
94.7453894792388
94.9337395495397
95.2165368217592
95.3438303511114
95.3441611251963
95.4368936050679
95.329435229193
95.2276082668677
95.2483734779872
95.1731646458374
95.2483866643908
95.459850215302
95.3922076973192
95.4259084282425
95.3167764175543
95.2441680314358
95.223825860268
95.2997170191055
95.2715776566161
95.2838794500075
95.397410731362
95.4278575950186
95.4128609442733
95.5421773014387
95.5745580001054
95.4214291825471
95.3136503033885
95.3147029493778
95.2560644098953
95.303782894136
95.4575678941187
95.5028129412682
95.3700219167515
95.2485417405697
95.1195838000547
95.0865788735067
95.2384420606809
95.3902378189868
95.4512880234375
95.4534434642995
95.3905163558131
95.3938200301358
95.5656842048151
95.641392293859
95.6063078450614
95.5493451591687
95.3473105358895
95.2726322214518
95.2915514708942
95.3659531066025
95.4166370168534
95.427033094661
95.4369606544543
95.6249741570874
95.6633020962615
95.6067953474461
95.6950977953343
95.5885836197004
95.4091115834147
95.4270715072835
95.4808641134569
95.484178651078
95.5362520621509
95.6481061268297
95.6159927576603
95.3780024111255
95.1648979773078
95.1022069931216
94.9135460401528
94.9244917145556
94.9914921455353
95.0048775332743
95.086115435317
95.2587747831562
95.2905188843478
95.2012294592003
95.0967648597729
94.9659611674796
94.8080043830206
94.4788286659944
94.3286850309004
94.3625154718914
94.2907966900351
94.2541753271421
94.4689788045017
94.5777525141346
94.4062261946368
94.3461517609809
94.3363063371274
94.1194254547058
93.6811695622907
93.6040653352633
93.7384272114118
93.7693003846065
93.667764126946
93.5053991607399
93.4047290746468
93.3417832266209
93.2448200814694
93.156716801084
93.0971551504913
92.963797039078
92.82826202576
92.8083158912196
92.7714682374162
92.7405652165159
92.6658784205308
92.5154675021396
92.3732551852635
92.2778833301221
92.2554420003446
92.2159634582187
92.0979821488079
91.9658305305372
91.8260855112977
91.7094246724395
91.6445576831103
91.602548459321
91.5088604407011
91.4175112593405
91.3937170533493
91.3856999689358
91.2346422813248
90.992825440017
90.7384421091206
90.7285636404884
90.7753259223371
90.7121165181744
90.5275215215033
90.4636387969774
90.4151385480015
90.2816749550683
90.1735849174668
90.0154139252428
89.800891181296
89.7599441377611
89.8207028758053
89.7952391065531
89.5745243521027
89.4354261717265
89.3854300803846
89.2620579361639
89.1464582802964
89.1331877425367
89.004548795821
88.9231913518553
88.783317867359
88.650404941219
88.5670808001949
88.5013537802545
88.4171157111238
88.3239048895911
88.2504952806222
88.2141178301214
88.0325280654523
87.8912426092112
87.8069393040238
87.7681714290521
87.718054232127
87.5451504175735
87.3204558819228
87.2460571224253
87.1727061533565
87.0761649527513
86.9288945477526
86.9215785609015
86.9426369939676
86.769525046034
86.5643397698925
86.5387358964933
86.4491999940201
86.3597110435746
86.3176139096045
86.2497844787704
86.0270807215319
85.910781655673
85.780470948985
85.6790055913619
85.6255217560738
85.5803878429135
85.4711716337224
85.4647861918256
85.4440981421453
85.2749569772117
85.0869350679577
85.0737083148159
85.0014906828455
84.8769614546557
84.800936628228
84.7055257001664
84.5403321663803
84.4968645604667
84.4015707407988
84.2651359663705
84.096729443766
84.1403455131316
84.1478814536808
84.0762644943619
83.9670165265815
83.7756145755495
83.6392667826962
83.6676822862271
83.70121149391
83.6237931292859
83.4217158792114
83.2916669234425
83.2433994937287
83.1139958165605
83.0028094419737
82.9835040009565
82.860381122999
82.7627085533224
82.7714233712601
82.7978999557783
82.6752683793132
82.5560922492627
82.3945571285347
82.325726294095
82.3192552850873
82.2851388301856
82.1730616832044
82.0932817056132
82.1094792742897
82.0818081690341
81.9860967569062
82.0342757991174
81.926036707975
81.8849919691955
81.8601125426652
81.7951265038997
81.6794128591521
81.5579359574267
81.4822582874923
81.4548336445937
81.3727645046269
81.3467261007175
81.2632233010543
81.2431149965931
81.2398984561249
81.2224114380742
81.1551821243971
81.1585202223258
81.153455612477
81.1302367727752
81.0440401298038
81.024476392106
81.0395303316078
81.0364028654317
80.9518381658266
80.9554753821232
80.8591648712636
80.7282026516302
80.6785039188009
80.750219757981
80.6803343650206
80.649770513575
80.6642324599807
80.6114377249765
80.5615472132565
80.6295716990343
80.620069493623
80.6094964942752
80.5821577590268
80.5991086838809
80.5409766593897
80.5074567430223
80.463311634537
80.4333130814633
80.4164291438599
80.450346247692
80.4835618778621
80.3469064624635
80.2096216817069
80.3299666046404
80.3553477888197
80.3445231427337
80.3347104825886
80.3046549505068
80.2440399671847
80.2177994633711
80.2772550037421
80.3758196420753
80.3584983411968
80.2764015289316
80.1986749487332
80.1760383135289
80.245904588091
80.2886123245608
80.2156163316405
80.2784055475551
80.3071482128357
80.2536873326035
80.1983032652152
80.2425171948574
80.2293812751018
80.3484606038605
80.3945756292319
80.3200268876399
80.2813102944393
80.2959227148163
80.3081847698438
80.4055395445246
80.4043235039327
80.3832183590675
80.4014368340533
80.4155650896414
80.4219653325049
80.4468432457722
80.3792422685354
80.4703262397824
80.5420485920834
80.5461749158864
80.5688735902805
80.5481487685654
80.4988445714302
80.6043120666055
80.704801700608
80.8279474542417
80.9025772963349
80.8772582793235
80.8341223676869
80.852450886894
80.8977574292355
80.9685890483452
80.9640724798467
81.0103146074934
81.0525121162769
81.0762725549954
81.1416803292828
81.2482617570061
81.2974418496364
81.3334869968315
81.4436263095626
81.4695080495507
81.4238309998093
81.5317005563931
81.5978184194061
81.6192399410852
81.6898933432219
81.7276412695192
81.7774470397832
81.9534465567218
81.9776036893481
81.8935937245648
81.9657035233739
82.1247384512567
82.1940082939796
82.2095606884273
82.2977149810019
82.4107849900061
82.4710839295989
82.5793165130334
82.6538800513014
82.66420789674
82.6582026497903
82.7386900687739
82.7932716047136
82.8074892639127
82.8477300561842
82.9561660239072
83.0074546944867
83.0771474629105
83.1669542504411
83.231086806995
83.2879685893696
83.4277716006586
83.4743904257404
83.4478942483067
83.4777288033979
83.601050840111
83.6345922201369
83.6301653620529
83.6704413733013
83.7686499221409
83.84194371734
83.8414491440747
83.8416618017822
83.9130226268102
83.9776581421799
84.0752345698245
84.1040901885344
84.1285562282771
84.1532079498407
84.1911309286659
84.3032944697735
84.3872645681566
84.3808480286339
84.3975871527992
84.3761703333883
84.3801654618716
84.4010710613715
84.5026185109258
84.6433875774235
84.6986568163638
84.6807881714735
84.6999626251924
84.7898693528236
84.8658617799575
84.9106443312261
84.9966038145332
85.0527674816751
85.0459197699654
85.0576318424372
85.1817017518532
85.3125790867426
85.3779420051434
85.4167800372907
85.4428981304229
85.4714794794191
85.5608686645158
85.6444516876114
85.6446894724781
85.6430188097532
85.7308580721003
85.8127149783403
85.8480395369788
85.8921037955365
85.9534774982199
85.9986226815422
86.0827823183134
86.2146805455901
86.250794099669
86.1545732782975
86.1288561747712
86.2038737220563
86.2432862077029
86.2552753243213
86.3411087237787
86.3872245262409
86.3915720576936
86.3876859858473
86.3344512327612
86.3327734998643
86.3699110541724
86.384807509114
86.3828003798635
86.3448487042068
86.3589741870486
86.3715103752716
86.3352556369516
86.2952542612526
86.2625473705409
86.2201708021316
86.1937835363641
86.1538912260733
86.1277029378742
86.1335568376982
86.1571815328659
86.1202460958072
86.0927505752763
86.1075374598623
86.127475414754
86.1048756444131
85.9989317146223
85.9153369714604
85.9701840309864
86.0388405403622
85.9986314852409
85.9301968616757
85.8832907882586
85.8038619676583
85.7570260136521
85.7486077213858
85.7824559511642
85.7993289888019
85.7808722287311
85.7689865263414
85.7802746988561
85.7986800045042
85.8372341577221
85.863358676456
85.9457830172827
86.0139198085295
86.0485800008094
86.1218617935701
86.1997911376893
86.2646839147706
86.3767667875722
86.502726647098
86.5455939557986
86.5519956123875
86.6035474743313
86.6500220396321
86.6954652819468
86.7886565723088
86.8911993606636
86.8900689987319
86.8960869299863
86.9404011502362
86.9790115433615
86.9948958404731
87.0212201375019
87.0345471772749
87.0639991326762
87.1529501042611
87.2105253555984
87.2318293775698
87.2640643131043
87.3225488611487
87.384296324587
87.4339045344347
87.4926020819561
87.4697691322426
87.4797582796055
87.5211041650278
87.5352897846569
87.6008174569419
87.6248748379306
87.6490085954948
87.7816682678394
87.8510867229284
87.877874975891
87.9451550056718
88.0382288069757
88.1498844677206
88.2366815927643
88.2724289281772
88.304845879192
88.349587470558
88.4159891848965
88.4886628563329
88.5132913867341
88.5631264324852
88.6257312444971
88.6921569014235
88.7224781976691
88.7370391429368
88.7799193833173
88.8167842065852
88.8480602611557
88.9022695559707
88.9500865498561
88.9656412400709
88.9856822053002
89.043019311152
89.0918755643528
89.1177771276844
89.1645905410775
89.2094175967072
89.2322873446436
89.3030820600065
89.3301224846452
89.333324682295
89.3925828476239
89.435236862836
89.3956812160137
89.3822090878594
89.4568630320443
89.4767525286569
89.4999699638769
89.5882054809154
89.637258611689
89.6162110713595
89.5581859927181
89.5935411457233
89.6669164604403
89.7270458717515
89.7474500247023
89.7025717682427
89.7240941027185
89.7883449491014
89.784116208843
89.7902154530558
89.8589681803233
89.9035996802526
89.8856101784655
89.8818683817824
89.8873404204379
89.915857826061
89.9746906118553
89.9844930689051
90.0164576351078
90.0669803885716
90.074482723094
90.064135967429
90.0624228885116
90.0901791257353
90.1138765718467
90.1663601976751
90.212389081892
90.2472037019309
90.2796369741669
90.2713443553133
90.2719993099023
90.3324536811732
90.3406774296539
90.3198768946409
90.3554366591724
90.3582273891681
90.3606806835971
90.4016480290192
90.4713224839891
90.4976368502789
90.4500099752936
90.4542772228953
90.5138634546667
90.5594563065535
90.6036687184405
90.6230671608439
90.6221468076179
90.6223857711321
90.5799477135832
90.5928899743978
90.6697573921958
90.7151490555505
90.7207704223777
90.7128757198519
90.7194435674224
90.7559711141887
90.7592315880858
90.7573100546396
90.8200113872642
90.8944522140275
90.935661700027
90.9560259848003
90.9015924055905
90.8603930534824
90.9485313704049
91.101152265851
91.1177812495154
91.0760226427715
91.1032521752124
91.132220613942
91.1216530843406
91.1488667070887
91.2000699436226
91.2358328763787
91.2605828869536
91.3132003692942
91.3546234032184
91.3736388650558
91.3775003394368
91.3938347051701
91.4150024058019
91.3828502178932
91.421459279335
91.4587208022119
91.438846150478
91.5040910286212
91.6074820335476
91.6830164839838
91.7203941181279
91.6838502601391
91.6669034289331
91.7235769831942
91.7696103616315
91.7920768366468
91.7938550529375
91.7689280876032
91.8139764195411
91.8752993680166
91.9120876482717
91.9384977288752
91.9358684086373
91.983129769037
92.0356835198921
92.0613886595521
92.0957433569866
92.1118135412272
92.0634268425872
92.0396730984569
92.0411734686789
92.0555124051788
92.0390444866164
92.0963271800547
92.2292588400549
92.1989442919455
92.1131769953471
92.1448723675853
92.1739571909871
92.2473085924163
92.3314073284382
92.3871804141154
92.3691368531468
92.3032867940217
92.2962264405452
92.3340796828181
92.3703247405257
92.3477950558722
92.3554613522959
92.4221281488454
92.4241641023777
92.3890403167328
92.3527108730474
92.3363819587404
92.3491676996215
92.4161289879233
92.4903553618331
92.5493156401556
92.5390430054773
92.5044678171808
92.5082984629865
92.4626486569895
92.4538988553579
92.5087597577587
92.5400814571921
92.608610687946
92.6191928173205
92.5740117630195
92.5683506648032
92.6169614351755
92.6113307364874
92.5917502371771
92.5967199678991
92.6191743966165
92.6757214303199
92.6928749915988
92.6400498314034
92.6260929463867
92.6062443247854
92.6339324178242
92.7561066536743
92.8289057866402
92.8426055852953
92.83498064258
92.7333402951495
92.6496105676371
92.5883032979149
92.6446056967793
92.7602878952168
92.7186230660318
92.6555751981304
92.7205236954829
92.7310851733288
92.7326128591813
92.7855671368657
92.8628775182327
92.8580394804299
92.7812017257726
92.7952398503763
92.938145518733
92.8847159962619
92.7136160356258
92.717276836929
92.7856443779389
92.7664927204308
92.7927334178215
92.8428810188508
92.836828711882
92.7877356535849
92.7907444618622
92.797032673822
92.8796954294727
92.9269487740909
92.9074617591101
92.9184363682963
92.9108149652166
92.8066832208109
92.7833351760137
92.8318725575284
92.8066649477456
92.7582950083073
92.7557762790974
92.7877488755634
92.8084740182608
92.8245565666846
92.8565854288365
92.8284928847447
92.7467511919658
92.7196859055606
92.7964200834005
92.8963489524647
92.9470554676909
92.9437243858562
92.9254286101802
92.9703995568199
93.0221581256915
93.0557569483469
93.0840085142686
92.981001248146
92.9492992058025
92.9109511974113
92.7285397340199
92.6836135642257
92.7769877997109
92.8351640492601
92.907222442107
92.9919846912458
92.9923919657619
92.8843658936459
92.8119866000949
92.8423349995844
92.7822570373342
92.745493392731
92.8326372345333
92.8235627134799
92.7932510836371
92.8400215340235
92.9238449437851
92.894043618403
92.8066710454565
92.8168521542618
92.8696135297044
92.8815943997466
92.9560551919354
92.9909809576165
92.9560897787345
92.9761637219043
93.0753122452965
93.06160889702
93.0355247428478
93.0256670666805
93.0926574503215
93.2412682311916
93.2823472816158
93.2456677668909
93.2630634644288
93.2730178518233
93.3239084449701
93.4093192781608
93.4904213292023
93.5129399679745
93.5196322556608
93.554441563352
93.6699150329728
93.7315828220523
93.7494331643645
93.9497289568532
94.0790991649938
94.0317766374598
93.9626990002917
93.9084823409265
94.0440712094297
94.1585389841764
94.2154298588655
94.3396347469765
94.3135045688805
94.0944790889227
94.1585204034808
94.427165069901
94.4676968305129
94.366265907382
94.5070784575687
94.6763272947915
94.676359674142
94.6594041194937
94.6467600639195
94.618890828455
94.7880149512672
94.9010837399168
94.9056213322241
94.8885871355335
94.9582818178828
95.0873223163651
95.1646353461666
95.2526587644218
95.2622341196894
95.1326139412411
95.2780529011106
95.5720339378628
95.4749522986368
95.2629838659656
95.4667737337756
95.6892979435963
95.7325149656545
95.8335633027547
95.8980679630483
95.7838622542662
95.8065228208051
95.8554597328976
96.0871328609403
96.3025927439018
96.1964932836732
96.200877612892
96.4999811470556
96.5885088247377
96.6376667604571
96.6592285756295
96.6509449358914
96.6304511068634
96.7189826503066
96.9714095268514
97.20566563271
97.1161331421916
97.2624465909534
97.5391323016287
97.7810749298021
98.1438506950495
98.222483374347
97.9775974195618
97.5958388628811
97.1800652113099
97.0319437477657
96.7454034918038
96.4521133842003
96.2164426704626
95.9509487735264
95.7936433900101
95.7181638237674
95.5915755411341
95.6704839788667
95.6687870226349
95.4641085734291
95.2841912524798
95.0772414011915
94.8157918866279
94.6752283556939
94.6795951991064
94.5648313536273
94.5182068885579
94.6943314848996
94.6924147951027
94.6612585399885
94.6746604908894
94.7064077681978
94.7627974753015
94.7895961575093
94.8682478644399
94.9312504508306
94.9591566720373
94.861562774147
94.707992635213
94.7373725442833
94.7375204657645
94.7249207238239
94.8439664219895
94.9837630774647
94.9129148601992
94.837851862823
94.9720570962577
95.1045904712111
95.1408710483905
95.2853096213479
95.2811074772989
95.1984260151531
95.2971052243673
95.4421857865045
95.5161261031664
95.5872862780459
95.5676730742314
95.5192565188424
95.6124681011995
95.8534581906487
95.923196384716
96.0035677096112
96.2884410084595
96.5711364456366
96.5666072744895
96.5929524826345
96.9233408684358
97.1674682845924
97.2298481990152
97.5200471356119
97.8462383346141
97.5629237902312
97.4806081318176
98.0414143076509
98.0687270353978
97.8864842995964
97.7546787474545
97.9074898124584
98.0703698830086
97.8825408145846
97.6665984294903
97.6428449509198
97.8247041416092
97.8667487125963
97.6763148472759
97.6926810908217
97.461679030057
97.2644246622652
97.5809334367245
97.450082627317
96.9875602365898
96.9771868075935
97.0612541869122
96.9102862736047
96.847941531035
97.0092376389761
96.8704711556794
96.8197208086642
97.2017654610083
97.3663324448993
97.3689433173413
97.9131964723496
98.0553969106033
97.8679360393904
98.028060238871
97.9495438293324
97.6566393731752
97.4097710381332
97.0789310054113
96.8503182528287
96.7800751262415
96.6790743924483
96.5606153703367
96.5280847012393
96.4780191333672
96.5096493472942
96.44340746144
96.2537534200418
96.0458811187031
96.0383811866791
96.143637494761
96.1263152335554
96.0966123328776
96.069045655863
95.8683695761647
95.6643822675322
95.4731597822164
95.3407866313078
95.4172192113219
95.479145171203
95.4096917491995
95.4224757346147
95.4644517836346
95.4995119316937
95.5155694807528
95.4177425417764
95.2959898582908
95.2529847345837
95.2450993559835
95.2277287499442
95.1976206049135
95.2356329493722
95.2325551727033
95.2271998664858
95.1908663973721
95.1266786625804
95.1361238877251
95.1295530414908
95.0546192468704
95.0733923044175
95.1551176179094
95.1462466057947
95.0464650048471
95.0348189019049
95.1044065927546
95.1057448477395
95.039703767947
95.0292806665701
95.0384931867422
95.1026034007953
95.1966112998245
95.1712397230063
95.0427154911575
94.9675608511051
94.9959839454031
95.024097400928
94.9637141790578
94.9660949808991
95.0319375214925
95.0746103003832
95.0703820146482
95.0546167076929
95.0501011758932
95.039225579978
94.9730053217514
94.945186162511
94.9926608945477
94.9926808088024
94.9554053292699
94.9414072283448
94.9702270299915
95.028253755483
94.9920406441652
94.970367927407
95.0204495805622
95.0326935750747
95.0490251390964
95.0062856855261
94.9369668587964
94.9558156791381
95.0300097220647
95.0220221305311
94.9640516518581
94.9541678269653
94.9411703928405
94.9337441734368
94.9715788242306
94.9875994015131
94.9766502957339
94.982589332865
94.9588651451256
94.9089457305246
94.8640242525943
94.8321199831856
94.8230242979072
94.7666223005455
94.7026129641424
94.6615249863123
94.6438782435574
94.6434730417135
94.6384891683347
94.5492680646385
94.4552766791047
94.3079138174347
94.2287140138021
94.1605045746173
94.0661409375439
94.0495718165116
93.9894696651958
93.8783790038776
93.849022640744
93.8138105065624
93.7200387195125
93.6431321471049
93.451027501541
93.2650136628889
93.2020906002131
93.131288439064
92.9872772277983
92.8539785981315
92.7446949122369
92.5853199834923
92.4732185071216
92.2086675573868
91.9271242531678
91.9259466753978
91.8093030597953
91.6651257477595
91.5655890814849
91.488439309186
91.3834300435202
91.2366125217416
90.957779336671
90.737641901499
90.6407883963914
90.5481144959335
90.400129160517
90.2446993074564
90.1204738037991
89.8812273084901
89.7122219194092
89.467042614533
88.8581697211799
88.6402667451353
88.2628710839816
87.8778445638077
87.715737703567
87.35852176305
86.9206089013213
86.5769153059018
86.0022271709306
85.4604626962749
85.1945758272443
84.7714647203875
84.3706240555196
83.8066891851394
83.3169347278558
82.9412043000878
82.3975540141604
81.8887464828592
81.5476721744037
81.1090319717554
80.5909597076428
80.2584814310042
79.9349789008191
79.4796667420033
78.9611120082252
78.1919417956276
78.0024170598744
77.9535318244221
77.4657683362306
77.0665400681719
76.9818526207315
76.7871533278997
76.4727641434832
76.1710791771777
75.7875298125438
75.5709552951465
75.6190357359361
75.5361076132963
75.3586839471822
75.2401173192437
75.1947767712545
75.0797286111244
75.0363100839155
74.9919011059475
74.7456229335065
74.5336971221309
74.6167722166204
74.5794243858685
74.4084812118704
74.2728488889335
74.1529959478151
74.0041932004357
73.8485847955291
73.7337174155565
73.6325815523998
73.5026034079777
73.3645935967482
73.2857599050079
73.2611007524072
73.2327101653049
73.1950019595556
73.1868595370257
73.2270012332051
73.2710592193951
73.254235806694
73.2062052419854
73.0756252417413
73.1917293972824
73.4092218215666
73.3144768423476
73.1985467172062
73.3779805547112
73.4771426011506
73.4607804525039
73.37011076313
72.9444265863042
72.9174584208282
73.4291266761613
73.5664581957021
73.6099853038057
73.7026202100152
73.8007901709567
73.9275071266088
73.9370485230825
73.95191234846
73.9562528147105
74.2592130639831
74.8970027390515
75.2049261327414
75.2441800355279
75.5848062838283
75.9800815713276
76.2123099764503
76.446122162725
76.7048759900661
76.8256581106209
77.011844986253
77.4456147588082
77.6435242066398
77.8747577032731
78.169485248038
78.3424556896998
78.3969258064319
78.3106187867231
78.6986778127988
79.4829339659392
79.8186669949106
79.8773677207057
80.0016728537499
80.3266921566887
80.8345325804913
81.1745901134047
81.2292507225449
81.4425579086198
81.891630287466
82.2790314125114
82.5102773198242
82.653943032694
82.8031877462582
82.8453328577883
82.7140172364341
82.5422938622536
82.3261530490102
82.2627029290656
82.0886283104943
81.696623356435
81.3431958790296
81.2127688985834
81.0357210432556
80.6419249440318
80.1540909125854
80.0478039441473
80.1438457731131
79.9596239661909
79.7436822497789
79.5589359664568
79.4989759943573
79.49488655945
79.4334145317279
79.2935973977373
79.097916928473
78.8186078289076
78.7583588101393
78.7062084070525
78.4051686727034
78.0487276244637
77.7866947058071
77.5259331339936
77.1757924056419
76.8524386286585
76.4398655733511
76.0777270968746
76.0038998657939
75.8621151128114
75.6644909255039
75.4913216636781
75.3708600152565
75.256602044098
75.1643256501321
75.149811320201
75.1464711427972
75.0788229055688
75.0846430342404
75.1057505646293
75.1568523264122
75.305337200656
75.3406148830277
75.2760439450052
75.3038668838886
75.4261358721029
75.4763768678456
75.504281844891
75.5570575846278
75.6072411872139
75.6447323744687
75.7337172107281
75.9109502697385
76.0268265469939
76.1564486072534
76.3571029298287
76.4993879316281
76.6440657322958
76.9085777766562
77.1304366411453
77.2597631332646
77.3977783451675
77.5923159830747
77.7746313088713
77.9230460732498
78.0480572692811
78.2073589126896
78.3608263661648
78.4445439229501
78.5129946562086
78.6423576773552
78.7820353461788
78.9053466747098
78.9933847331058
79.0644044627462
79.1473976880796
79.23648625225
79.314335523029
79.38402936121
79.4399003571181
79.4948170713579
79.5648089793994
79.6313353429714
79.7000881448176
79.7884569212086
79.8709777970923
79.9447981874018
80.0301669279345
80.1047044816099
80.1774725110663
80.2631385511309
80.3429967767611
80.425593894072
80.5137588992427
80.5929371348728
80.6408030536899
80.659075447791
80.6805698833271
80.7236465497445
80.7449818756424
80.7404529611433
80.7147827100522
80.6777856586349
80.6249303343072
80.5613058785043
80.4843711594821
80.388713016525
80.2833558682213
80.1646502347393
80.0615261080211
79.9592852972554
79.835591434722
79.7545390040656
79.6937187382104
79.6077780363056
79.509851494483
79.4224612105402
79.344020639689
79.276893888433
79.1991431231569
79.125009423375
79.0527960463508
79.002855243726
78.9815009031297
78.9858695393425
79.0017889481385
79.0160020214817
79.0236117523252
79.0320227819225
79.0732954077241
79.1546080437962
79.2135938026069
79.2622983303928
79.3498273871452
79.4596964761794
79.5529591814806
79.6457331538569
79.734271085864
79.8349099057766
79.93776395924
80.0380105820497
80.1441341550214
80.2521605070704
80.3702885840974
80.4980147436659
80.6275786513175
80.7644838173345
80.894165825945
81.0067605061841
81.0678548713428
81.1107912447133
81.1264871572267
81.0838962366446
81.0310923393107
80.9714629659699
80.8695921868842
80.778621715043
80.6792347198784
80.564516741613
80.4926222876867
80.4260580347948
80.3276944412476
80.2233929854086
80.088282197768
79.948081469038
79.8300029626227
79.6941986508848
79.5557228996404
79.4301253754766
79.2901289533362
79.1633087100768
79.0431385348308
78.9171540453723
78.7753265820824
78.6090522862205
78.4269721540529
78.2452605664967
78.0251203164623
77.7529007308529
77.437476979483
77.0748226356519
76.7010943781601
76.3659539515637
76.0875216929878
75.8306903919605
75.5832004010086
75.4182179406689
75.2892836346081
75.1613354570605
75.0482391426416
74.9678886768227
74.8911598329958
74.7873738598854
74.6777255283999
74.5747548846291
74.4241648560616
74.2227320920865
73.9919737298283
73.7614944115607
73.532730316858
73.2915741385747
73.0050388881264
72.6814850239201
72.3433212117152
71.9929843756944
71.6652898158688
71.35806760638
71.0550745938658
70.7631675987145
70.462972447611
70.1973067021949
69.9431095327441
69.7013155355928
69.5043964010789
69.3127083847239
69.1172759371808
68.9680487630562
68.8223782458134
68.6783002113318
68.5257038257893
68.3516559134689
68.1415796377712
67.9866800285722
67.8624695604236
67.675734269688
67.4813409603799
67.3346245120628
67.1749081507334
67.0534510344084
66.9270878997512
66.7991929916152
66.7271966297099
66.7014378834074
66.682336036552
66.7011759705284
66.7601205056803
66.8463429792946
66.9066414177418
67.0042869511024
67.1557838927334
67.3277768828636
67.5000608654499
67.7117311376565
67.9788669512601
68.2834602275413
68.6083449770261
68.9486041947243
69.3041173115571
69.6567446705841
69.9888980848302
70.3123815805023
70.6370086402749
70.9671818232716
71.2719507754753
71.5678714644843
71.8828842308685
72.1816067494695
72.4381095866929
72.6736238429151
72.8844857686379
73.1037270037033
73.308906804271
73.4981054390445
73.6586972100349
73.820275676533
73.9757199817344
74.1351814433568
74.2917542943061
74.4710602488482
74.6867738218872
74.9339039282307
75.1756496299001
75.4248473231914
75.6308458385202
75.8205478583299
76.0294350605343
76.2308733786375
76.4468718670482
76.6706473753113
76.8982690194989
77.134772768754
77.3552546073667
77.5640297386314
77.7476092771629
77.9421941848623
78.1630400937831
78.3810172564112
78.5699296101235
78.7303924829952
78.8500004810331
78.9690931221414
79.1128434386422
79.2573936332267
79.3542018508667
79.4416557485579
79.5383627338294
79.6552602346056
79.7369273691761
79.8337451317845
79.9523994482957
80.0382777400815
80.1303822266281
80.2432978928336
80.3571077631525
80.4697744210769
80.5172218844487
80.5402307266038
80.5800577500858
80.658323756237
80.7167915320134
80.7432652649607
80.8061994538049
80.858160927657
80.8759117222873
80.8827920501167
80.8663263657231
80.8909039798065
80.9309891497558
80.9398162680988
80.9123500549922
80.8865493231647
80.8365834197278
80.831401055884
80.8569629303614
80.8366554898533
80.7966806685208
80.7462296108073
80.7197870637638
80.7383242012813
80.6805623538776
80.6113144088042
80.5279363139253
80.4556812358484
80.3807687628672
80.287862976109
80.1603682459351
80.0434851635621
79.9440263248048
79.8619316275158
79.7690066715686
79.6859365991764
79.6038080349406
79.5198855905729
79.4369360607099
79.3520844915012
79.2425593361299
79.0955835049483
78.9726826123413
78.8929840341812
78.8018403518602
78.6672276555744
78.5358242329708
78.4586666855275
78.3656127267338
78.2518919657426
78.1396697604445
78.0670336676112
77.9915780742611
77.8886225684237
77.7799720007203
77.7131550721757
77.6274979978039
77.521176676056
77.3928791860329
77.2879669856741
77.2285957102461
77.133897598237
77.0321660430107
76.9438856564667
76.8553121453219
76.8093781309328
76.7777655982685
76.7290666478437
76.646039507358
76.5551945739833
76.4339281222889
76.3719236235215
76.2922414498954
76.2079746086056
76.1174842351398
76.0001119731158
75.9184110364419
75.8814438725934
75.7664058821811
75.5984645903336
75.4722958014415
75.4063665012912
75.2983916731408
75.1895132637195
75.0892686118395
74.997501600709
74.9154783854914
74.8381327025035
74.7295575180155
74.5878614535106
74.4148818102649
74.2969588714217
74.2172690671217
74.1022284085964
73.9423780668886
73.7743751895425
73.6039455048628
73.4609902915479
73.3006523695825
73.1928682491667
73.0760868263571
72.9405822297508
72.7906858342107
72.6224014845647
72.4303880350549
72.2613779361364
72.0714633440374
71.9245834867852
71.765438238199
71.6522808671992
71.5272816731158
71.4053669000138
71.2587751396585
71.1569209261651
71.0522142086957
70.9517847612108
70.7997987333217
70.6989904102485
70.5826031019406
70.4293040509073
70.262326528489
70.1666974279062
70.0277589479276
69.878034115757
69.6617603511956
69.6764782547618
69.6357643826264
69.3797540347564
69.1747264750149
69.0486187999988
68.9147338838393
68.7961965695271
68.681571845908
68.5412281951562
68.3996900671394
