1798
3999.43349933624
650.420452594757
1
128
4
94.2460581912134
94.2371479463872
94.2591877313857
94.2218835208769
94.1541174353505
94.1579089979386
94.1525750078877
94.0976043336791
94.137324695585
94.2764273729201
94.3302914837002
94.3727793463132
94.235782110772
94.2334023158842
94.2677935155893
94.2591136776455
94.195345954508
94.1735661779748
94.2202748353271
94.2939910824358
94.247218850761
94.20812584524
94.2588820942369
94.3124539906949
94.3365771916192
94.4140565684273
94.399117348959
94.3860017673255
94.364382647489
94.3148161106487
94.2271698867524
94.2307253463822
94.236856149076
94.2527104756728
94.2268857455476
94.346219595007
94.4836026558338
94.4715352534297
94.3657679138418
94.3413643671011
94.2856550866196
94.3072263495852
94.2415888376576
94.1578834692429
94.2929792404818
94.4403455789665
94.3916402864119
94.4302294507886
94.4786556868093
94.4428755991077
94.3203213480747
94.3065469087577
94.3214600202783
94.3297142246448
94.4155891978253
94.4395587074
94.3070971742241
94.3079522478501
94.3320859063162
94.3888545291752
94.4848200348892
94.5113155871813
94.4592460441788
94.5289366033884
94.4852262706171
94.4656727431579
94.5361029904838
94.4688323368591
94.4311817381285
94.4750589029078
94.4148790809096
94.4624292329729
94.4133735199105
94.3558531618927
94.3874495103208
94.5164791612281
94.6277019926076
94.6036838772191
94.39018707628
94.2955581323316
94.3436381005839
94.5152046962905
94.6341878487372
94.5499104305498
94.40061600152
94.3827627518961
94.3625269161984
94.4626128612669
94.5277350189572
94.4869204106137
94.4963482243077
94.5642300030253
94.5402510906953
94.6143430874618
94.6510415759809
94.5911396654024
94.5277585008983
94.4827622743279
94.3865217935113
94.4303003869607
94.532042923191
94.5692254042443
94.544400565264
94.5920005735519
94.6247731634208
94.5986795774406
94.393848132259
94.4449774760815
94.5682522797172
94.5927453703491
94.6226422633693
94.6887325052734
94.6489492492433
94.6321939077324
94.6152291374218
94.6465629635309
94.6446085216268
94.6068319139898
94.5902319337422
94.7312114396915
94.819200364921
94.7770757276984
94.6987049332631
94.5771316939555
94.5429086628525
94.660669676112
94.6771900972308
94.7666117614206
94.78663142662
94.6876800664577
94.6447939676555
94.7817222796752
94.8750696735297
94.7358315109467
94.6109466278782
94.6828516255741
94.7532595191724
94.6783136485688
94.6151346604522
94.7966070615998
94.8821800822202
94.7318049595693
94.6413418573654
94.7522884497211
94.8216855468557
94.761941426566
94.6291498361449
94.7010409439294
94.7809037476399
94.8421646775022
94.9040772442576
94.8876003098644
94.7924310214311
94.8590053665464
94.8475873807362
94.8274980302482
94.851559269223
94.8872643385963
94.8120601280237
94.7564398618441
94.6384550560148
94.7031347172109
94.849878409108
94.9381501895794
95.0053115295305
94.9187051924129
94.7328023758044
94.7384251176306
94.6922304587796
94.7258209825356
94.8097069597341
94.9053567114648
94.9108511854142
94.931353168494
94.7496499118063
94.695962371925
94.6127925577341
94.5439611677846
94.5524453067689
94.6113659316054
94.5536395502735
94.4585947538098
94.4496469197461
94.4657337558482
94.485459771593
94.5369618120823
94.438131442499
94.2898329375269
94.1466340411156
94.1291528665036
94.1697225641198
94.1581833814397
94.0795059669431
94.0266050333536
94.0357435720115
94.1130873407908
94.0701678985954
94.0011651147645
93.8790571978594
93.7168362880787
93.6358963617269
93.7069271769292
93.6917195689806
93.5135434816645
93.3101755282506
93.1809149583883
93.1438303574942
93.1314732325313
93.0126587533707
93.059146563463
93.0408747840561
92.9418052670086
92.8768794135083
92.9821907354463
92.9506102840859
92.7561527265106
92.615323126726
92.5760772029958
92.5183530306054
92.5210300050497
92.4501138516823
92.3128934078893
92.1130465063511
92.1377341633303
92.1198636339305
91.9607171627776
91.8172998637426
91.8548978405555
91.8582849935677
91.7715956663242
91.6481569358653
91.6731699684879
91.483483277355
91.3289243442171
91.2807603421586
91.3208488948333
91.3571688456889
91.3030559066559
91.1508417355293
91.1024626681599
90.9703213014978
90.7612311566876
90.7182066179312
90.693134699166
90.6288127071047
90.6145090098858
90.5624706066441
90.5703233195453
90.4204332604181
90.2974266908266
90.2410802581069
90.201032559292
90.0821672304168
90.0480077957547
89.9422813728326
89.821169078688
89.7038729138521
89.6402157636155
89.6050805194271
89.6068421202931
89.5130045078699
89.4407349492284
89.4251815233539
89.4218205123965
89.2127457857649
89.1226971600254
89.1476094421468
89.1093804746749
88.8445336955073
88.7305184228436
88.6622082116425
88.6426454262187
88.5980012113548
88.5450584856142
88.4140725288965
88.348939117481
88.2692705440448
88.2102274603224
88.1126484260177
88.0639421618115
88.1220760084224
88.1578181453097
87.9618774914087
87.8711860737009
87.8559934306804
87.6645642205742
87.4869663190967
87.5033953342957
87.3741298687204
87.2870526868187
87.3074713594001
87.3616434837541
87.2509624946507
87.2022967241917
87.1542987528702
87.1569892573778
86.9488157768381
86.6851107764999
86.6358926690981
86.7620271927132
86.72348636366
86.5795815340859
86.4572711837626
86.4685872994813
86.3997166645202
86.305926003556
86.2430783605867
86.2276700815657
86.1644740638243
86.0304936129239
85.9906889110579
86.1107221142979
86.0290737150965
85.8383708165932
85.7512470629574
85.8128970003832
85.6842326114027
85.5794483550203
85.6604151277188
85.6446081773149
85.5387483654607
85.4744825634081
85.3319032653873
85.3113325891169
85.2637459396949
85.2324935035139
85.2001960093062
85.1764453718712
85.1136220156417
85.0630727999462
85.0588174740435
84.9689862119284
84.8158265548467
84.8292319880702
84.8557297064521
84.8371297202842
84.7044742615877
84.7230089908613
84.7489276321718
84.7000829716275
84.5861814254114
84.4918919323497
84.3961877153208
84.4034245944489
84.3975812270405
84.3815193112583
84.3626678704587
84.3790465706346
84.305788342297
84.2552847190965
84.2039738442993
84.2158095476028
84.1854009814277
84.1406074660747
84.0603413233971
84.0466765894917
84.0050396969748
84.0099699260519
84.0789697536785
84.1092092898911
84.0111067323434
83.9874638099233
83.9685552649392
83.9221591077721
83.8245028641112
83.8254940896856
83.8038559673529
83.8737907016508
83.876809493935
83.8462531493797
83.8106814379972
83.8365557800665
83.8902006532381
83.8488784393058
83.7738348317185
83.758346893214
83.7371039214899
83.7301811280959
83.6828185590427
83.7132161220315
83.6581669204383
83.6195786763755
83.6644190011372
83.7003237912685
83.6349958852072
83.5969007728366
83.5934174826717
83.6065876136287
83.5438507293737
83.5648877842241
83.5717285103722
83.6080952808528
83.6506145596237
83.6699733396484
83.5781978302192
83.5752261320534
83.6247537534074
83.65976015092
83.6109534985218
83.6490628440684
83.5875281129339
83.6187435524844
83.7354044368051
83.7551116197195
83.6345696914788
83.5769509476048
83.6252421251047
83.6932390533745
83.6889195065643
83.7488322085294
83.8190831954755
83.8923074054711
83.7756747464653
83.7132368359129
83.6639666456691
83.6899135278303
83.7889155023653
83.8968176416594
83.8343871615012
83.8193809512407
83.8303935002098
83.8082382306502
83.8778325024669
84.0014289736112
83.9075546282195
83.792369151178
83.8243603692281
84.0124124551712
84.0632178845163
84.0237360644368
84.0044419781722
84.0506101309132
84.0419137038681
84.1229412763183
84.1133885657051
84.1277674748514
84.0775135554945
84.1508965970741
84.2792611796669
84.3530713766548
84.3536180489701
84.3668903605746
84.3666276342291
84.4304299263761
84.5195598497285
84.6331823545506
84.6358830296245
84.6735921683964
84.6964130425143
84.7218815820633
84.7559128160271
84.7977092557268
84.8787388146688
85.0011141280487
85.0251721800481
85.0226321084553
84.9708764626403
85.0084117658002
85.0943541103167
85.1944566799847
85.3134358044288
85.3849583914546
85.3779268533646
85.3513478824419
85.2607974187434
85.3148820672453
85.4511070082257
85.5717714956236
85.5670190729296
85.5455461444948
85.5949458041196
85.712506873197
85.7652703079615
85.8749188445939
85.8853985010362
85.9001143409645
85.9157237320405
85.963667077695
85.9427096408425
85.9284083443345
85.9291226661285
85.9858786332037
86.0429956511803
86.0927802106263
86.0637793620465
86.0615200575991
86.1357928295936
86.2226475246202
86.1960865152844
86.2330653400756
86.2950293164434
86.3641876413625
86.3493398873347
86.3510896823652
86.404882271091
86.4694985399668
86.3704524935338
86.354658853165
86.3965570913635
86.5254126093836
86.66720906007
86.6718980531342
86.5985809729272
86.5696481587678
86.5803478444498
86.6458454763814
86.716639008589
86.7827187521188
86.8370390687831
86.8839569496229
86.9325380631656
86.9862695034896
86.9594906678354
87.0286489572231
87.1371868719894
87.1345675272199
87.084671494423
87.1403519890259
87.1693745710397
87.2787324096357
87.3241102413377
87.29727985376
87.3100556691353
87.3847119385937
87.3634849333907
87.3943596691828
87.4597843287422
87.4986303327148
87.5487404034825
87.6626990495178
87.6760150176552
87.6515760698685
87.6359045768319
87.6864284576233
87.6844851246686
87.624205050896
87.5593922839314
87.5902941415927
87.6676297006098
87.7035823330885
87.6587152180948
87.6360038217563
87.6077879407285
87.6151281285785
87.5594690668469
87.5734806141583
87.580182735669
87.5356767683484
87.475232901253
87.4274090890745
87.3546467114852
87.325460389653
87.2604261932217
87.2407791944429
87.2197382755926
87.2194527524856
87.1789184906846
87.0893636823486
87.0210400838092
87.0092444195882
86.9950828714564
86.9802054163788
86.9709350417057
86.9495436349918
86.9321381592258
86.992101111215
86.8879176091402
86.8152705738203
86.7530936505416
86.7090521560799
86.6907111485877
86.6875289314783
86.5800987437007
86.5517974388905
86.565130470376
86.5619777955495
86.4967131734733
86.4908301970266
86.5217055198804
86.5875237220667
86.629958651829
86.7095253317853
86.8355504487004
86.9576360733906
87.0162696712439
87.0789380115767
87.151980230572
87.2411097879992
87.2359381438142
87.2748898829552
87.2985764042014
87.3263855781829
87.3997082460786
87.5134203911227
87.5754965203706
87.6455349493821
87.6741186328669
87.6419404776192
87.6228859487465
87.7121048889892
87.7051816718749
87.654026546833
87.6790524405449
87.7643361759659
87.8039846078247
87.8632667877182
87.9153757252115
87.9450619482158
87.9607241509076
87.9831539580659
87.9871830461722
88.0725954165845
88.1145440795613
88.109761795088
88.1137398960599
88.0938253305833
88.0758743767826
88.1416964487492
88.2677294143264
88.4118346674981
88.4804132146537
88.5012053552449
88.596436183088
88.7123370604174
88.7464229869196
88.7836962457518
88.8307066660242
88.9070584233701
88.9576086442435
88.9808382806606
89.0112983691731
89.0618633448632
89.0369146230291
89.025013264749
89.1166173680585
89.1919345207745
89.2275628626629
89.2659784872542
89.2995028604997
89.3514260049341
89.3697727336869
89.3962745280447
89.4729837090419
89.5366488223964
89.5370383475707
89.5312950515457
89.5386825552272
89.5578136927309
89.5984485824212
89.6614091868174
89.6916237347358
89.6952571198424
89.6614171978716
89.6777833383469
89.6874855421806
89.7196845273791
89.8117636083675
89.8741688201264
89.9075453738225
89.9313864287905
89.8858958443104
89.8936392861483
89.9275836361682
89.9505938096611
89.9421141547117
89.9048357805123
89.9385081840287
90.0379995109672
90.0846619284177
90.1060664423694
90.1028689896489
90.1160590122791
90.127984471049
90.1389251840329
90.1691616949684
90.1802167822017
90.144132018506
90.1530894817225
90.1795382609671
90.1873167758412
90.2003110585628
90.2134686491824
90.2323401407318
90.3036664994707
90.3453743644254
90.365307759065
90.4025939787322
90.4036607635809
90.3819761935448
90.4054602526703
90.4425371474822
90.4954693511295
90.4670291309156
90.4183963759961
90.4578790019932
90.5154777928919
90.5117250020972
90.5273526151859
90.5559868366078
90.5749454178008
90.5979165009294
90.6306841175535
90.6851265866465
90.7042888227245
90.6498193273445
90.6341459368848
90.6317456439899
90.7110202313974
90.7756638955136
90.8047937553004
90.7994552839941
90.7958888461937
90.8040676373794
90.7878407026416
90.833327124169
90.8968860026669
90.8699060412016
90.8784555890046
90.8434778662562
90.8166117091672
90.8425735354074
90.8842317368596
90.872895080668
90.8866247014607
90.9459752560005
90.9576864727906
90.9376939254013
90.9613706951028
90.9929144638139
90.9960665844489
90.9714170142846
91.0160070794378
91.1046862990448
91.1960887237663
91.2332402373189
91.1984910581386
91.204755096428
91.2353990180398
91.22907631667
91.3081837967199
91.3831328002864
91.3785750125115
91.3806488885579
91.4462101436931
91.4608439254869
91.4837149089076
91.5019529490503
91.4789534487554
91.4912522164089
91.5764581843256
91.5584297570148
91.5549628269705
91.6514667067425
91.7255765318724
91.6805638092426
91.6355801154569
91.7002253582311
91.7501537952569
91.723571873598
91.7349182656296
91.7876249357261
91.8032648302457
91.9006531616938
91.9874634460865
91.9858895384125
91.9437633305806
91.925991870646
91.9790534651041
91.9659128657882
91.9342489001773
92.0029426393798
92.0854641778561
92.0477393317382
92.1007236440071
92.0479169220706
92.0231257635379
92.1185689921047
92.1354885912533
92.1089579031371
92.1867688824407
92.1978487978524
92.1301653481091
92.1954138904745
92.2940148404702
92.2648514293996
92.2574103894027
92.2148131662701
92.1974385858639
92.2045249522195
92.2113167778299
92.2608385006456
92.2853302967182
92.2859062769495
92.3165669921331
92.3759815280666
92.4063782547053
92.3844376290007
92.4355722824613
92.4003929675307
92.4146581800268
92.4718023687284
92.3668289813505
92.3447512710979
92.429591776635
92.5336872162981
92.5365297076573
92.4580733043789
92.4618999723995
92.5745885798167
92.6138512843352
92.5015516993555
92.39473829704
92.4595959137273
92.5522599078199
92.4918883879628
92.404986610407
92.4717258725342
92.5376239031288
92.5777304811439
92.6549553337823
92.6594464747536
92.6346111480213
92.5678405298226
92.4984560887063
92.5267014321092
92.5676486034528
92.61769524052
92.6581840685823
92.6009911996505
92.5562010293813
92.5797490998839
92.5913908675431
92.5391581744353
92.5762060226899
92.6760498763339
92.714950285193
92.7590229205241
92.7164671425544
92.6922812459258
92.7558317543285
92.7984869284307
92.7300302304764
92.6702641314375
92.6902676089144
92.679281428341
92.7520409214533
92.8914647050133
92.8529260540595
92.7767191934832
92.7914614972853
92.732357595691
92.735877404248
92.7585762512038
92.823307937516
92.8386344931029
92.7779527295791
92.7723247730703
92.7456886481307
92.7391433366788
92.7559623304772
92.7986582521424
92.8135143786636
92.8330561881505
92.7943933442215
92.7150719633001
92.7547606859206
92.8169637179533
92.8217749051417
92.7923581772856
92.7638299428054
92.7729229327068
92.7794731165934
92.7423548613085
92.7431218144905
92.8306533488369
92.8780943786589
92.945485359167
93.0321829392449
93.0291418867567
92.9342744344871
92.9065717473875
92.9119070168365
92.9822262641765
93.0116070380922
92.9624695331768
92.9268974231019
92.8656774670408
92.8085743498763
92.797161062446
92.7959536043695
92.7629349969404
92.7819094616915
92.8690422461228
92.8462949180359
92.7783228680634
92.815405834531
92.8917789791555
92.8137858066024
92.659917275482
92.6079506143857
92.6516046104524
92.7486929255231
92.8496363750664
92.8047878682342
92.7905430122507
92.8730052345726
92.9143410535674
92.8949907427108
92.8480613925639
92.8674557228686
92.9818882632719
93.0149447643304
92.9178331909903
92.8627263454257
92.8554517085652
92.9461382951924
93.0084178237469
93.0912451795576
93.094624226759
93.1248087113211
93.1795733940415
93.1999111367091
93.2606944222149
93.2990642649653
93.4319057234677
93.5345702358291
93.4421714212406
93.485036829109
93.6142349542999
93.773170038666
93.8562146344598
93.8554348691235
93.8032937331555
93.7452160003217
93.8162679277401
93.9855052664745
94.0037317684392
93.9685587175389
94.1007699825461
94.2424277222112
94.2349567108552
93.9831823761919
94.019213354523
94.225646321282
94.3671712779824
94.487664564904
94.5303391987933
94.4768530650705
94.451153897949
94.6631989237561
94.6680364483291
94.4690305039187
94.3814055717021
94.5258131604394
94.8199947536218
94.8965547393749
94.7390142132074
94.7224943383808
94.8927567834623
94.806283000194
94.7815165860847
95.058089955343
95.2506951091922
95.261296141003
95.3026444524419
95.3277853978659
95.2617554012478
95.3919419335922
95.5196085084903
95.728189660511
95.9328054187764
95.6085622686493
95.5681813617769
96.0480372792863
96.3786927748622
96.5160289360157
96.4080828508874
96.277562970861
96.1883789696916
95.9792686295854
95.984541996261
96.1049571491532
96.3258514620843
96.3166261620997
96.3525613333954
96.2049017076284
96.6998467230801
97.5099538886066
97.2215642723759
96.8816690156419
96.8045856910873
96.9687151156071
96.4251402299275
96.0828957961209
96.0533338940444
95.7393535203839
95.8583302488862
95.8881181178396
95.6840665860669
95.3630945433773
95.4247356106954
95.5240985694443
95.3838390886788
95.1909984556337
94.9368067623366
94.7143717871887
94.8272599537712
94.7515912334452
94.5951245097819
94.4521883705567
94.4948714902189
94.5054902308502
94.448424035294
94.4609650684653
94.5070915261222
94.5743748372889
94.5654199336727
94.66242604541
94.8307473961061
94.7776089411375
94.5852603740461
94.5670152009343
94.7737133509234
94.8696615286424
94.8083144600154
94.9059080168172
94.9849930810598
94.7661348170712
94.6674720328976
94.7464166399146
94.8427889934177
94.9197240115368
94.929941224016
95.0075718058537
95.106428943285
95.0974896013271
95.1663304175447
95.1223183259732
95.1081779192823
95.2376294958462
95.3315637723992
95.3592115875769
95.5144044432409
95.7230630941146
96.0105087010757
95.7581983367789
95.8142325513344
96.0344794548349
96.0534569275822
96.3316951471762
96.4614340349833
96.6847081226486
97.3854868063032
97.501288535387
97.2177112352953
97.1062020210238
96.9128053895237
96.9290315920772
97.0267713169387
97.2096004282803
97.4802922811783
97.3588626332722
97.1845826770594
97.0008058387361
96.9007508354075
96.95707605683
96.9857058862027
97.2400452588929
97.3000177415596
96.6415514881312
96.118798998305
96.4314726390636
96.8481594794142
96.8994180690517
96.7754690873898
96.6602516862096
96.5944475230903
96.561349406865
96.524065813392
96.2406545781096
96.276264361458
96.8215623343302
96.9863078996054
96.6953569692482
96.8837210090076
97.2152052580767
97.0880968360162
97.0360183036884
97.103498569043
97.08808872415
97.0838581536186
96.9040194523329
96.6556037859795
96.3987180268506
96.2175114334726
96.1303883918837
96.1279848294549
96.052805018993
95.9506930104315
95.9563824307122
96.0229252406837
95.9820817844324
95.7102121803507
95.6371658672478
95.6827495112871
95.4790067616445
95.4542361801331
95.5331978129997
95.5031029845992
95.2647883938213
95.2722643753533
95.363516299331
95.3091634866653
95.3795818493556
95.415234300731
95.1854169699682
95.1458678745846
95.1001156816321
95.0997816573038
95.1030896786828
95.0854183894675
95.0190749668347
94.9969093824634
95.0405417293644
95.1469689170577
95.1567731877174
95.1093881719536
95.0536419981933
95.0605229302149
94.9936611897329
94.8561613535191
94.8793538600857
94.8904769904443
94.8483906544853
94.8816497719577
94.9704295432161
95.0304148292803
94.9744867149833
94.9564170293398
94.9022375689527
94.8830682645845
94.9337717383492
94.902647197084
94.8787398096021
94.903956767674
94.869789885465
94.9448445365982
94.946782836389
94.8827772819539
94.9013067283937
94.9166499868363
94.9063791058857
94.9148536213385
94.8766906980839
94.9180764111772
94.913576885646
94.8603614872243
94.9518560295131
95.0797067088222
95.003365850369
94.9514317527406
94.9246710712467
94.9551051339931
95.0177770839787
95.0298157879332
95.0163151315122
95.0006299245614
94.9540233746448
94.9411421999916
94.9878954838641
95.0117215277847
94.9802353388043
94.9720019652756
95.0102277821938
94.993106556937
94.9774758951199
94.9795271126581
94.9372110550223
94.9022541559295
94.9255165202006
94.9114437596383
94.8825605318923
94.9029725247051
94.8689215073764
94.8315154242017
94.8598814900072
94.8444955244501
94.7536876954599
94.6885167940608
94.6662919084533
94.6254467334891
94.5933519776601
94.5695263973009
94.5123642576211
94.3930032611633
94.288645809055
94.3021153194401
94.2712555182672
94.1853575538572
94.0885369198358
93.9833463449079
93.9450168070675
93.9197023300269
93.8293722738897
93.7683404748359
93.6602664476381
93.4911750941287
93.4290822305095
93.3401672231368
93.2473760427368
93.1584247344731
93.019402385883
92.8721098529612
92.7801004806678
92.6615752164264
92.4807543993765
92.3960019105935
92.2978289157239
92.1221916146174
91.9594166215982
91.8302016529583
91.6688117979401
91.5593000399051
91.3638727006242
91.0728474877844
90.8798927410419
90.7720650155777
90.6313228764632
90.4801187987294
90.2747383666106
90.0435481343509
89.8295549177458
89.6299828867474
89.324669294591
88.9460027600635
88.7060124713511
88.4062133830365
88.1809758012317
87.9550795722892
87.6405504637739
87.3116463813051
86.9386813835268
86.4331817196434
86.1297393825793
85.982447464455
85.6085844790656
85.1993647274788
84.7413922909514
84.3740070904521
84.0131170037417
83.5865897796448
83.266900188957
83.0173287149385
82.6290362000754
82.166742109205
81.8558628358617
81.5881008330009
81.2155726725789
80.7440488319258
80.2494728507382
80.215929923729
80.0912729051064
79.7410753632218
79.4630688131508
79.3445574823927
79.1441858231491
78.8719485084583
78.5426363764107
78.2036900023258
78.1048262832223
78.1011876068639
77.945076912635
77.7308746365756
77.5291847271891
77.3514212312496
77.1881757413722
77.1350124574271
76.9952121859626
76.7559523671363
76.6424842231915
76.6004448160047
76.4153453922512
76.2205695682062
76.0587089721771
75.9019973703652
75.7396022510904
75.5863890405163
75.4126288290564
75.2712618270129
75.1143319165248
74.9867851780125
74.9114664165255
74.8523116823353
74.7312965258183
74.6493367578631
74.6256014059886
74.6184474580883
74.586826478028
74.5598512172369
74.4313105652308
74.2995315254406
74.4812799831072
74.6243612871525
74.4936551881656
74.4753881815788
74.607724549246
74.6439294035429
74.6581537066749
74.4490228518373
73.9105423596728
74.4024169425068
75.0205548824524
75.1772472669949
75.2266068139851
75.2872680466949
75.4370488793605
75.5150810762081
75.50675101522
75.6110971992847
75.6638642390794
76.3023226480942
77.0719646659509
77.1793006418989
77.215056792135
77.6830669610115
77.962057356783
78.0555624006667
78.2550122203651
78.5250260233003
78.5898579156922
79.0027084047343
79.4029691628306
79.543204954325
79.8278909584818
80.0414806283954
80.1438547841508
80.0669817372325
79.8841368972472
80.7674667052689
81.5870131193505
81.7147454682367
81.6317785665827
81.6524770783173
82.0095415998387
82.5364275318971
82.7009545625736
82.6736015546316
82.9394962785445
83.3800134974527
83.6794593361341
83.8070057350385
83.880280388542
83.9353286906659
83.9025420827834
83.8049113273652
83.6291991260992
83.5526647629173
83.617094951895
83.3889221806103
82.9811178528528
82.654589708852
82.5352972928827
82.3108639670778
81.876402588973
81.4868042719249
81.6674352830562
81.6932178535109
81.4797997428445
81.2166045254889
81.0178333910161
80.9717176862324
80.9156179295748
80.8024125565098
80.6771011222673
80.4422485528061
80.21204537211
80.2766377081979
80.2257872083806
79.9580572157338
79.6772703389208
79.4347355394475
79.1458312499247
78.8105571843632
78.4796413983279
78.1007997377077
77.8857950273264
77.7841132699875
77.5643809501811
77.2987955778873
77.0665015911937
76.858252362568
76.6531344702344
76.4908104642494
76.4202905370948
76.3392933077775
76.2117557953133
76.1886041733252
76.1792878660344
76.2441034709056
76.3597433325357
76.3135897341606
76.1813752369657
76.236964751223
76.3889168450497
76.4313771400035
76.4396672538994
76.4787073217187
76.5486397018211
76.5824714998441
76.7289672697118
76.9377311769085
77.0429487170694
77.1618468482406
77.291499719662
77.3641726565126
77.5656269872605
77.8613741143812
78.0297968909104
78.1384899028174
78.2786554010432
78.458040437689
78.5880783612871
78.7221472147438
78.8960229904515
79.0437436786489
79.1593524787262
79.2133261612881
79.3066960309985
79.5112928537537
79.6970601225783
79.8323606846209
79.9001812063432
79.9423107266538
80.0149768975983
80.1008571838074
80.1567513105971
80.2100294569966
80.2542262652786
80.3166765645512
80.4253744380268
80.4763047484594
80.4853350906686
80.5468750892633
80.617500339791
80.6769915222668
80.7269991516532
80.7847410477154
80.8354531350091
80.9148354804758
81.0366199194005
81.1316064337556
81.2231287713488
81.2984082766247
81.3374767313254
81.4052614252555
81.461380354415
81.5109502966123
81.5392284231119
81.5472437280779
81.5504732832252
81.5354767004625
81.5020120234538
81.4801104155536
81.4462208005989
81.3902224055787
81.3391723942681
81.2924138720303
81.2343359494987
81.1816801385932
81.1256117002101
81.062226062974
81.0004288457308
80.9530594472505
80.9054679658553
80.8486201696216
80.7884834327809
80.7428965855774
80.6938024017589
80.6299666918461
80.5707893415009
80.5313721086347
80.493161166287
80.4593690839169
80.4350257445073
80.4181449632781
80.4413962842696
80.4750409768343
80.485649931752
80.5186256370328
80.5574605049843
80.5920432713923
80.6456214933745
80.7307812644275
80.8392813225392
80.9208114613487
80.9835175839686
81.0862738614977
81.1920808780863
81.2828187226021
81.3844745120316
81.4827982455932
81.5823344315764
81.6903612999619
81.7894449490796
81.9050557570214
82.0192582025642
82.1153690874563
82.1835432064901
82.2158272689122
82.2244419007495
82.2354876830549
82.2188610343864
82.17930201909
82.1349797768047
82.0713202330656
81.9803440160635
81.9090782298663
81.8533852231287
81.767917991978
81.6833931004898
81.5816598030884
81.4588607114106
81.3402358038052
81.2170238580647
81.1262319992761
81.0152624931105
80.8677827690775
80.7369633204151
80.6122349851095
80.4847972093613
80.3362207140898
80.1865175749601
80.0376618353007
79.826953229568
79.6097706446306
79.4203613363619
79.2319445451534
78.9729385611361
78.6884853251841
78.4048273427364
78.1180017957165
77.8722143648629
77.6559036697345
77.4627482367615
77.2881076968062
77.1445886196036
77.0186079939744
76.9036974465696
76.788752639731
76.6740218864205
76.5420273772731
76.3744889551892
76.2218089255505
76.0468705281028
75.8298185492906
75.6011786790991
75.3730001845482
75.140855797106
74.8996702947801
74.6595313798064
74.3902013373327
74.1149461958148
73.8679693492596
73.5993159491072
73.326085507393
73.0870240101238
72.8574617747405
72.6163609649422
72.3877117759476
72.1846454090592
71.9827402606277
71.7828233568249
71.6013259382266
71.4240762211848
71.271065313524
71.1227538408713
70.9659957765715
70.8129682954882
70.645020527511
70.4716955024363
70.3047083563377
70.1541705411993
70.0331057845946
69.8745518054349
69.7596599926742
69.6597713797686
69.5205194710394
69.4085926796879
69.3421920622944
69.3144626968998
69.2831300717651
69.2238133800105
69.2184591938782
69.2389402654016
69.257185872735
69.3013569385511
69.3772537312456
69.4535544271319
69.5595863645548
69.6817624263201
69.848736651986
70.0252035221676
70.205306310605
70.457861472768
70.7210732015898
70.9473759645862
71.1774374800804
71.4208273458221
71.6735419514057
71.9237761931412
72.1702600426323
72.4232775816773
72.6405276537533
72.8552719446161
73.1177120750163
73.3352482199681
73.5361185821534
73.7284934907038
73.8836468145353
74.0602237173177
74.2287209597259
74.3771986201212
74.5610098185967
74.7279276994373
74.8861886252433
75.0565706093518
75.2475378242956
75.4599531168922
75.6800701439018
75.881508088051
76.0801846538766
76.2607880770774
76.428698833832
76.6216663266784
76.8238825689537
77.0003158555747
77.1683908127168
77.3649369550574
77.560802571461
77.706149553428
77.8640330556304
78.0264240813677
78.2106336075149
78.4352680591487
78.6171951826361
78.7523028687824
78.8722623348593
78.9988150499184
79.1333785979104
79.2284185324399
79.317091443329
79.4309034865164
79.5346864774342
79.6232102260455
79.734465727771
79.8163381424871
79.9099347696207
80.0135952704815
80.1180659325661
80.1960675631057
80.2880283204717
80.3908512465706
80.4713906091151
80.5629674083851
80.6335699195431
80.6940479462361
80.7411601559016
80.7516723533527
80.7774233156566
80.8275757531763
80.8907099757623
80.9329147714642
80.9878734018627
80.9864923328903
80.9989252954566
81.0400235785292
81.0649376463298
81.0727305013658
81.1170232121707
81.1537626962358
81.1843909871833
81.1898438910024
81.177690026021
81.194116504857
81.2345042812374
81.2252911306426
81.192690015452
81.1331285074393
81.1370094071172
81.12109862198
81.062304753504
81.01781007229
80.9869756498132
80.9103860100515
80.8274609223186
80.734403502872
80.6707857817835
80.6095867502256
80.6118592153696
80.6317985560657
80.5584632124954
80.4691245474903
80.4471298251248
80.4376369186204
80.4061173274304
80.3419609801214
80.2484907934334
80.1253912385231
80.0341106687996
79.9094328211675
79.8669961983883
79.8796774812843
79.8442619956621
79.7089444661651
79.6311286073022
79.5926398392232
79.5834200232336
79.5897125921888
79.5341799048816
79.4404923451054
79.3543097404374
79.2624999837579
79.2295422623031
79.2072144778703
79.1453716313885
79.1014226708878
79.0633501063481
79.0100837886957
79.0160928647097
79.0155833651954
79.0028249313969
78.9585969561468
78.9341907036937
78.897013630002
78.8626916896557
78.8314520451529
78.7809642058294
78.729367268284
78.7058192903312
78.6427512715618
78.550340924702
78.5086983400483
78.4783464971514
78.4210093965838
78.37580417011
78.3650072458312
78.3188667803037
78.2074010787993
78.1469668659871
78.1213504431024
78.069184993707
78.0251653748027
77.966138218418
77.8285299827713
77.7216693790762
77.6565328586405
77.5830498775598
77.5066742559584
77.4235330182425
77.3001250046639
77.1540660299414
77.0268639265209
76.9624632364963
76.9150379106786
76.810565979955
76.6855392502108
76.5670508921887
76.4130939469636
76.2357390188296
76.1014846435449
76.0343130297976
75.9039537392721
75.8252561854875
75.7498147337897
75.6489243011058
75.5706143602913
75.5190657941341
75.4478133630497
75.3831457175002
75.2835313499715
75.1740154003582
75.0208744400781
74.9245073825928
74.8439022043353
74.7939146396102
74.7103489193938
74.5709993183928
74.3134088213378
74.3860238389909
74.4077272068741
74.2072046963862
74.0491442515612
73.9793319971734
73.888672995613
73.8301893538216
73.765488593321
73.6555078037812
73.4897624611326
