1798
3999.43349933624
650.420452594757
1
128
4
94.3856552988278
94.3650302015482
94.4307709144474
94.4974987157493
94.4724843962008
94.5321186862718
94.6004925104726
94.5035583150051
94.3944698769627
94.4025938135575
94.3276835126778
94.283096851723
94.3638398618154
94.4324850234098
94.4005321803064
94.4394913644174
94.4126850313274
94.3873991213984
94.4342358781162
94.4838860875509
94.3610822393992
94.3719438177823
94.4050619515985
94.4211852468647
94.3627622613129
94.4657856878673
94.5535312351061
94.4609942441408
94.3224692597084
94.4026835309091
94.4872548796444
94.4681464326022
94.4431140064833
94.4901312475915
94.6037905058654
94.629988019169
94.4739665264719
94.4255612914539
94.430059390314
94.5255065511973
94.5943154631144
94.6266763549984
94.5738324529057
94.5202802860985
94.5226596229704
94.5167868850299
94.5187072862338
94.5894657729306
94.6679262596027
94.8229823270127
94.8005525655616
94.6123581589477
94.4417825642989
94.4570608933022
94.4898540387118
94.5854570775895
94.604117255334
94.5935792260477
94.5309482315789
94.597391247135
94.6582998297792
94.5806482994848
94.5753550775656
94.6346266175664
94.5620042069018
94.6025601483403
94.6270622729733
94.6785581320139
94.6175152677537
94.6069258707309
94.5381990737354
94.5158345665021
94.5637298506513
94.6650434634437
94.7872263781517
94.9115573568511
94.8449437581681
94.7324571325912
94.563398389967
94.4358809617288
94.4264355866118
94.5161687745692
94.7380381933943
94.9431690200447
94.9292376774764
94.8674334312258
94.6711172893145
94.5541531314332
94.5462026759072
94.5622727186731
94.6297882431776
94.7757957700587
94.80850341411
94.8162954751626
94.8256769667744
94.825883475177
94.7402915914964
94.7102918479132
94.6668655519493
94.6937068971167
94.8899509021117
94.9944251489406
94.8967867916526
94.9355938227701
94.9582567024292
94.9405944597826
94.7948770814378
94.6605805883886
94.651397239412
94.6892676625316
94.6662975219453
94.7404749977126
94.7584823786352
94.7679582883787
94.8823425974515
95.1026779919697
95.0349714210031
94.8915861748606
94.8782207719995
94.9020297173917
94.9715015232643
95.0224995469859
94.9501970798284
94.9043726720454
94.8744755601508
94.9539590284576
95.0241804708919
95.0466514375512
95.0718559849917
95.1232772922002
95.2126070120271
95.2697257074636
95.2708580071991
95.174814467764
94.9491064622395
94.8085494935317
94.8082438644397
94.8090655174372
94.8384375623495
95.0186732046522
95.0012509454529
94.8489890695819
94.8319715171489
94.9315703254997
94.9016259501028
94.9271978357156
95.0445073410057
95.0599145547749
94.9985988584167
95.0526115468737
95.0182182573257
95.0705435748543
95.2524157778329
95.3460735479901
95.1700216674141
95.0738439636723
95.0147963497752
94.9771766595109
94.962056866705
95.0387686337311
94.9369600137672
95.0098264355174
95.1666760360865
95.2980068547434
95.3945826260261
95.3534453001825
95.2222204757944
95.1473238092728
95.1188952076772
95.1522775330088
95.0546232824547
95.1299119544957
95.3306885823438
95.4325955598929
95.09126722725
94.7754356841324
94.6606719820575
94.6478183972966
94.7583296764232
94.8368013716887
94.8742416528677
94.937503559797
94.9230216481628
95.0169488350184
94.9827268049461
94.9861185597409
94.9999013157849
94.7608363275743
94.3300415867487
94.1167902460511
94.0306302584654
94.0785021499412
94.1629904942383
94.2312044122489
94.3093571261039
94.3222499093955
94.2337859450919
94.030935464655
93.9065691543679
93.9980583943158
93.8953916225156
93.7329415436832
93.5236684260117
93.5230336720861
93.4995780376532
93.4580343245123
93.4400816717872
93.3952817613513
93.2080626752084
93.1877147012849
93.100871017653
92.935408117473
92.8161112995153
92.7270921369083
92.7412989826417
92.8354318450793
92.7729747406109
92.6496425033157
92.4665393754468
92.4164470134212
92.3688488371437
92.2826922239391
92.0812146553545
91.9807195672654
91.9254075986788
91.9678027401655
91.9752629107689
91.9458637898683
91.8395132037077
91.6616799854834
91.5755842075168
91.6270969757662
91.4480051165707
91.1884461819116
91.0193991481351
91.0747232289709
91.0828729238746
90.9522925344115
90.9093771909861
90.8488038798194
90.7306787061525
90.67878666959
90.6261395223101
90.4516099040144
90.1567630064629
90.2503431827539
90.4045988472059
90.4090513465957
90.2997248842011
90.1581203943441
89.940302800054
89.7919563086725
89.7543165176478
89.8243100683354
89.6973505584679
89.5475723080293
89.4131103851211
89.4506353644327
89.3498163250006
89.1269531528083
89.0753970219419
89.0193603185419
88.8740964188141
88.8120048407933
88.5668332581953
88.5718767083166
88.6228049547165
88.5039976570417
88.4235640810403
88.4916520956836
88.3497625597582
88.2914627517757
88.2611850645934
88.1342289990686
88.0577139463105
88.0652541194462
87.8360257678255
87.6767067250765
87.5924454729017
87.5991963349689
87.5313355237298
87.4674368328641
87.3687023906267
87.3169446115983
87.1832691545925
87.1485521017543
87.0079521606206
86.9879161468161
86.9283109144088
86.8423623180094
86.7831331909236
86.6866413938398
86.5796367630634
86.5521843485675
86.4551066326553
86.4154247024149
86.3366964100911
86.2823285314042
86.1637921680539
86.0586027303165
86.0444484499198
86.0012433644423
85.8648737309172
85.7847057258789
85.7576352263171
85.6932120741247
85.5810854238539
85.5532069666053
85.4038517539888
85.3428605350704
85.4014730338913
85.3353886961643
85.1333590468962
85.1076013561233
85.0614819018077
84.9356713601103
84.8422778184974
84.8406704074075
84.7735855004444
84.7001059242966
84.5901629182904
84.6037825073525
84.6654900379544
84.5685445180375
84.38455250537
84.289749806214
84.1646216216548
84.1633034240929
84.1739078700735
84.1649045822842
84.1144427331713
84.0562885202707
83.9384069256652
83.9283621446253
83.8030285432721
83.7647141881409
83.7561241837957
83.6525721264654
83.576136268465
83.5785945242213
83.5106505844139
83.443541149188
83.3907043928535
83.4002636793597
83.370370773646
83.4175419794
83.3888035555835
83.2878350356268
83.2393760864679
83.2053703564912
83.1701531050309
83.1507127888319
83.092462198314
83.0954627189607
83.0300588694699
83.0061600686367
83.0123433608697
83.0540934093789
82.9874351620267
83.0028162712132
82.9422337548593
82.8933647069362
82.791310386874
82.7413165325046
82.7284168106265
82.7514137123226
82.7659431373836
82.7453161399222
82.6467759018654
82.701047877984
82.6687083165775
82.6515639749066
82.6233499345641
82.6362596267139
82.54588623307
82.4428545876654
82.421037857881
82.4864831288847
82.5094653159719
82.5096956362754
82.4638704233832
82.41432468294
82.3067113944144
82.3088941695013
82.3652958439365
82.4024779079907
82.3485263797508
82.3342801128037
82.3301980655396
82.4193354968548
82.4679462556702
82.4248683354504
82.2789282617989
82.2699364208402
82.2574156099515
82.2099021750466
82.2460955239452
82.3318639070426
82.3748605080296
82.4005011101239
82.3350710000846
82.3287227731155
82.3892737118157
82.4223873676129
82.3481909098602
82.2449458178137
82.2392072729904
82.4075746642757
82.4523190415108
82.4677471029888
82.4509093830649
82.4670883734672
82.4313833937758
82.4165995087297
82.4523772639398
82.5368419659488
82.4845618135306
82.4582322727821
82.4787572099216
82.5086832394399
82.4784468332235
82.5548234674606
82.6250768144131
82.6762244137942
82.6537359825441
82.6824305688696
82.7039015901055
82.5698530512453
82.561051943224
82.7687592829258
82.8607113079005
82.8931987594365
82.824023690358
82.8507424191778
82.8021575747159
82.8032514583186
82.8918162037602
83.0547900461471
83.1248817244805
83.1163329468837
83.080807726434
83.1281400091322
83.1889848139501
83.2755426057703
83.2383132117781
83.2552934129375
83.3411320772569
83.3750724052486
83.3886839379888
83.4585000370651
83.537945035733
83.6037817031178
83.6069202089476
83.6437288882895
83.7065917798597
83.8224466219648
83.831451482461
83.8292656680272
83.818301535433
83.9847041975907
84.106751724066
84.0994905954874
84.0688466693686
84.1056805530446
84.1643314175794
84.3036577892397
84.3296355591831
84.2740353873771
84.2760104914285
84.3664405604555
84.3949937923176
84.5155588867257
84.6287598577984
84.7488074887222
84.7222699024876
84.6648037561244
84.7333527234233
84.8011247013049
84.8326163873505
84.8881939021732
84.8798675474422
84.9167252765184
85.0031834651235
85.0376818888272
84.9775979701495
84.9996820596486
85.039012331844
85.1252261837864
85.1453816094159
85.1197303585922
85.163401514632
85.3208840095594
85.3955850427426
85.4309351897144
85.4281016914346
85.4232816956264
85.4300463884808
85.4824208509205
85.5387151378917
85.6197453404196
85.6255873261841
85.6052209003534
85.6486237550436
85.7221073471383
85.7173883833107
85.7713231148837
85.8121371267557
85.8321452886926
85.8275982696394
85.9190843392879
85.9598892764151
86.0805534960225
86.1209191073871
86.1701900111836
86.2082051331227
86.3048749299859
86.3246246117593
86.3467795709505
86.4293203318867
86.5009480931463
86.4943128674733
86.5240462997725
86.5230850190965
86.568258492247
86.6630819822097
86.7946183684345
86.8303585632515
86.8312882782649
86.7912562989805
86.8018334757637
86.9109689216161
86.972066135994
86.9623120491711
86.9281395987573
86.9825948853179
87.0986277117467
87.0458406388278
87.0156675708482
87.0618489948255
87.1334774363742
87.186397465389
87.1662090359706
87.0776021621916
87.0711078316484
87.0576517349412
87.0479980763166
87.058323361955
87.0331854268596
86.9974400697014
87.0110057224262
87.0073774498653
87.0355395537044
86.9780268760262
86.8721559595189
86.8382703676147
86.8819884136855
86.8926587003131
86.8963455476412
86.8318292961357
86.7178466166886
86.6605139040808
86.7871259581131
86.858291299815
86.8600790286841
86.7860550271094
86.7577889349528
86.7581844986753
86.7126824554795
86.6124895721601
86.5699658443932
86.5171107318014
86.472698060307
86.440419424711
86.4160781598198
86.4054146623331
86.4792823194282
86.493401463372
86.5120147696633
86.5344841609119
86.5699343825436
86.5759072291692
86.6033107641599
86.6694494962583
86.7418280309861
86.7881719229552
86.9016747458578
86.9729848132852
86.999697838708
87.0743190082992
87.1174865546299
87.0926242015095
87.1908711122421
87.2972172225667
87.3341777662479
87.356132955791
87.4062124011302
87.4328927677372
87.4840265885525
87.5667590180244
87.5938813145654
87.564339162815
87.5344662152671
87.5546053858996
87.6073963974023
87.6458009896815
87.7026292435787
87.7101156470587
87.7306879014713
87.7742467715164
87.8627721609847
87.8736240181728
87.8872849064418
87.9371471758319
87.9782961409464
87.9447022306981
87.9668526277446
88.0216172330547
88.052463843448
88.0342773272029
88.1464627850748
88.2591078141421
88.2798650372864
88.3604130583116
88.4763489479344
88.4969061760295
88.5997081433046
88.6317864755147
88.6087683961102
88.6993361821068
88.7866816638275
88.827460445652
88.8879213993059
88.8571088407834
88.8494078435869
88.8977336251377
88.9802023121364
89.1054201876811
89.1377325050071
89.111571181473
89.1404417243642
89.1647750672746
89.1386966656581
89.205695249894
89.3047608153039
89.3132165672507
89.3181854062143
89.3566125594321
89.4361587051478
89.4770698547446
89.4906071131212
89.5338074697151
89.5890964585734
89.5903951648592
89.5708867734795
89.5988460371159
89.6550190582946
89.6567969846627
89.7284264744252
89.7572077129259
89.7716778405965
89.7887985466058
89.7850318819051
89.7771218859333
89.7817282608822
89.8155627449045
89.8784198777453
89.9164330459551
89.9505949455515
89.9052465061698
89.8643467043389
89.9240697024227
90.0520328122479
90.0908667580426
90.1006541063835
90.0741256308101
90.0787303447896
90.1049233190353
90.1159588857636
90.120373751259
90.1297136799405
90.1395045847924
90.1465115492017
90.165428579883
90.2005284035307
90.2247838478186
90.3066505092634
90.351658225516
90.3145733604501
90.34491973745
90.3787727069876
90.3312881384202
90.343698529389
90.4028119686764
90.4668732527759
90.4919601706504
90.526293008193
90.5261482533972
90.4963117991501
90.5004168689316
90.5413010966371
90.5563934979898
90.5424992661754
90.5866518702594
90.6383348301209
90.6307453010593
90.6164184394181
90.6151425712965
90.62512444714
90.6966621914757
90.7432953090784
90.7431599121866
90.7665371448132
90.8047098935485
90.8286438660242
90.8027791377897
90.7980372839901
90.8032458224965
90.812587611981
90.8209469212954
90.8351754135373
90.870133832603
90.9240818912086
90.9078510986515
90.9193078716719
90.9521793212698
91.0008907936336
91.007879802228
90.9544461860134
90.9761478275959
91.0062512975564
90.9675033262162
91.0435342761032
91.1033099557594
91.1442024191414
91.2003922399072
91.2100742416434
91.2687707268183
91.3401629520197
91.3531060893487
91.3663510880129
91.3476058099756
91.3610911213213
91.4003975812052
91.4400303404759
91.4572359827779
91.448232248889
91.4723205191949
91.5608074290552
91.5864656437877
91.6406954839505
91.669958973221
91.6480737687255
91.60623052593
91.6462574334825
91.7143301930985
91.7131385012774
91.677050474821
91.7576153573989
91.8271281965328
91.8593320709394
91.888500074952
91.9250545957901
91.9915391335151
91.9360355523687
91.9356439457848
91.9844448311348
92.017881048207
92.0723509442077
92.0526546809819
92.0753071902435
92.1406775051794
92.129184425607
92.0443329387123
92.0095944392217
92.0608034455522
92.1333234485854
92.1326816653895
92.1388339656637
92.2094056135954
92.2770240971984
92.2621528690534
92.3380346199226
92.3128350089386
92.2362710296218
92.3062007908186
92.2826365983771
92.2255280694147
92.3023111312381
92.3860232071457
92.3907334740685
92.4106737614439
92.3944911855098
92.3500956035273
92.3517316873583
92.4397975130733
92.4624942577317
92.4210040813616
92.4230031044526
92.4710071855748
92.4517499299436
92.3847107917321
92.4202252485767
92.4369338260777
92.4798809469343
92.5886902875253
92.5527723667221
92.4575257019451
92.4272908218537
92.5031248782075
92.4779818192325
92.5028142113762
92.7119554359057
92.7177789330089
92.6355752692394
92.6114177914315
92.5537439607967
92.5287043497384
92.5514613042406
92.6300729942248
92.6204904981691
92.6112834786088
92.6167985939469
92.6028360648876
92.6137191873748
92.6333522470031
92.715475315543
92.7597246398048
92.680765821425
92.6307408980893
92.6416743456205
92.6433440555629
92.6658417885665
92.7443707755202
92.8164162502944
92.7405146408266
92.6596169658747
92.7376142708804
92.8122388111096
92.7703545144465
92.7652671753912
92.7502168577311
92.7361572893652
92.7953157601671
92.8308421692775
92.8464063815149
92.8502567958488
92.7975526160059
92.7292701277214
92.7631093200312
92.8049424687953
92.8571520674383
92.8250987182828
92.7813870857386
92.7523368439916
92.8129143949011
92.8812907903739
92.8233515720948
92.7417873374022
92.7710493854196
92.8267351854533
92.7843046319724
92.7353843700916
92.7445047865715
92.8060588287598
92.8287351199706
92.7838319388631
92.7537133499986
92.7401465326941
92.7440046943414
92.7970820263052
92.8130977812948
92.8550985984514
92.8975468698028
92.8614985545834
92.8308312694741
92.8361688458221
92.8653023228946
92.8144253120657
92.7241785850002
92.7360842034583
92.8209009725839
92.7792399630297
92.71865206267
92.6618484675606
92.7518731653107
92.8535207472756
92.8002828334767
92.7783583141771
92.8062595514886
92.753528538734
92.730929031124
92.7511133838252
92.7776105757191
92.7365810517874
92.7143453795661
92.7893052025883
92.7674609629021
92.7188579886342
92.6429431167949
92.5979198859456
92.6834430056723
92.7450479169467
92.7004199647549
92.66898886749
92.762978113764
92.8071001848226
92.8095744293621
92.8476554970601
92.8505965102595
92.8964510022393
92.9552010261008
93.0029904221294
93.0080988483052
93.0066328406764
93.0322401409107
93.0464414434312
93.103448123442
93.1402238769843
93.1076508959517
93.1026600953737
93.1423387929344
93.2876402687627
93.4068831800075
93.4096223078681
93.5549641649802
93.6215982225325
93.5353332204507
93.6183049040722
93.8003042530493
93.8214511729465
93.8206952371366
93.94173821154
93.9499876373682
93.9335013223457
93.9289868001567
94.0505055705252
94.1284846561014
94.224466602392
94.3783704423293
94.390703996302
94.2642447085689
94.1961592874964
94.3384494970179
94.4060939725463
94.3789630209303
94.4143732017218
94.4701679164058
94.5958576726482
94.767592053695
94.7384108193859
94.5953094478985
94.6668618901733
94.9037953956381
95.0762806201168
95.0732777255867
95.094310976711
95.1529206489482
95.1759081944596
95.2270307918116
95.258636973077
95.2813172152323
95.3139078317829
95.1463669692863
95.281113696851
95.6751601532411
95.5271545442164
95.5323626743709
95.9049505126006
96.093470054713
95.7263424602871
95.5131154615132
95.973638109444
96.3855017623808
96.2582698914289
96.2189883291425
96.278115953853
96.303759917425
96.3160600879372
96.2994795655515
96.3315654643447
96.2361926208652
96.1152394089354
96.7964658485926
97.1942971931405
97.1766332658224
97.2403081729431
97.7253070957789
97.9399242815062
97.790656491665
97.1790190197717
96.6803917244794
96.5419643432341
96.5907284072422
96.5116310743722
96.4715250069846
96.3386397180898
96.3087738612823
95.9110619788282
95.5414283627265
95.4750184854887
95.5857018648747
95.6621305516455
95.2370339243524
94.8719808659419
94.8665107776423
94.7620269799791
94.577477306415
94.5706826024834
94.6767965973379
94.8049622842126
94.8655383225584
94.8058063664523
94.6819135777844
94.715550376904
94.8888690883841
94.8735929605056
94.7098588770972
94.6552110514222
94.6987512095103
94.7343820644101
94.8025813127592
94.8578136523474
94.8720915566528
94.7578122271734
94.8347776172895
94.8877041506941
94.9118268002613
94.8855105079787
94.9141663544636
94.9838337278383
95.0752444835506
95.1969669199542
95.3041056396203
95.3009853498259
95.3580879135552
95.3945685914833
95.5024011510757
95.6140453391528
95.6311016124664
95.5006919622303
95.4522962302538
95.573309126013
95.7310212168149
95.985325890275
96.0994343119408
96.1779667150951
96.4894254084613
96.7171917658167
96.9530535960156
97.0476807386567
97.1896119439861
96.9857020314871
97.1584902778195
97.5186825321978
97.4053745353394
97.3340848056163
97.4979552043325
97.5957561590299
97.6927323535556
97.3876251447681
97.3903053258737
97.7480883411551
97.9100004952688
97.4305890853863
97.314483326026
97.6041724880006
97.6112246842177
97.39236409374
97.2941249482712
97.3799926686351
97.3934423041127
96.7574026586989
96.3887484552839
96.5516873896971
97.1797618777166
97.0293673463626
96.5751956176498
96.5646864310511
96.7912418843171
96.800475341003
96.8750359634189
97.0253533858441
97.2532300994805
97.5104996323224
97.6579730813972
97.5396313840751
97.3231348911198
97.0676423228606
97.2374867290934
97.358112087481
97.1713843594701
96.820292374011
96.9895590500667
96.9631430110036
96.7519895092826
96.5612827134312
96.5447025369375
96.4414788383569
96.4085866676028
96.2671676958452
96.0007459664688
95.841110293857
95.8536971608301
95.8114638577767
95.8101005122015
95.7134620786668
95.7543641169675
95.648057452506
95.3643632561247
95.3636211604262
95.5112742023723
95.4840436963812
95.5665523344824
95.6413550300482
95.4951126943057
95.2774645004892
95.23865801798
95.2260528137959
95.2407053684956
95.2740743962321
95.2269298187881
95.1314253172723
95.0517503032501
95.0673477391997
95.2353318602315
95.2762828879708
95.1524423770109
95.0587949223816
95.0708860818783
95.0923333019421
95.0751820538516
94.9485524792962
95.0199071277927
95.0591196842397
94.9858241495123
94.9395058892504
94.9858224114877
95.0103298885529
94.9764492216214
94.9040231307006
95.021002473459
95.0706913104937
94.9815877129136
94.9837560070745
94.9498362324526
94.8666065688451
94.8924355263553
94.898241113914
94.9436543127728
94.9379094281855
94.9596622045118
94.9465919485593
95.0013714781785
95.0083043407152
94.9840620142277
95.0170088960694
95.0252386707557
94.9617572877697
94.938878438203
94.9577576359215
95.0320550986813
95.0150345651988
95.0266145476762
95.0590651451125
94.9789139371252
94.9698042408847
94.982972750473
94.9445421248924
94.9431525658799
94.9057494508465
94.9636914295083
95.0139896204142
95.0383420947845
95.0110152033588
94.9612303071841
94.9561647029556
94.9778426566066
94.9254981896963
94.9243615519631
94.9523948160151
95.0066339638768
95.0466830556002
94.9950933217926
94.9227902200819
94.8976634683649
94.8719530179317
94.8700414748057
94.7843426370593
94.6970185441827
94.6837102610982
94.6460034407155
94.6697532947131
94.7112546379802
94.6397761624578
94.5267033830424
94.4417295143172
94.4134666740056
94.2859567636176
94.2186607388264
94.192913958624
94.1297228619154
94.0191527063097
94.0387023173966
93.97145855683
93.9094711376078
93.8309727745961
93.707110091394
93.5231356479338
93.4154240178361
93.3348545827354
93.1859326715864
93.0500473770827
93.0016604444017
92.9453481855011
92.826175598692
92.5759892858224
92.4564128489244
92.3445899893521
92.1929058334808
92.0230044068315
92.0118511557117
91.9824606988448
91.885597207239
91.6792668982459
91.4746033343743
91.3381366683385
91.270354641469
91.1177233659957
90.9507351771622
90.8068547226175
90.7544863838722
90.6185126449988
90.430909333157
90.1312086278375
89.818104059105
89.5069197591498
89.1418975396708
88.8200813110889
88.6116788987959
88.3181296203176
87.9729169894327
87.6100805209085
87.2366824897504
86.9322101156066
86.5797697588877
86.1253156382775
85.7164602095257
85.3570691455826
84.9540363228097
84.5143224922441
84.1045995442196
83.7074345268382
83.3062690389371
82.8358848614798
82.4685538158711
82.1904158872817
81.8342422061261
81.3472617378337
80.8717580259017
80.7125391253681
80.5866059972633
80.110322436918
79.672251901858
79.5224702166693
79.4158548829082
79.1449904342178
78.8132250143412
78.4491655275647
78.2718586363189
78.3966722302151
78.3092969194747
78.0562664499381
77.8460856345417
77.7733888472406
77.6918888493941
77.7185009888817
77.726682005009
77.465170875686
77.2120556874169
77.284385556743
77.2956845716906
77.136190033266
76.9795243243624
76.8275823832237
76.7198095044729
76.6149051053251
76.4918262759447
76.3478008468045
76.2355459446704
76.0601445881279
75.9307428007078
75.8593052963368
75.8042709763055
75.741227019629
75.7102859547846
75.6439684600837
75.622341947995
75.6028951814784
75.5901426502268
75.4247488556424
75.4067881931745
75.7270329379259
75.7065895332624
75.4288095098272
75.4782139530865
75.6533020325056
75.6571453705197
75.5646194069923
75.185266262385
74.7179400508651
75.4947878034621
75.8594990455948
75.7318529718394
75.626192279329
75.5998936193527
75.7575081327791
75.7442450484123
75.6108776941802
75.553416465437
75.6078873581228
76.4115727586667
77.0492517145703
76.8858174865108
76.8104765126979
77.3272685737062
77.6331709543702
77.7272335697811
77.9293744656852
78.2067281056337
78.2061221909592
78.6327651983987
79.0314820822452
79.1339712459083
79.4849250102468
79.7017189204672
79.7489966502178
79.5572547284266
79.3301326730828
80.3525531710297
81.1695490166724
81.1817666961826
81.0677090737043
81.1653059111133
81.6248212852306
82.1872998133126
82.3076228132622
82.2381713619778
82.6033208307039
83.1369302067042
83.4922358223094
83.6143117984525
83.7188671662169
83.9188800604811
83.9449733198998
83.8201618696218
83.6868763801866
83.6793457717219
83.7078922131929
83.4053780678394
82.9481397929327
82.688152632042
82.6693947299884
82.364806910166
81.8735515303738
81.5914827662646
81.844769882533
81.7553984941069
81.4516604474014
81.1560192486593
81.0289087171115
81.0450385761152
81.0171744078202
80.919347751665
80.8187618638358
80.5910211701855
80.443709948535
80.554228601068
80.3804841954883
80.0598080456743
79.8256147951155
79.608404053584
79.2995458613775
78.996523908266
78.6726348924444
78.2745101219249
78.1759215588556
78.1294252549254
77.9102327017014
77.650789225647
77.4819786941297
77.3989290803597
77.2791951514568
77.2046080657341
77.2361318485364
77.1649664094938
77.0658566539822
77.1322496853206
77.1576258021235
77.3009344488413
77.4087764387379
77.312993545268
77.1819819862799
77.3201118048973
77.4854137455753
77.4979760289036
77.4964806593492
77.5093963248352
77.5119168164453
77.4942822228115
77.6719532645599
77.8607085245464
77.8950522087988
77.9949578419657
78.1310592805848
78.1778182307556
78.3672420331938
78.673200794572
78.8440295890578
78.9261736106561
79.0425525487894
79.2070828667826
79.3414469949333
79.4612905084168
79.6015348208586
79.7339448257237
79.8390239958693
79.8594026101536
79.9190057193013
80.1228045555851
80.2964405096071
80.3857547781909
80.4284017770967
80.4944540145867
80.5906959660312
80.6721152462124
80.7313812878402
80.7896626692908
80.7949589683751
80.8221076823036
80.9273187477688
81.0148600444191
81.050914582569
81.1229417197086
81.2138863809605
81.2865253973286
81.3351681828533
81.3966644334527
81.4966846353827
81.573397216858
81.6204135181101
81.6762767932474
81.768665620004
81.847650630568
81.9003107253317
81.924828452878
81.9608331589947
82.0013750242066
82.0216562085925
82.015154322349
81.9977123086989
81.981975567326
81.9658259719025
81.9052953459836
81.8177550381946
81.733303611138
81.6523590514666
81.5815314694576
81.5055482308012
81.4114353153051
81.3018846453176
81.2128222166142
81.1459162548222
81.0901987435366
81.0322829742175
80.9547785895901
80.8532676746154
80.7689920975884
80.6962269452645
80.6389840674841
80.5955169520576
80.5385233524161
80.4911610310376
80.4609605977153
80.4500632321904
80.4448840474016
80.4401221209414
80.4604737741489
80.5137924426207
80.5492495998127
80.5872468842408
80.6570281412994
80.7300084778724
80.7932792576239
80.8643986392498
80.9733949649321
81.086466684273
81.1620990790725
81.2592912452893
81.3523176138611
81.4493857030898
81.5605640389575
81.645823683172
81.7346049959848
81.8557027768382
81.9803908858393
82.0930943097889
82.195162350455
82.2791858025101
82.3014408719612
82.3044528304669
82.2966569913667
82.2896477524868
82.2433760945539
82.144864305914
82.0717001017737
82.012297484245
81.9113582965033
81.8127336158715
81.7262144993192
81.6504985817185
81.5697203055622
81.4751898325443
81.3633502674811
81.2414000987805
81.1503237813807
81.0293333402567
80.9004281986349
80.792008641292
80.6842679460455
80.5895830274178
80.4887158007822
80.3790147137626
80.2552748355339
80.1101560798554
79.9389779701953
79.7394395482848
79.5012154242806
79.2161145858718
78.9031587570259
78.6086029939161
78.3299368567279
78.0388983012957
77.8111988654017
77.6250896289325
77.4547674383477
77.2947818337051
77.1791621706822
77.1005545202138
76.9997900968883
76.8890767440893
76.8085309291283
76.7051558959499
76.5762256102025
76.4516314935277
76.3074058260754
76.1290729401765
75.9110334311401
75.6943282585316
75.4574568280062
75.1816376730529
74.892510593554
74.6134415763846
74.3233650389801
73.9991576432793
73.692093271181
73.4022244948883
73.1371855852228
72.8953234648419
72.6518699154062
72.4104819757382
72.1876625326038
72.003439910085
71.8360019696298
71.6678083588952
71.5094274866507
71.3451096853458
71.1892264221706
71.047311172277
70.883927040693
70.700310852593
70.5432294054093
70.3918624433799
70.2273527886038
70.0622363845021
69.9157262793846
69.7844867287776
69.6418774925312
69.5221922148108
69.4338198787058
69.3344294437927
69.2540003210243
69.203716889918
69.2189443202662
69.2511393878167
69.3064871000149
69.3555918384849
69.3982778352377
69.4687203642627
69.605903867227
69.780715092244
69.9689466296092
70.1832092691159
70.4270066470006
70.6877272023152
70.9941546017673
71.3221671926074
71.623552062938
71.9290048094732
72.2264742538589
72.5018821044779
72.7778211747003
73.0446244986943
73.30577879923
73.5662528303198
73.8261747677633
74.0766201411791
74.3016420386671
74.4934609238728
74.6735986231753
74.8579491922394
75.0142126941622
75.1466638307403
75.280706457001
75.4239567236772
75.5786764209499
75.73377375332
75.8981634797588
76.0886221475532
76.2976500122177
76.5101817728743
76.7130331230526
76.9036307779176
77.11999960716
77.3343156892803
77.5342374366821
77.7338735344654
77.9418324284892
78.1238257628416
78.2938816150218
78.4865930376138
78.6854335709407
78.8821130997914
79.0699325387178
79.2458831929557
79.4389566121018
79.5978072494034
79.7493281616322
79.914327195269
80.0602199503262
80.1598506416252
80.2678069080084
80.364864488331
80.4743996307443
80.5744373409082
80.6604870156904
80.7539994362195
80.8784186250413
80.9497876284583
81.039156393553
81.148469376258
81.2440290629377
81.3178750503935
81.3899263377732
81.4658394997807
81.4931526048651
81.5224866172012
81.6348931561319
81.6918769097878
81.6913952087809
81.7088546845539
81.7715552617675
81.8348536847171
81.8686490978047
81.8745322708642
81.8707417355438
81.8555711848395
81.8656638994815
81.8908918258978
81.9189585738184
81.9286854952899
81.9487892475828
81.9482831725797
81.9045480371613
81.8929995363931
81.8755249151219
81.8287735764126
81.8253671299559
81.7869420105513
81.7119592696766
81.6445918921528
81.5939557666122
81.5316604327213
81.4515840244443
81.3272173787217
81.2211548395314
81.1181357457269
81.002583815317
80.9235373487898
80.8710986697742
80.784518842123
80.6952998034279
80.6437174091632
80.588825365796
80.4998959701306
80.3724929659048
80.2352548736044
80.1359053795666
80.0399280297217
79.9431660974736
79.8298034134608
79.7366248377847
79.642307485243
79.5540602017288
79.4621925809211
79.3559943523217
79.302159294357
79.2594494850265
79.1374071048612
79.0111624397286
78.9349311928159
78.8659037563153
78.7450841616308
78.658942877669
78.6249492475652
78.5808245788339
78.4438300904
78.3490400359395
78.3056509739168
78.2405288093252
78.1790113889512
78.124010850471
78.046255389794
77.9946453398446
77.9272056042928
77.8496168596571
77.7654751071332
77.6996364423676
77.5939074048225
77.538994010337
77.4901446696392
77.3854607826993
77.2857090308271
77.2096543224443
77.1088482915139
77.0466205348141
76.9425377073282
76.8376905484712
76.766125248048
76.6282940956642
76.5034916726921
76.4623633169935
76.3786506831344
76.3019499892592
76.2025547502503
76.0762409631322
75.9561809622184
75.8239751839663
75.7118683004337
75.5776644864714
75.3967054926766
75.3166412314051
75.2426111687614
75.1242838886731
75.0127129526888
74.9037605360825
74.7445441409571
74.5613121693669
74.408599373927
74.3335705301839
74.1783840592909
74.0192249952763
73.9050049880751
73.759137072104
73.6300368344122
73.5895625597987
73.4919260967353
73.3382612178153
73.2275279670492
73.1671446498493
73.0848798450477
72.9920831428724
72.8567070728566
72.726656778035
72.5881989153617
72.5031344090901
72.3750384098806
72.2357782126523
71.9874451838071
72.0721073013019
72.0389211937987
71.77340971917
71.6203849575384
71.6293838827542
71.5502259218765
71.4180313453092
71.2993350611252
71.2006247648568
71.0592769214249
