1798
3999.43349933624
650.420452594757
1
128
4
95.4267214154573
95.4221054643049
95.4408418969096
95.3941608661211
95.2972926514935
95.3183559201465
95.3273220933124
95.3512992808738
95.2902795071942
95.3338036728686
95.4221920974475
95.4553081105162
95.342324292104
95.2826453081378
95.2586174751119
95.3041615785798
95.3193288865124
95.39497893809
95.3894634703499
95.3858224696747
95.3926940104205
95.3996557077386
95.3318098501748
95.3468899369748
95.3648856771769
95.3836200305949
95.3467985797651
95.3393752762077
95.2947228565335
95.2995453615291
95.2689439007003
95.3582674207159
95.4375197444564
95.4087243393564
95.3047155702719
95.2681831801393
95.289012307613
95.3837190348381
95.3112814741269
95.2876707126169
95.3371158051732
95.3728185079135
95.3155708168788
95.3076397715666
95.3491663986635
95.4280206197884
95.4216735478303
95.4038723985336
95.3313677270474
95.2534217560187
95.0784962394254
95.0486689704676
95.2094384159978
95.4256533048
95.4514114710252
95.4508809160576
95.3437682556014
95.326003309965
95.3290861327065
95.2921778576713
95.3536345613438
95.3818074936714
95.2124970466524
95.2949828252957
95.4442609769731
95.4877782025093
95.4354359893226
95.3925377449982
95.2656776750526
95.3329545242621
95.3913800284653
95.3682422528425
95.3572125144719
95.4810819846266
95.5096853690545
95.349623026069
95.0859284438542
95.0424888780456
95.2269742495331
95.4930577500187
95.6716548830145
95.6945436372965
95.5159301392671
95.3642013928818
95.223869114793
95.1410273293563
95.1654258535377
95.3968464136775
95.5323761458031
95.5109907355555
95.4303473016267
95.5153915349814
95.6069516025934
95.5756727686962
95.4190163807377
95.4282885214799
95.404626269245
95.4091459787827
95.5456588281105
95.6740485717024
95.718612925989
95.6507378017741
95.4970019143447
95.5643037307458
95.4497168050746
95.3130661404857
95.5001260074931
95.6835565363488
95.6312845283571
95.6528903953058
95.6629439465487
95.757775765947
95.7612333251795
95.6454859504109
95.5046227975696
95.5745564348647
95.6532779119782
95.7162538028084
95.7224005442979
95.6550714740392
95.6253245020152
95.6550816168472
95.5570928892406
95.570584883345
95.6458122984391
95.7652839014878
95.7077226226373
95.5417259074937
95.5403764641405
95.704221756482
95.7045789569647
95.5466442131404
95.3334250587328
95.3867581069675
95.4751354428295
95.4687027023965
95.541244982558
95.7142748631076
95.7192512145309
95.5783919053825
95.2482477161335
95.065252342997
95.1481819910966
95.5240298969052
95.6985401383087
95.73726268058
95.7165037416424
95.6632144188883
95.6328444593554
95.7209124708752
95.7871212861977
95.8047365158396
95.6356656840352
95.5080866564178
95.5007731895037
95.6501169375892
95.7797895627044
95.863206926209
95.7990874331785
95.8002679201876
95.8296356904871
95.9126974039367
95.9237072324448
95.8019888926794
95.6113959018555
95.5992579553894
95.67868513938
95.9456652979391
96.0572033184729
95.9202310538408
95.7493887626383
95.6889788390465
95.5574832943888
95.647511602862
95.7097401383013
95.6821366443677
95.6659670029447
95.8217025028742
95.8848808742787
95.9028364854296
95.9193695549329
95.7771717008361
95.6138674593675
95.7164987465212
95.6298330746925
95.3973705254565
95.2530982941539
95.2220338966439
95.3248088161713
95.5707526903457
95.5630499704101
95.5575701021665
95.5901193354407
95.5678398035536
95.4776907120653
95.3812680400146
95.1880130376603
95.0398575713968
94.9904377918258
95.1585684732637
95.2429173022756
95.1798147289101
95.0412009443377
95.1095911467021
95.138711533299
94.9652487345364
94.7700444303751
94.7588554343561
94.6787762929315
94.6612347394937
94.7721902703648
94.8388099969395
94.7314973530098
94.6691222744215
94.6545923095724
94.6628441371776
94.535625211289
94.5337210296774
94.4992929954704
94.369093933
94.2402526076967
94.3023443733212
94.2414873385564
94.2028734220885
94.1520846559498
94.1246973348559
94.180676564238
94.145224793999
93.9313031542404
93.9305988352848
93.9088501301733
93.7722436497774
93.6292812988011
93.6722051321482
93.6911064138547
93.7517781394316
93.7770228248654
93.7844160478618
93.6518644936494
93.5508075026277
93.4863891244871
93.3541456518417
93.2270568267003
93.2579076742481
93.2206651331347
93.2614409925441
93.2972569747106
93.2249334500726
93.0855289541421
93.0910228693427
92.9530614412635
92.8340114435011
92.7167445459078
92.6697644062418
92.6777635616433
92.737538718099
92.6934547309902
92.6426768497207
92.549894703689
92.5331765712942
92.5055505797997
92.4284862735545
92.3136365181541
92.3509096055635
92.2918474184364
92.1719144125827
92.0603655046191
92.1073359749992
92.0989286834021
92.0078042641009
91.9556525758107
91.9629139284177
91.8562591859878
91.7307291197217
91.6063859361913
91.654937061383
91.6440250325293
91.4884123042901
91.3289865103245
91.4117704530167
91.3700628890862
91.2863050372386
91.2818883608259
91.2706776462998
91.1686998959995
91.120573271569
91.0710647447343
91.066893504105
91.0211908826625
90.9491478836527
90.7646581419582
90.6866569706198
90.7016918360594
90.7657976596792
90.7052395428744
90.5773579749515
90.5071910645913
90.5234675974546
90.4074168527354
90.3333695831228
90.3068503087036
90.3631070622122
90.2877461374552
90.1834107560338
90.0789928185064
90.0459717399633
90.0061536424097
89.9893091312361
89.8721926026775
89.8051643549014
89.8275175052255
89.8835756077856
89.755677002181
89.6647111402695
89.6155667599438
89.5991745732907
89.5404960746058
89.5075540585092
89.4605321900109
89.4782241196717
89.4520871133523
89.3037024992072
89.0692116789995
89.0937780240388
89.1612012144673
89.2085463181066
89.1510320344294
89.0737903732334
88.992436019622
88.9147360201127
88.8548459424835
88.8987200360839
88.8973012197012
88.8198059199525
88.6530113964095
88.6106341454613
88.6481525870097
88.6641167835104
88.6097598542269
88.6811561727386
88.701104748678
88.6442172442089
88.5402702928782
88.4245856500699
88.3017818385767
88.2830922143309
88.3009169759366
88.3499072248887
88.3463681706486
88.3395455564427
88.2429335048344
88.1664439942174
88.0885481201151
88.1112680425784
88.1574460622637
88.195507497192
88.1056892860913
88.0909857796959
88.1175780198636
88.1104348674946
87.9902769812193
87.91727339314
87.9350109342945
88.0221297795624
87.9495617843824
87.9443264798471
87.9056910444077
87.7693557947555
87.7197239611666
87.7766430610469
87.8177053433398
87.8310144756144
87.7468703622296
87.775525886401
87.7515355897843
87.6357810683067
87.5601679340495
87.6088080725033
87.6543498334959
87.730945145396
87.7296890302646
87.669438514083
87.6089480375033
87.5663913956575
87.4284580348627
87.4587537460225
87.5487907711889
87.5631294595737
87.5111888028328
87.5599561430452
87.6139385861143
87.6173059753176
87.5213252663319
87.5339751890418
87.5409949139467
87.5098323426706
87.4735530284147
87.5461645101011
87.5709371630678
87.5842243658742
87.6204866555723
87.6900225872644
87.6720710091811
87.6596656450702
87.6454663707588
87.7176345317719
87.6542757600872
87.5980421166838
87.6664654428868
87.7530855344384
87.7079743606933
87.7259907811367
87.7297097512709
87.7160254449854
87.7898229913123
87.9002634799366
87.8628348991593
87.8349713083499
87.8301523767689
87.8277362176801
87.7968067816701
87.8072400829951
87.755337544132
87.8502842446702
87.892314227868
87.9155507397181
87.9888258595176
87.9856641410574
87.9238879632946
88.0222550581121
88.0546682633867
88.0509504815915
88.0378909545654
88.1270192595043
88.1833278786761
88.1998865545151
88.2511778291427
88.2448372811384
88.1857052991288
88.2673071434515
88.2993467617642
88.3061909477378
88.3587391764654
88.3812605792492
88.3267720049184
88.3713245651733
88.4405355115867
88.5095002205401
88.4960687655131
88.5427376562275
88.5947565731917
88.6483650022396
88.6431430532525
88.6871124654263
88.7851494065292
88.8654709459887
88.8482659454975
88.8461288989965
88.8315064964534
88.9711305622025
89.0948033222042
89.1190820055019
89.0481789470452
89.040014722775
89.0826764921885
89.1609675151579
89.1617576941296
89.1940024202341
89.2478897502736
89.2873725543805
89.2861040037189
89.3862640395303
89.3793967445136
89.3859096158803
89.5034589931135
89.5929093070479
89.5595695108524
89.62668503565
89.6367797330852
89.6097927704918
89.6095720969858
89.6223080523919
89.6273729103784
89.6821791904465
89.6679972831093
89.6891599777129
89.7260723569932
89.749979776783
89.7602317014155
89.8101432371346
89.8221160581517
89.8605575771714
89.8591183340085
89.8753383182107
89.8822145166953
89.9167808078514
89.9255286460035
89.9221622707341
89.9205778972119
89.9641309433776
89.9948420544386
90.0619160547375
90.0615785665741
90.0207690988362
90.0620859117653
90.1555964199782
90.1493161816372
90.1877421275426
90.1984701359853
90.2239228766104
90.2662365254923
90.2862991455719
90.3240105400007
90.424491246367
90.4398028167457
90.4075968678382
90.3977548499368
90.4947879370015
90.5810048682996
90.5696723826841
90.5116760500266
90.5547426634084
90.6133944905845
90.6419441607142
90.6031252339958
90.6248767402269
90.6866519726125
90.764341127115
90.7801208402488
90.8269363976326
90.8505900977192
90.8320560857517
90.7459804160229
90.7485823560176
90.8431283907201
90.9047140759301
90.8740560580232
90.9325820413183
90.9716949507099
90.9805128337813
90.9072984233712
90.8697879127166
90.8885274548414
90.8916818384516
90.8146447221661
90.7353867331093
90.7115131755769
90.7961379927555
90.7821696594219
90.6735079526391
90.5454796382282
90.5451213563073
90.5626734657652
90.4912112170534
90.4185478098596
90.4664400974945
90.4542257395553
90.3641929524354
90.2364280941763
90.2667579252384
90.2780678987931
90.2428732219449
90.2227784644784
90.1343835231624
90.0805131076115
90.1433271413846
90.1006070533796
89.9814528200616
89.9020947057291
89.8978703750858
89.8695183263911
89.84639807096
89.7996038491263
89.7777713225671
89.7343636986431
89.6974127213217
89.7109442844231
89.7479855185243
89.7248272862983
89.7291813101398
89.7910580643572
89.8890497760842
89.8990124250193
89.9681236846555
90.0762659514449
90.1418285017809
90.1511121343951
90.179180524388
90.2578708342525
90.3376195371519
90.3514087713179
90.3802957851595
90.4597897772235
90.549569963896
90.5185438924746
90.5530927413473
90.5619834691217
90.5630754188395
90.6283612503967
90.6739189944646
90.6362770417657
90.6148963714277
90.6260236877225
90.6663952169342
90.700046811081
90.7153522646974
90.7176942257803
90.7675176940713
90.7960409881631
90.8478453914679
90.8530010181253
90.8822816376349
90.9068283021136
90.9317187889218
90.9602459912605
90.9835748399152
90.9534777744902
90.9451139728809
90.9588198226057
91.0364803726966
91.1243300587109
91.2126245380757
91.2847920591229
91.3790470472042
91.4147243713335
91.4510939488204
91.4739107230124
91.5101377001334
91.5633040005657
91.6103551037593
91.6282223599653
91.6964276380936
91.767814936701
91.8052019375347
91.7886447750198
91.8223446253571
91.8332111691216
91.8436406411645
91.8823728826545
91.9097665907043
91.9204654905878
91.9769213315448
92.0077951880833
92.0053876645609
92.0315941857009
92.0793379884338
92.1127828191908
92.1544038202701
92.1749007332345
92.2501280257488
92.2713823993994
92.2180329481738
92.1799686387544
92.2272062310293
92.2474896168618
92.2203565040181
92.2429740972555
92.3432883649465
92.3991168798732
92.390409614182
92.3533398673893
92.3764630154636
92.4151072176465
92.410653115267
92.4393022415482
92.4539118937528
92.4376925293708
92.5081266301544
92.5486285566609
92.5261404075714
92.5080720759533
92.524132120278
92.5766258261397
92.5891649116639
92.5231664334695
92.5018525390066
92.5464735726844
92.5701668268246
92.5459398362525
92.6006347679579
92.6285118967888
92.6505028767328
92.6945611515401
92.7115749499481
92.6992379235951
92.7116048398976
92.691733268574
92.690322727886
92.7414393995217
92.7915186896247
92.8050187928818
92.8122283170881
92.7817190494535
92.7576912422242
92.7666681231992
92.8186795333247
92.8621589140403
92.8709644633505
92.8420743119251
92.863933186215
92.9119576570098
92.9301504182358
92.9288986391136
92.9322916000239
92.9505440309329
92.9471660982547
92.9866443709683
93.0309638203964
92.9965319998705
92.9962314965763
92.9857842638138
92.9771720320339
93.0005008919841
93.0270860951064
93.0385485947428
93.0654866938499
93.0688442013633
93.0958655008476
93.1081324352254
93.1176328679438
93.1117778395082
93.1204576812462
93.1104668942555
93.134229710473
93.1479427541758
93.1622267259049
93.1938170167351
93.2002382375212
93.1877455664277
93.2249450908565
93.2543290081565
93.2673022624711
93.2966101659777
93.375278499665
93.3867308350272
93.3218852824888
93.3225079014482
93.3778218971943
93.4122413177615
93.4418895696804
93.464167417334
93.493283230507
93.4833530625824
93.5112806928475
93.5092933320242
93.5096782060236
93.571295803328
93.6301706304126
93.6067205651273
93.6040378679667
93.6398619049388
93.7151276601895
93.6884998122331
93.6856586484606
93.7375241096287
93.7701769212117
93.8099616741481
93.799854404716
93.7779654807744
93.8889190717367
93.8827511125231
93.8341117547214
93.8858806837971
93.968999778743
94.0194828530168
93.9957240836614
93.9591029226748
93.9797846799843
94.0350917968365
94.0681332851221
93.9940382869027
93.9823318662581
94.0134368784303
94.0290899177535
94.0107953722208
94.0312256418115
94.020762808425
93.9632280894827
94.0384217755706
94.1674726393171
94.133661368128
94.0348391483614
94.0308104383209
94.0930900199007
94.1414547652034
94.2231230429035
94.2155806226908
94.157980075839
94.2350925718641
94.3022594721246
94.2292837512963
94.221061539623
94.2306843859319
94.195238368909
94.1875710674569
94.2402560932191
94.2887599504376
94.3424246009681
94.3297450735429
94.3237878314735
94.3533740248052
94.2868049749583
94.2476846193846
94.3020106809588
94.2972324543207
94.2481672051407
94.23275247598
94.2210901182697
94.2716475359484
94.4021764320104
94.467136511116
94.4338714577258
94.3843560847643
94.3721581869035
94.384243875019
94.4323639808431
94.464788609502
94.4256150236977
94.3939984410777
94.3434671204761
94.3279856187284
94.3582569063018
94.405851308591
94.448264351823
94.4685026370855
94.4628771848764
94.4154743531271
94.3717146078844
94.3769314774569
94.3441481712674
94.3962707875911
94.5090330938119
94.4826016146021
94.4669734076043
94.5569317504676
94.6254546735546
94.5882290245491
94.5298924995758
94.5377356855578
94.593026391031
94.5974488657599
94.5219551959376
94.5162059303501
94.5841623893479
94.6277271091471
94.6416736013183
94.6514971541143
94.6630675303274
94.5519423521747
94.5035185130366
94.5451431598544
94.5599646929271
94.5350703951889
94.5404294408955
94.6134028140821
94.6305138280412
94.6217105874811
94.6371109613292
94.6629788324885
94.672298575521
94.6360593940204
94.6469807433419
94.6517964719031
94.6320195122523
94.6577952584564
94.6457081519411
94.5633097711951
94.5437768577831
94.5939249827175
94.5569303811153
94.5051572469691
94.5313622589905
94.5206575306969
94.5585649259602
94.6874042160683
94.7202605764243
94.7421089704592
94.7981938164859
94.7475830750167
94.7399762609722
94.8308921405447
94.8469604995982
94.8382014148617
94.9302236340044
94.9034637903469
94.7349482399985
94.5511392968691
94.4740639659129
94.5002219345811
94.5055861378854
94.6066798845871
94.7431629696379
94.7115800420853
94.6762488674351
94.7128299319276
94.7508268912347
94.816742469904
94.8304972643326
94.7099655661522
94.5343490408401
94.488530231535
94.544649545487
94.5723259212973
94.5895294708392
94.6662346304993
94.6816334380856
94.6505605123515
94.6945381409117
94.6885585629512
94.5978587415051
94.6067198180408
94.6660271552158
94.7084055247976
94.7273800274544
94.7543083899208
94.7853709109886
94.8250773208718
94.8828817500923
94.9028794462743
94.8848866169865
94.900864692607
95.0002292560064
95.0102823043591
95.1224475308292
95.3327365747273
95.3758155056329
95.3238581215963
95.3272910797059
95.3052331213759
95.3098607356276
95.4746200466464
95.6095885452516
95.6456827427973
95.6781023892767
95.5944597405482
95.5129181268519
95.6588767376536
95.8015603459039
95.8891734512313
95.7935675242096
95.7633729912148
95.8354734921719
95.8294735725509
95.7007828137808
95.8622858168051
96.0989694475491
96.1959052964084
96.2372821254843
96.2306125091678
96.1432374317407
96.2846321367868
96.5450268833125
96.4475413264611
96.4053155825954
96.5345736998567
96.6370814091399
96.5907278012549
96.3409444743251
96.2605715552064
96.2151449799794
96.2448379957857
96.3924802830511
96.7122672779647
96.7780097239639
96.7963882858233
96.8695788764371
97.0725475188094
97.155412495027
97.0260171803412
97.1044498753626
97.0620103458113
97.1521922543625
97.2653386701259
97.0493212424534
97.3874313975756
97.5486033224936
97.4815855924114
97.471965693852
97.5752467563842
97.8752634035044
98.092531544558
98.0578443295358
97.9647838696015
98.0088347586011
97.9420291831211
97.8607704875609
98.6658589830409
99.2134365552606
98.9080377922733
98.8843384185943
98.423773403468
97.605489214797
97.6858682794856
97.9394062202383
97.8516732740649
97.6478850900367
97.4236294591209
97.3532907544227
97.191524433957
97.0323537159711
96.9473608538805
96.7127311150537
96.7213476350396
96.4359672866618
96.1658276107792
96.3411369850701
96.3223667327698
96.0149089728188
95.9351169049243
96.0178737352636
96.1068355403654
96.2086528667493
96.1135540526922
95.9950897115399
96.0120135482687
96.0112642309164
96.2358438659681
96.3630239133835
96.1610576042941
96.0865323080531
96.1893650014256
96.2612814307073
96.3792109700685
96.2565089924498
96.2442752607186
96.3447765873012
96.408446797402
96.400815380374
96.3707650100134
96.3679263376389
96.3830328171995
96.4819205474778
96.5485419400825
96.4787312522709
96.6102432085026
96.6576286950431
96.5707589734262
96.810541221543
96.9341158625218
96.9218034466412
96.9450700171166
96.8821327756667
96.9175015505335
96.9589769237695
97.0114471461922
97.0526326313667
97.3691338609684
97.6720546799925
97.8402261196519
98.29347539224
98.395197028268
98.3031244553969
98.7357749633394
98.733093823893
98.3060331956981
98.2887194497421
98.6579490438162
98.7776099666911
98.6577732384973
98.4939293278884
98.832206186697
99.0723256514124
98.9282432718829
98.9103287373387
99.0165816223734
98.7425633878375
98.2770735903246
97.8224619060067
97.9455930237722
98.5236909536148
98.5685977524025
98.1854052454958
97.8307420268498
97.9869173065196
98.0954282281006
97.9494506219799
98.0573900838064
98.0524403870964
97.7415968508207
97.6810770559985
98.0040990161258
98.2860946779488
98.4335935907716
98.5098007938792
98.6641523091655
98.5568508283876
98.6147325849457
98.7134821950506
98.5838985106379
98.4039198638191
98.3481999128062
98.1931974920875
98.1156927679601
97.8921932386013
97.7488954048547
97.685157212867
97.7005602407628
97.4576744921886
97.1193155332242
97.0691120694227
97.2369436203908
97.3284161312316
97.2497071804851
96.9832770047958
96.9926199703141
97.0984203954914
97.0918676688057
96.8780022770805
96.7702438583812
96.8637483421524
96.7917706779502
96.6467461761661
96.5240800229451
96.5341233637429
96.5730432177426
96.5399064554958
96.4618759984297
96.4279898996886
96.3843036843389
96.3931321984351
96.419297651209
96.3835286840257
96.4536611477503
96.4817905157005
96.4868448167341
96.380446049918
96.2691278646528
96.315158879484
96.3111481452407
96.2669514604172
96.2757190251097
96.2177189954456
96.2157833225847
96.2947251229827
96.2786178838824
96.2751975818995
96.3070276849041
96.2446860192151
96.2074212834333
96.2557541158498
96.2657152536297
96.1462781490114
96.0353312337289
96.0234825272457
96.1144987760506
96.1643531117228
96.148400751509
96.1240472546144
96.1295602853432
96.1046878490314
96.1603008606003
96.205363689492
96.2215591208553
96.1559844834183
96.090402164364
96.0506569288684
95.924017645539
96.0901560861936
96.2432366027947
96.1777986306781
96.117113049083
96.0894457378887
96.0757419023083
96.0204755898043
95.9727684459221
96.0953889464778
96.0421898767308
96.0273189481875
96.0834924209383
96.0973315393786
96.1336217184722
96.1815310829649
96.2046244030224
96.1043850444341
95.9884290769408
96.0390183127998
96.1182207804867
96.0895659822977
95.9831465326293
95.8875406546788
95.9523428493361
96.0788196123342
96.0604143514199
95.9363811091833
95.8293985920254
95.9608297602644
96.0654913464697
96.024563289992
95.9380674946466
95.9204439065281
95.8554960708462
95.9174637252158
95.9181102773161
95.7760039580448
95.618812269359
95.5672972192257
95.7695675751506
95.6804524918081
95.7408094259909
95.7074848550428
95.5291678605692
95.4900064244395
95.5075595996033
95.3661388168758
95.3755136637384
95.1950449934678
94.9369762167191
94.9427988283342
94.954946450987
94.8804222742225
94.7731795077674
94.6559441973166
94.542435627267
94.5013519723041
94.3476069506839
93.8763349591702
94.0722820590716
94.1734476690716
94.0919486521971
94.0316380621352
93.9172158892516
93.7647228350086
93.6110354927285
93.2792757904147
93.0182312294322
93.1472340831514
93.1631439957426
93.1340465428871
92.9889913232852
92.7829183664503
92.5264246131988
92.3078774207437
92.1292462452371
91.5810215626702
91.5540837643892
91.5023387503338
91.2050675726252
91.3106027000652
90.9302428528329
90.5501477126786
90.1287789710425
89.6599463620838
89.191466349115
89.396686178553
89.1468702754628
88.7928035919692
88.286465859676
87.8770101297952
87.7511323049914
87.3214028125643
86.9712712813219
86.8459814132295
86.5633784721352
86.1069915727691
85.8100330983078
85.6310798953169
85.2364915116886
84.7334516280086
83.988985327928
83.9496688393211
84.4960767674017
83.9962374288268
83.4900262573658
83.5849188251027
83.6077123148244
83.3438712215116
83.0019484075027
82.6060470427286
82.384920660356
82.7896074234157
82.8693395708575
82.6553197386684
82.4271504543112
82.3759251722788
82.3126796855493
82.3037390925597
82.4264749493382
82.2013415956283
81.9109015969769
82.1605658732206
82.3405958733131
82.1751698519196
82.0566152032917
81.9280829988614
81.9146658313512
81.8652073396539
81.8263276593351
81.7472876292447
81.6749011174998
81.603728072596
81.592687914874
81.5740500425261
81.5742077089182
81.5737411440182
81.6401621419177
81.6608430777195
81.7047349055926
81.6858971002286
81.6555401075468
81.4478504705628
81.4240229769204
81.9573634882626
81.9980950419386
81.6720071261158
81.7436014644009
81.9650169898008
81.9157322882529
81.8841459910861
81.3688215892042
80.731130904363
81.6177524207091
82.1856031249173
82.1314426560207
82.1884076407836
82.049112081059
82.1608917570158
82.0281297980586
81.8017246189915
81.7182032993792
81.6749514596173
82.3667919950209
83.114546584297
82.9335317234304
82.7727754845846
83.2028401287268
83.2992588084689
83.2604431508267
83.2911685206106
83.4746823562594
83.3874863268528
83.7575876734999
84.0885981991677
84.0671577811704
84.3694735267549
84.4127629441864
84.355464753165
84.1142480887997
83.9038691048194
84.8675925225103
85.7086085405104
85.6768789737994
85.5126572329834
85.4773965859802
85.818229207017
86.3597807717201
86.4296587064869
86.2848342753871
86.5912078592141
87.0339073715823
87.3949232206449
87.5384929198022
87.6149291911181
87.7192289033686
87.6036693942556
87.4295349358725
87.28119002453
87.3228217040345
87.5391068093236
87.2909416059585
86.8882241782287
86.6112937503788
86.5864326894308
86.2270305716419
85.6772233090779
85.3448135807757
85.8403104691252
85.8791917651166
85.6718226861325
85.4326983656427
85.3050991959141
85.3913602412283
85.4134354119131
85.3607961912954
85.2478391740676
84.9338103252626
84.7670395829959
85.1205429646628
85.0715895358189
84.8122155174239
84.6320032298696
84.5339745823941
84.272328206309
84.0005217463333
83.7131026024275
83.2719418991203
83.3202062810205
83.4131639901104
83.2632277588531
83.0573185648977
82.889415586888
82.8191901571918
82.6999622696582
82.6226596914478
82.6876115876454
82.6356392610521
82.4824335209678
82.5552338321416
82.5426411703306
82.7492988285547
82.938661002483
82.8628856078807
82.7415273179687
82.8812083051224
83.0714177963287
83.0850731301226
83.1030803924979
83.0645125729461
83.0618039064447
83.0275435854302
83.1785243992845
83.3818291619018
83.4277312236208
83.5056713143437
83.5844429741654
83.5603377588331
83.6913916686189
83.9670237607638
84.1616336561776
84.240905993214
84.3175859642018
84.4534537455191
84.5502046833988
84.6179908930372
84.745853422319
84.8515416023792
84.8929229151361
84.8701128151098
84.8845767697883
85.0256339181815
85.1583678339615
85.2419747004639
85.2989354309642
85.3444081030052
85.3888502857604
85.4395840554811
85.4665377384882
85.4811442524284
85.4918844644444
85.5061410849748
85.5345813636575
85.563999790916
85.5857813257009
85.6255413013316
85.6806382458531
85.7103937450672
85.7261453816349
85.7643302170915
85.8077239996426
85.847035443857
85.8905821830558
85.9454457576459
85.9997558663034
86.0508294631557
86.0840866601662
86.0876315402747
86.1079713610778
86.14187962508
86.1426926201258
86.1216407025341
86.0962459688134
86.0767425317499
86.0333158059887
85.9604674495232
85.8630621594054
85.7816048577516
85.7309613122209
85.6675663202001
85.5729972660449
85.4855519941638
85.3925779029342
85.3155937223705
85.2530452931366
85.1688942527422
85.0885026899235
85.0204603448071
84.9594968300414
84.9068458400985
84.8523602980762
84.7826311074414
84.7095689562248
84.6744095557507
84.6478962967256
84.6188872946306
84.5937094148002
84.5949698477062
84.6235833382269
84.6428850514962
84.6837051742483
84.7265135824256
84.7793532275603
84.8349150859197
84.8779366551573
84.9425710537139
85.0227510597371
85.1149290520397
85.2140543859693
85.3076153201099
85.3802011559658
85.4771874285132
85.5785634009462
85.6560593733296
85.7526166430558
85.8577666563619
85.972791949737
86.0950643769207
86.1912665868361
86.2768202018635
86.3738639574058
86.4278545356937
86.4551541450837
86.4625633942949
86.4349361056424
86.3775743722357
86.3122756458264
86.2301633443566
86.1483350621268
86.0879597757514
86.0139226949859
85.919639905603
85.8326290933105
85.7698209927018
85.6890760999001
85.5833595794832
85.4834918821341
85.3896106435439
85.2917584574124
85.153105626499
85.0101609456967
84.909424944546
84.8189970807883
84.7252998623244
84.5811291729161
84.4214338844131
84.2983769253498
84.1523926569
83.9483007759752
83.7202929870096
83.4791934706699
83.2281950436262
82.9575575374924
82.6999455564706
82.4826232808771
82.2950618317559
82.1141988354128
81.9611650464769
81.8308685834227
81.6891114055465
81.561733735742
81.4982195454373
81.4200058428714
81.3182269884674
81.2017831080709
81.0701651114414
80.938491445465
80.7814111587326
80.5863935782126
80.3607162725614
80.1344416024234
79.9434130225742
79.7146586806064
79.4591185206061
79.2029292136118
78.9670793339841
78.7288367694442
78.4827965921011
78.2505329587123
78.0059288022236
77.7818646527315
77.5859147504685
77.377748456821
77.1648535463603
76.9756370654802
76.8090198246193
76.6435671600587
76.504113811731
76.3489058535889
76.1898293553517
76.0277857491563
75.8853095453325
75.7292388479065
75.5729092465372
75.455916753938
75.331584169763
75.2020279974219
75.0844383051561
74.949246913992
74.834321903043
74.7515904912062
74.6981097439465
74.6445466172217
74.5910780821697
74.562351830539
74.5700266597431
74.5898424085426
74.6048857063972
74.6559078094415
74.7369224504534
74.8008886515056
74.9086977018309
75.0778656063769
75.2394851185027
75.3832251544973
75.5706322893692
75.7964943058521
76.0438258303959
76.2792677482753
76.5149342033488
76.755732241499
77.0118687356618
77.2544936818316
77.471224249368
77.6729679737418
77.8946003482937
78.1085147559146
78.3202743043808
78.5310681785307
78.7049644991595
78.8953466751747
79.0953484357561
79.2243442338851
79.3534042124156
79.4829778641019
79.6113825692345
79.7517456467015
79.8979492599328
80.0383603224358
80.1873420335962
80.3570551718556
80.5625523913754
80.7543883575887
80.8994307186939
81.0565490700274
81.2315968530218
81.4012396670713
81.5749187570233
81.7703538865048
81.9436964556222
82.1151761461977
82.3006313280681
82.453554687043
82.6173321814536
82.7901117730849
82.9432648514143
83.0957486564717
83.2478777515672
83.3976505209807
83.5494354866661
83.655230648247
83.7514906610235
83.8519543524852
83.9336221753302
84.0306903988799
84.1038922528743
84.1747350804835
84.2419348706147
84.2989220829834
84.3786473692721
84.470285095663
84.5887571084075
84.6889307097239
84.7675540518862
84.8526238489524
84.9196937158987
84.9497067638936
84.9714220509769
85.0405248835499
85.1371154215805
85.184802697837
85.2046475682108
85.2119188445092
85.2691454386127
85.3132606356639
85.3301241683329
85.3321652877211
85.372110411154
85.4133380608573
85.4096742020571
85.4204915488584
85.4141487143031
85.4441565507054
85.4726108448171
85.4645925316366
85.4664862172177
85.4916441214505
85.4803528917614
85.4668051739874
85.4698347373628
85.4545935057572
85.418766138254
85.426874979242
85.4181971663351
85.3238081877206
85.2359693327001
85.2222272993547
85.1983698428269
85.1069824727942
85.0401849784448
84.9927666396773
84.9663724766401
84.9453233174243
84.9311443081407
84.913186790874
84.8984056712995
84.8677900324071
84.8240831284962
84.7744260114937
84.6905756160449
84.6220999245382
84.583038994399
84.5561737703907
84.5200295499328
84.4114515834365
84.3525138783524
84.3039430216373
84.2539805931329
84.2547076264811
84.2470891779174
84.2066276972207
84.1463812003373
84.0893235730373
84.0333091852389
83.9974695408373
84.0147254838578
83.9870675583515
83.9463510992032
83.917370971826
83.8542136884624
83.8120605893947
83.798479186234
83.7877888168555
83.7754860214341
83.7736304409235
83.7950597625479
83.7472723362951
83.6838332808368
83.6472113395358
83.6412524000971
83.6135264127132
83.5267916765607
83.4913271908822
83.5112614642786
83.4553610107861
83.3786918696663
83.3081930907533
83.2614772397264
83.2298578307679
83.1744845205784
83.1132054623942
83.0745892244681
83.0616718589697
83.0026581622019
82.9198805914916
82.9040293418216
82.7998625903171
82.7206900009797
82.7271196792676
82.6691017730129
82.5145369419743
82.3704507403042
82.2969686884508
82.3041995501194
82.2356329813711
82.1190998603312
82.0418830325233
81.9618032784963
81.8924401710188
81.7931548850696
81.6405786746082
81.5261173575502
81.4026311551044
81.2989650097113
81.2000794128519
81.0947610036945
81.0092916795857
80.984492158987
80.9373943801268
80.8883042329275
80.83894912386
80.8196303602977
80.7010620832597
80.5928633252872
80.5151090093725
80.4380145198539
80.3798793037838
80.2859191277161
80.129648264903
79.9899899880134
79.7247238301582
80.0817695212704
80.0622725555647
79.7634351618072
79.6670718967247
79.5687205814976
79.5124205188469
79.4005150905264
79.3103193079173
79.2204880084742
79.1729979938489
