1798
3999.43349933624
650.420452594757
1
128
4
94.2581840996724
94.2652903326441
94.1961272824892
94.1337586919222
94.1732561464697
94.2119775001889
94.186169786835
94.1483589467369
94.0993895666135
94.1203611744156
94.1332711417218
94.2011051654236
94.2654244909458
94.3141312606714
94.2838239113905
94.3771278417627
94.4251055947741
94.3378587146389
94.1886567055405
94.1792795158127
94.23100962808
94.2004130507523
94.1337348330208
94.1439121164228
94.1581217405257
94.1345933511444
94.158847448198
94.2348208286661
94.1756003882753
94.1555539332614
94.2404807898177
94.2886041326057
94.2776468259781
94.3160906074141
94.2360664593337
94.1439742775309
94.1660761354826
94.3441227617135
94.3287290077751
94.2877873773289
94.261550922461
94.2610310200449
94.2830233341682
94.3052285691705
94.3171324161712
94.4092009460559
94.4334204932786
94.2760876364284
94.1554849325625
94.1884450509502
94.1828865535295
94.1271591635302
94.190098630603
94.4764082077703
94.5746128104268
94.5105488477453
94.4265757826599
94.3204617219079
94.2704308369181
94.2735046657619
94.271227041092
94.4287810075541
94.421515956962
94.4265600847704
94.4513079887129
94.3702962447009
94.2597397184383
94.2383920842351
94.1705336604176
94.2419255061327
94.3311456433483
94.4138922807268
94.5113601589097
94.5459900658206
94.4451574636085
94.3062623911419
94.203377479529
94.1908240743089
94.3927993409789
94.5591604979345
94.5285026936373
94.5973043031434
94.6010170099921
94.5183693416763
94.3479509469147
94.2006917675363
94.2342881765009
94.4158832946384
94.5435339975094
94.6924344150392
94.739674825254
94.6147694082217
94.4613089227054
94.3333684923206
94.2688420871907
94.3869424120197
94.4933413900069
94.5341806826873
94.6003353234272
94.7959642764065
94.7647216193822
94.5809786923978
94.5082695148271
94.4547744683731
94.2464190308135
94.2555425216556
94.521406664332
94.7164919575363
94.7427837304151
94.870293055968
94.7924882758329
94.6601379402737
94.6740375573276
94.7098725761172
94.5766697026319
94.4887176057085
94.5093583197783
94.5623553523231
94.680209616212
94.7636705440842
94.6676296138087
94.5273462192706
94.4490364142896
94.4672804342521
94.4303229324677
94.5029098380582
94.6029702506405
94.672716793698
94.7575071849622
94.713134392983
94.5687941702948
94.5160200740355
94.4799607326942
94.6355246489026
94.6000408457116
94.4892780795642
94.6307013792748
94.868525779835
94.789759551874
94.7365210594186
94.6566303667956
94.7010896968516
94.7765541403488
95.0776109688769
95.308132521697
95.2052220140794
94.9804123303915
94.9335907897506
94.8403270082598
94.8681333909679
94.9856498553623
94.945277949959
94.7437769218436
94.6105549133292
94.7060138420153
94.8747748111566
94.9615857334731
95.0758735788161
95.0227040292891
94.9145531252932
94.8353609191664
94.8065627200494
94.7955721117228
94.8099869236128
94.7597870350888
94.7608994626683
94.8008012457645
94.9983845958171
94.9382771250779
94.888577110136
94.8351172928977
94.7773810040306
94.6323594304408
94.586466183123
94.7469437145349
94.922513794734
94.9156283299453
94.9430017832991
94.8532364742051
94.8956612949686
94.9102025387603
94.7711399885228
94.5822608321944
94.5240883365444
94.5323821807168
94.3917882034963
94.2846901361913
94.5018051107467
94.6219703009116
94.5740277197866
94.5526998694809
94.5160513398555
94.3223410285928
94.2717328043676
94.1348906134138
93.9976971620205
93.8880004249859
93.693616383608
93.7091062862043
93.8480103686435
93.7361620483614
93.8103715204009
93.7254878521646
93.6369796236143
93.6287004573812
93.6449779077941
93.5308903294612
93.4576777112866
93.2753342882084
93.172576589383
93.1353832803486
93.203163907306
93.1097383843726
93.0102568000656
92.8808648165515
92.7742041938138
92.6038078621638
92.5701739338063
92.5409560045457
92.4865438836725
92.5099160597457
92.5016930926039
92.3319349918155
92.2374238688879
92.2917387956325
92.2323043538975
91.9970358302365
91.8055646559377
91.6622721631761
91.5618884417888
91.4011945786221
91.5185933928462
91.5990577465968
91.4680151025098
91.3386627017161
91.3814018806231
91.4076489534622
91.3420583581057
91.2268287624862
90.9795422663335
90.9016770347674
90.9834888450307
90.8219067462
90.6904769017393
90.7274314775136
90.6542186030831
90.4085671394688
90.3243637233616
90.3543567048483
90.3071034281383
90.131441361542
90.02179347167
89.9056853817631
89.823555415451
89.8028305657696
89.9398823220089
89.9087941547139
89.8181021309133
89.6268226290663
89.4750383631804
89.4151069818401
89.4443097329868
89.3322828802918
89.2335768432645
89.1652969101194
89.1387618336449
89.0125312008491
88.8780159650077
88.7655788709597
88.691703336132
88.6235539211766
88.6205756371728
88.5477508418667
88.4155565169002
88.2500517018531
88.2389679989801
88.2213409394773
88.091795815908
87.8565886466492
87.8432965428441
87.9581774577537
88.044223721226
87.9012699499877
87.7280006223185
87.5618629819726
87.5055858883614
87.4111142923175
87.3600362510735
87.3072808488381
87.2853313433178
87.1773992117586
87.1116181256132
87.0795389865443
87.0583181916743
86.9411156257378
86.8146950576226
86.7330867300713
86.7692469330582
86.7078259969564
86.6255517634424
86.4573123721341
86.3542895436546
86.3288104490752
86.4296670620599
86.3366320756806
86.1342150855724
85.9870597794735
86.0006971428792
85.9743616293052
85.9113376204509
85.7981140279803
85.7721402054351
85.7478585969334
85.5941168933654
85.515285174946
85.6051979333591
85.5080409184543
85.3998263795927
85.318944316441
85.2006034233208
85.1084771920101
85.1100421698383
85.1142770032058
85.1006461171879
84.9858985891368
84.9386898274117
84.8611222007022
84.8140525697933
84.6978070793613
84.6825812721333
84.7166158284226
84.6567630666555
84.5416915568646
84.5237701854899
84.4198977937526
84.3857460164471
84.3496295223942
84.3252068175999
84.2561117191146
84.1079630601918
84.0448125618435
84.1324538859879
84.1583263186861
84.1366351723249
84.0755818300586
84.0322526153734
83.9003318572355
83.8849125570986
83.7956662324085
83.7389774198833
83.7672102203205
83.8026454446218
83.7517111990481
83.7330733093926
83.7639786386744
83.7766046507757
83.6728843483294
83.4922612681435
83.4196823792418
83.4511000736768
83.4737920232053
83.4519242127169
83.4989287343636
83.5410341056456
83.4754665602546
83.4048693392678
83.3066521726088
83.262733207441
83.1778841102362
83.2318315399768
83.2802175635959
83.2950602673073
83.2825204623138
83.2649877165246
83.2215175198121
83.1968775476035
83.0799656026731
83.0335930570629
83.0679710333733
83.1429949897164
83.1144755118124
83.0756632788753
82.9652994428632
82.93436015923
82.9970782179932
83.0554237923256
82.9304424627276
82.8704330115882
82.9938399066607
83.0336306374626
82.9220412023597
82.9615970568262
82.9151606769367
82.8379870391396
82.8053129578658
82.9063991216985
82.9662973027725
83.0016683766293
82.950570565799
82.9761733481616
83.0254219592972
82.9073118137282
82.8461258917606
82.8748917921773
82.8418849900471
82.9134177821047
82.9279577905352
82.9725617066052
82.9959784281725
82.980418271656
82.9222282542021
82.9460274162456
82.9275369351275
82.9041168839379
82.8856793828373
82.9258132219907
82.9401371760543
83.0207703143438
83.0756401741063
83.0648950617386
83.0303011095834
83.0469062908775
83.037892262808
83.1288888728659
83.1701574755422
83.1956614444602
83.139169082605
83.1027079934264
83.0663266691484
83.1679114052849
83.2891658306974
83.3143564233593
83.2777891209618
83.2627357490808
83.2583660667291
83.3289107247685
83.329461182259
83.390542632837
83.4604299822692
83.4922541298383
83.450642249407
83.5464416639339
83.5706561713903
83.6149968593437
83.6693968774201
83.6726848302349
83.6694644592226
83.7591087478927
83.8440823090797
83.9357731478981
83.9548748899851
83.9476895029963
83.9899153019757
84.0561206558482
84.0564326903418
84.1351981676826
84.2210176699137
84.3189590668915
84.3329959785093
84.2684317584944
84.271592408736
84.4726547359063
84.4889900893136
84.3827120592998
84.4038948652079
84.5448538284887
84.5342960793215
84.6163087952899
84.7867916482308
84.8083699101913
84.7359462758857
84.8475527284698
84.9625830931565
84.9850976270324
84.9478135815587
84.988644743013
84.9862922500201
85.0603907486958
85.1038001882655
85.1488784706089
85.1083066416113
85.1248966098862
85.1744171341316
85.2745522173497
85.2820994980282
85.2863172831259
85.2977254486635
85.3689558158882
85.4180158529092
85.489984293868
85.5437283888083
85.5808556721898
85.5175092227868
85.5721271392878
85.6782368659269
85.7424856851058
85.7196610913242
85.7058986161875
85.6811697104822
85.7167084012272
85.7813152825158
85.8456325358651
85.8497972604571
85.8504563307261
85.8155290088155
85.87603391859
85.9662552554561
86.0191873123908
86.0818679712752
86.1946872986292
86.1640436060769
86.166617437112
86.2814599607337
86.3701217527092
86.3694844006157
86.3687744705785
86.3990813764664
86.4315614973638
86.4910141319137
86.5670569534909
86.5640106696119
86.639449778332
86.7120703438217
86.705646275387
86.6935166448779
86.7483822225583
86.7991491112409
86.9245682197506
86.966901925593
86.9757964765516
87.0636103556905
87.0820359112074
87.04664972394
87.0437983158834
87.0379062701045
87.0707339119602
87.0699442520402
87.1709281555943
87.2042502061681
87.2008130786256
87.2450470449516
87.2335013359462
87.1709387304074
87.1797887743682
87.1588844619853
87.1619264909825
87.1907368357535
87.1760361888672
87.0942613944605
87.0879994822173
87.1105402426831
87.1365581477754
87.1032301864695
87.0402178050139
87.0153460367208
87.0232648627026
87.0050475541504
87.0330883662229
87.0170014324761
87.0221128153212
87.0221980376557
87.0152248850049
86.9746205842121
86.9593615902746
86.9091865881865
86.9025023985895
86.8809701173134
86.8571171804452
86.8435198160583
86.7674820560105
86.6473996921058
86.6368483009445
86.6588772917476
86.6771275933503
86.6895341974484
86.7039875112971
86.6932831215908
86.72114862301
86.7155998281189
86.7604179944407
86.7910736313493
86.8217451304425
86.8503741156049
86.8935174480912
86.9579815862002
87.0605067609908
87.1101440674296
87.1345342914886
87.1398465384116
87.2530814911932
87.3144312200357
87.307661592112
87.3549653351249
87.4363155860049
87.4910365107747
87.5070024211703
87.4775688282526
87.4849941498394
87.5478773909455
87.6235184463383
87.5933260153064
87.5624417238688
87.620447445221
87.7054255092558
87.7188009665568
87.7740187404712
87.7717733418765
87.8028605062643
87.8185849441868
87.8210169194993
87.8899220598525
87.927199923117
87.9659320672196
88.0270388650351
88.0557228133532
88.0542517271318
88.0012071197253
88.0317755684877
88.139824359456
88.1987469034855
88.2227784029826
88.2676198452544
88.3066312444293
88.3979294027353
88.4698536236799
88.5337994229566
88.5585250837702
88.6189235400046
88.6917747275116
88.672993320569
88.6623701737205
88.7708859904761
88.7964543214272
88.8152620215957
88.8744876715621
88.9204081224204
88.99294979148
88.9977402831447
89.0053516216651
89.0265328753791
89.0197788195978
89.043739572625
89.0978862850831
89.1479630935632
89.1773081056724
89.2003906623349
89.140518338795
89.1908045432474
89.3266965576303
89.4198200520746
89.3955662584517
89.3608788953304
89.3889141112907
89.4187370710538
89.3724827450945
89.3546574958597
89.4167323707485
89.5214817859702
89.5388775056086
89.5289149177668
89.5935389329605
89.6140746523424
89.5757572466101
89.6200666268878
89.6610509531462
89.676570378983
89.6665029994138
89.6932876326841
89.6826758266563
89.6665415242685
89.7233538804178
89.8162698122621
89.8644335567052
89.8489933673513
89.8501063388102
89.8727584295137
89.8455349868801
89.8823854358927
89.9606832715992
89.9424361781697
89.9465945366629
90.0093936231252
89.9886760246969
89.9677194819963
90.0111944490899
90.0438490587203
90.0477600389805
90.0791260229296
90.0910096693345
90.1113450681626
90.1022105333457
90.1004466526651
90.156226799137
90.1918109129453
90.2032270089885
90.2244279606816
90.228396179267
90.2367305039742
90.2768172724384
90.3037186445508
90.3229161506238
90.3366508960868
90.287674166399
90.315869098413
90.3633105630834
90.3511643091712
90.3401411500606
90.3672880345664
90.3907896470127
90.4381763909927
90.4949705102996
90.4537896625929
90.4551746976684
90.4912488161018
90.510032175741
90.5366621655268
90.5514346258091
90.5242389723621
90.5143366319936
90.5353652253062
90.5220719116336
90.4982649702365
90.5476806244569
90.5671719950164
90.5409854800495
90.5691914772117
90.6121887378716
90.6171082315431
90.6169140335072
90.6551122455127
90.6774278239745
90.7246256525593
90.6967308702069
90.7287560780629
90.8039342684587
90.7783402777579
90.7602058754028
90.8539446944929
90.8950620491348
90.8830440517858
90.9393053628671
90.988471495997
91.0023157557252
91.0029461648291
91.0061749774873
91.0736685201701
91.1476214594192
91.1937356652599
91.2240301566427
91.2579930854206
91.2530446262952
91.24220481103
91.2651069399234
91.2577530675152
91.2979762545731
91.3579631106512
91.4311742547379
91.4332074506004
91.3585757576286
91.44534719345
91.5133245679946
91.4710812895027
91.5313810457642
91.6433263587513
91.5790128354614
91.4892162455633
91.5140183745754
91.5294527907611
91.6102782075556
91.6834857512037
91.6831268423905
91.7348030392506
91.6805660485352
91.6431963458835
91.715447638859
91.8051147514438
91.8369402400928
91.7897839432874
91.7661615661467
91.7398391843777
91.7257441035129
91.7718812760392
91.8777091069678
91.9676524204717
91.9859167553368
91.9478997036547
91.9659461862022
91.9927947902998
91.967559592326
92.0294888808742
92.0785380722898
92.0829273788709
92.0608706140434
91.963069046699
91.9269710840726
91.989907129365
92.0655894955813
92.0518105097913
92.0526173673182
92.1394004036753
92.1166442019657
92.0664783319841
92.0862150356326
92.1122612128322
92.0395205344528
91.9434629946022
91.9547352006724
92.0046778037614
92.0739381469744
92.0912500339149
92.0834194710619
92.1461384468249
92.1412329031475
92.1908558046959
92.2697971488195
92.2655305108322
92.2401224955142
92.1473477398965
92.1411822034905
92.1721175794746
92.2066397241572
92.1662813223941
92.1980333795018
92.2331058375065
92.1930735935343
92.2471073226562
92.2949175356253
92.2811206854217
92.2628997720386
92.2096242376047
92.2159973805205
92.1438467671907
92.127587275238
92.2794139292139
92.3334575507293
92.274262036638
92.2418693181384
92.3022313574247
92.3489348948401
92.2871373488863
92.2594178039044
92.2516939492406
92.3143688743736
92.3996992095804
92.3773726668469
92.3978205600375
92.4388747388038
92.3840961528563
92.375493527923
92.3758018599602
92.3885623155361
92.3710191921852
92.3652692850723
92.4152831402652
92.42050452857
92.3838400633945
92.3900908786954
92.4118301896709
92.4084704819576
92.4073103730553
92.4791516763016
92.5129745135382
92.3645170906525
92.2805986475317
92.3234872906807
92.3552839482658
92.3793425301177
92.3431669056118
92.2763513692247
92.1765710407087
92.1698956842914
92.2029340954187
92.1898014206608
92.180745594493
92.228517950921
92.3049522977223
92.3911198828393
92.3637449043067
92.4546225633191
92.4897725005559
92.4753461237781
92.5528659851193
92.650581588321
92.7115183910649
92.6600181225336
92.549515823003
92.3541700271973
92.1564068181779
92.1260883701884
92.1821100835596
92.2949290577289
92.3752686516702
92.4045046291952
92.4006652282179
92.3647507108422
92.3751869949238
92.4140963258072
92.3656123590671
92.2470993593637
92.0872878682781
92.0878197057732
92.1704402163848
92.2134761405366
92.3200402086692
92.3909195945633
92.3530726583377
92.2898976581593
92.2713734586811
92.3157584824569
92.37064747309
92.3973957139985
92.4202872742108
92.4471909440498
92.48688622831
92.5282432784858
92.493323252506
92.4142615944841
92.4129800401449
92.538832794083
92.5234256603244
92.5848812840367
92.682605813854
92.6080251849985
92.7048912849953
92.7848429626413
92.8137830149559
92.9871294527033
93.0428852467064
93.0351900388155
93.1129235771923
93.199994382533
93.2586741611856
93.3919353178601
93.5492822985401
93.5586381980841
93.4555839834045
93.4975534344414
93.6414750702607
93.7462003907217
93.6639637065258
93.474495549039
93.5717335009221
93.6066532316876
93.6656315552617
93.7768837896119
93.8292925334323
94.1123032427302
94.121256434852
94.0141210973631
94.015176545543
94.0673483215484
94.005845799823
94.0359793614169
94.1060782133586
94.1263012024563
94.1898181335663
94.3953655632278
94.5113880190644
94.5543832377681
94.5361723798706
94.3942570964861
94.5065279498403
94.5050526933533
94.51723994249
94.6755856745133
94.7492417975356
95.0103677461618
95.080524964534
94.7480973511486
94.692071580783
94.9655691210033
95.3147775418949
95.5550997351256
95.5859018392225
95.196223160096
95.3299402616077
95.9202341633586
95.9058984654154
95.7348485147292
95.7542132223055
95.9984912879583
96.2497481345348
95.9088175033654
95.7053374176958
95.9664977686018
96.0422227467213
96.5702928997405
97.0796695784143
97.3407006018829
97.0716325046081
96.8097526971154
96.5245787395278
96.4336137729575
96.3142800053269
95.8089466594624
95.4922377150289
95.5184043670449
95.5586706605873
95.6324596288527
95.2455431100281
95.0157966391828
95.3468432208808
95.325955418796
94.7803723271017
94.4034811352747
94.1699248747206
94.0932838867044
94.1937229776921
94.249519871522
94.1711186774668
94.1650336215775
94.1428959619601
94.1758332044829
94.1108568769806
94.0644981047309
94.0503699681783
94.119201163338
94.1932382864589
94.2676233434658
94.2031662789789
94.1573589314701
94.1474015061827
94.1495382698952
94.1935340859154
94.3105505674703
94.4490108009821
94.471085738031
94.2713808435395
94.2305984230461
94.2200907679277
94.1981464024054
94.3453980730439
94.5066437803352
94.5685207530947
94.5965574084862
94.5684899502669
94.7164552788004
94.8530412097198
94.9789384155451
94.9332146033708
94.9633239673589
95.0202387204893
95.1840179098098
95.1514007953867
95.3014409189653
95.3559137425006
95.3637486265173
95.3463209277957
95.8547858705335
96.472764846448
96.5913420634414
96.2816574886413
96.2657795643502
96.2706740468467
96.2933819968889
96.5172336921217
97.1228597218305
97.5822056877109
97.5391507379485
97.0978829613603
96.9119077534928
96.6476015454917
96.8946315617229
96.9732136368447
96.7369086212576
96.8430240387888
96.954365236557
96.9023819478308
96.7410319840149
96.5613333457977
96.4778600759304
96.2012272037564
96.1062516701923
96.1956593637776
96.2061814563301
96.0228948767982
95.9926475787043
95.9735767574907
96.1283060974773
96.1813688945176
96.3033581948251
95.9934521386832
96.0967794865987
96.3792715892784
96.613360517998
96.6156186650133
97.0129588188649
97.3572939631972
97.0160272956196
96.4760152075767
96.5570279228716
96.5468379344616
96.359509575783
96.1371528544984
96.1843202490607
96.2682380800772
96.2705379282189
96.1486765889709
96.0107573830357
95.9428909760867
95.8137272469699
95.4025290660645
95.2432444841015
95.387072665586
95.5678778077021
95.4474496237455
95.2656237097389
95.1567989479362
95.156709055137
95.2424058986501
95.2168340879744
95.1373236919247
94.9831330309646
94.8624074365437
94.8690653141843
94.7106996352256
94.7664089056582
94.8324626829991
94.8332817976836
94.8363387504443
94.7297187788066
94.6473782334527
94.6459152554393
94.6848561852502
94.8299682516762
94.7284615839784
94.583131832855
94.6306342639917
94.6333469630092
94.5932920020393
94.6823287708059
94.6178620533066
94.5407588922589
94.5912197607635
94.7195885278644
94.6842942967471
94.6146791119919
94.6167466863689
94.5977908077695
94.5517294757152
94.5625343372179
94.5879340667463
94.5732846531003
94.5489695485987
94.6257956161392
94.6852971246987
94.6756295661599
94.6040874270323
94.6073068711831
94.615713145436
94.6466339252487
94.6107468378037
94.5817325470054
94.5210728628157
94.5097663095578
94.4664325805577
94.4345769042599
94.5862561812367
94.7340613342046
94.6936009328228
94.6373048796952
94.6125782550302
94.6358141624154
94.5794740180856
94.6023547318079
94.725888921453
94.714792631354
94.6943117096335
94.7336975737078
94.6908167854481
94.6922603755821
94.7389234524121
94.7421194060401
94.6726897823858
94.6964128240053
94.6977527016863
94.693854541633
94.6432704158204
94.5842302143704
94.5305682543607
94.5538103403801
94.5892149334857
94.5942046800182
94.502431849353
94.4909783382379
94.6720587625662
94.7143018673661
94.5783633323243
94.4854863044043
94.4446508612992
94.3598523811484
94.3549361506097
94.3414664895612
94.2667342393893
94.1707224404082
94.1785495203172
94.2479251805272
94.1697485122814
94.1941024392137
94.0347605451202
93.8438543890342
93.8973992953917
93.8896470057292
93.7294697928411
93.6692632332622
93.4852091731359
93.3738305460089
93.3768857049009
93.4001972470509
93.3006687902821
93.1641394952047
92.9863850334943
92.7955524729769
92.7867954938109
92.6176731587188
92.3061109159783
92.526654675591
92.5169564465483
92.3798807075444
92.204905571182
91.9720640808449
91.7673647118626
91.6117418375341
91.3337295309744
91.2726443738962
91.4521536394753
91.4689074293798
91.3129699246348
91.096494421829
90.8292751552168
90.5800622472127
90.4722152467737
90.2375798048918
89.8569472233
90.0128741633635
89.7840825597736
89.5705570679485
89.3837027765581
88.8606825498484
88.4041068684474
88.0207886732317
87.447502354443
87.1758177946772
87.2678393516262
86.8908519207517
86.4302450257973
85.8266834152847
85.4456299412834
85.2183237256547
84.6868340781895
84.3516229750376
84.1435450209037
83.659229698937
83.0786260689366
82.7642151843462
82.4385158535507
81.9371326312287
81.3029815243957
80.4779966658326
80.7022505870291
81.1212760092527
80.3987974834123
79.9608432987098
80.0982559550882
79.8437896652264
79.3606140849967
78.9526486638147
78.4595519016307
78.2915170846562
78.792069346073
78.7323788178882
78.2988859944707
78.001621464742
77.9254754242085
77.758969238882
77.8485696738452
77.9955823519801
77.6440147348185
77.3881391003564
77.7523273965128
77.7813496219233
77.4851710339298
77.2759885955972
77.124013715545
77.0338630625052
76.884718753113
76.7657484757445
76.6302806535282
76.4799525366615
76.3003637232165
76.2098663981634
76.1326843948715
76.0595462925501
75.9856909167164
75.9393910427948
75.8569374878978
75.8312579075449
75.8199679205377
75.7616114985459
75.3972963012816
75.3894790559765
76.0676851987415
76.0359603702403
75.6242475206874
75.8057549852324
75.9192390955589
75.7316501234076
75.620268320006
74.9534308767008
74.2978755717164
75.9212586912554
76.3625781031861
76.1596506390302
75.9942476295149
75.7654447963292
75.8431217033632
75.6115563906456
75.3954698071033
75.4200167998576
75.4689038899782
76.7572606266531
77.5383446122517
77.09333980048
77.0037031608996
77.6064840451255
77.6745728417736
77.5996929595931
77.8416126844736
78.0961382190427
78.0299335005623
78.811655914057
79.3046091144814
79.3983888948898
79.7286792760545
79.6871864368645
79.6471407424852
79.38812996383
79.240677754183
80.8468137134534
81.6003208211718
81.3520517423622
81.148265453298
81.1679552557615
81.6594874532092
82.2856807460176
82.2951208952087
82.2006279839355
82.6999186332167
83.2694055712613
83.6020216091711
83.666348921517
83.7223583161041
83.8132484869931
83.7265373131145
83.6482907747631
83.5544007036839
83.7268225187093
83.9141071893388
83.5186709234599
82.9870056242509
82.7280807281239
82.710031340303
82.3199325195976
81.7166916168217
81.5730590048223
82.1841568194637
82.0538143582965
81.6992915749471
81.341958840294
81.1827884958884
81.2536239013939
81.1702922794357
81.0143984183315
80.8647328199916
80.5028368025476
80.4293530686528
80.7996304343706
80.6035345050243
80.2248406599455
80.017204326597
79.7811199355449
79.3639652916069
79.095801356645
78.7554186217303
78.3168124537144
78.4528086014701
78.4827945139834
78.175988885079
77.8618599733809
77.6849617578566
77.5780268043609
77.3950603926855
77.3238316354027
77.3982278814772
77.2381431378606
77.1171928432129
77.2506265921194
77.2517253364324
77.4752654406721
77.6408101011328
77.4657754257946
77.2839256404099
77.5004205416246
77.6718629685813
77.6263308224574
77.58880246114
77.5929778574545
77.5997942133687
77.5717201407783
77.828667410622
78.0383941449844
78.0508760884619
78.1623168828263
78.2408111236918
78.2214483653308
78.5073660666899
78.8809083389399
79.0212813340061
79.0619041719415
79.1564643185921
79.3229387178893
79.4537211818943
79.5799529133285
79.7101070914213
79.8282850418667
79.9213968042752
79.9288052012172
80.027429564757
80.295040579471
80.4520118215664
80.5136402711699
80.5551646071195
80.6218656922287
80.7004592428014
80.7638221687807
80.825619477042
80.8807344512254
80.8985340195416
80.9418635375775
81.0474262184787
81.1189033778967
81.1627798786977
81.2558838782991
81.3185924549734
81.3615707893696
81.4323816463152
81.5029341034144
81.5823667495801
81.6537601666425
81.7142858381354
81.7715997552755
81.8359405387405
81.898031919076
81.9717139303395
82.0287260047689
82.0914834955814
82.1329856261055
82.1196253121876
82.1059359532676
82.1031954624715
82.0710990484743
82.031237570048
81.9987322045125
81.9344333189645
81.8638360903961
81.7957268511869
81.7199115320972
81.6180343712883
81.5247138451202
81.4447930042623
81.3780475982382
81.3009324578162
81.2124346744193
81.1471758689721
81.0806081885663
80.9940038750563
80.9202531022328
80.8596840963241
80.7976030232292
80.7311048688394
80.6703774683469
80.6377263953754
80.6031714381408
80.59118726549
80.5795386222109
80.5970092187307
80.6413067747713
80.6719357697637
80.6857917949508
80.7367893853425
80.7924053497093
80.8628286789037
80.9483150386826
81.0074494325618
81.0787322806941
81.1636293140133
81.2419384116656
81.3534921886257
81.4714241057839
81.5542658571691
81.6331672625332
81.726312420399
81.8202115313654
81.9406629703831
82.0780273959989
82.1984811980525
82.3015957031151
82.3703402634094
82.4026889078614
82.4151816292552
82.404741826529
82.3898512400044
82.3385484958565
82.2481952170747
82.1726878734545
82.1023206969839
82.045645492221
81.981498855269
81.8920787172948
81.810603792976
81.7394102047491
81.6521752291299
81.548416856932
81.4387515966997
81.3220740906575
81.2099293078051
81.0889460039939
80.9637329682873
80.8726445012317
80.7741540258423
80.6740954818135
80.5683144039237
80.460113784309
80.3102597948407
80.1480221227227
79.9659800549763
79.7244177665724
79.4527881416418
79.1585418168085
78.8273496999548
78.5155711552903
78.2387628375588
78.0235425567132
77.8524013933918
77.6993342234362
77.5607067376259
77.4369455694393
77.3421060392202
77.2830450196411
77.2126294636036
77.1235282643693
77.0416293135664
76.9069799290208
76.75133730212
76.6116114431377
76.4335081820465
76.2285625316461
75.9927794641509
75.7447513501465
75.5038048365223
75.2370871904478
74.933055488046
74.6289887916047
74.3293407116092
74.0328599250079
73.7461299280335
73.4860872275748
73.209556650622
72.9631055662965
72.7201592609028
72.5053363612678
72.3096912219768
72.1039012671931
71.958146696781
71.8324546101313
71.680117486064
71.5393143919723
71.3823861368472
71.2033983955108
71.0661579683522
70.9226123884644
70.7331929681269
70.5749092801254
70.4156135672407
70.2539341653877
70.1145303132605
69.9925866635318
69.8565169536765
69.7267856696838
69.6543104330533
69.5987394803739
69.5480299786072
69.5368107655185
69.5560648754309
69.5914527438602
69.6681234261005
69.7651417756999
69.8604097238114
69.9745702087378
70.117874377718
70.2985252064752
70.5221974943714
70.7867379509992
71.0669042822239
71.3712016108902
71.6677746667999
71.9768493062288
72.2883231418975
72.5595043565555
72.8267604521598
73.1288704640398
73.4167974990319
73.6982161100043
73.9421265743015
74.1756272873852
74.4127665281023
74.6433994306784
74.8545991542454
75.0203305565242
75.1472852947544
75.3014879144256
75.4495869320713
75.5930696560522
75.7210351073969
75.8379131444649
75.9965725085327
76.1905294958939
76.3851368637469
76.5914708082656
76.8012833243606
76.999801913112
77.1974576297221
77.4155503825441
77.6138342081017
77.7922955128155
77.9633328776424
78.1317491099232
78.3042409589296
78.5204052090864
78.7625514313566
78.9542422026969
79.1054620039436
79.2839415651003
79.465426884227
79.6346376568548
79.7994493963426
79.9623661671262
80.1085131878974
80.2434127871202
80.374347381402
80.4825681793477
80.5914876432845
80.7031941257149
80.7497768802995
80.7991201330902
80.8915277989731
81.0093681630181
81.1160904780572
81.1977688901072
81.2862275629714
81.3921929383476
81.5012304960042
81.5930893315988
81.6425451965242
81.6657293904891
81.7141696985182
81.785372135058
81.8324324865138
81.8586340241865
81.9049172718694
81.9395639603103
81.949046928065
81.9664112732674
82.0104825653306
82.0159801882559
81.9894556128214
81.9973867182188
82.0258468298544
82.047860397733
82.0451090850246
82.0499579271755
82.0508104099026
82.0094800091329
81.995235888604
82.0058449749938
81.9937508614743
81.9491782964241
81.8700927821575
81.8059743889901
81.7637689888159
81.7519178254295
81.6716371498117
81.5418938330847
81.4254331427656
81.3575157426959
81.2421218500278
81.104973130356
81.0500848677441
80.989255922773
80.9025394859205
80.8414334480457
80.7457420844261
80.6408724604346
80.5325972913386
80.4368425911297
80.3583959156605
80.2619369654314
80.124500871961
80.034819285156
79.9762599317693
79.8759340255899
79.7463574975036
79.6532892055657
79.5508171261574
79.4600850990484
79.3742358290695
79.3124987629105
79.246656553492
79.1785600873997
79.0911091189027
78.9960681363079
78.8951073310715
78.7822837341038
78.679076846506
78.5736520455342
78.4769016336695
78.4221384896162
78.3493529106119
78.2406400361077
78.1800244758014
78.1656683696494
78.1207063386507
78.0542674136784
77.9718107676798
77.87617405371
77.7762268802379
77.714122469824
77.6251554614021
77.5392864763966
77.4144286501685
77.3273882658777
77.2678117755285
77.178677998101
77.1028644580817
77.0218628762599
76.8943383699344
76.7821178781502
76.7058829468919
76.6431603655348
76.5385752898115
76.4272980387176
76.3379049651185
76.2909570354105
76.1557680521861
76.043579436019
75.9346895650685
75.780954075128
75.674405011676
75.5434428591604
75.3371616563199
75.2534319490892
75.1879153190773
75.0581251708052
74.9350454585107
74.8224742505873
74.6376854059359
74.4913604819129
74.3661416702928
74.2328660308127
74.0679794154482
73.8896454663638
73.7583796682499
73.6679512376942
73.5537058576089
73.457408639347
73.342589446656
73.2678874637975
73.1916277359613
73.0551633155111
72.9071055445664
72.8226604842741
72.7212908613373
72.6316387736342
72.4754883690481
72.3967054073696
72.2676972326014
72.0383571931924
71.8136138319761
72.0592505357097
71.9486579068601
71.6947595235284
71.6219751179208
71.5465598825264
71.4109502749096
71.2174075247675
71.1009934025857
71.0541875067267
70.9290850890101
