1798
3999.43349933624
650.420452594757
1
128
4
96.2764912160801
96.3305576947804
96.2710724821666
96.1786536580061
96.2018052690426
96.2621528861491
96.2662263305054
96.3083197218384
96.28938734053
96.2204018289698
96.2137027296572
96.3148464014881
96.3380688582698
96.2735362826674
96.2287494087735
96.2249322021353
96.2001244048388
96.245927309968
96.2638570262048
96.2921683180926
96.2562469981974
96.2328904286685
96.2076827352306
96.2433482853239
96.2487127659878
96.2640846233922
96.2509206959873
96.2307030911162
96.2418267101017
96.2541217659839
96.2606519435144
96.2725278031678
96.2809168487368
96.2924605867997
96.1878969852562
96.1977708524141
96.2662217671296
96.3106028705238
96.3476843126742
96.3199838963734
96.2328878636564
96.2355736752528
96.2671330871955
96.2818978009333
96.3265864195888
96.3931414006749
96.3436933301227
96.3157283552655
96.321406162149
96.3277111316051
96.3448119886342
96.3588711755886
96.2313319185146
96.1506901095082
96.1674309531069
96.2430906639501
96.3346686133014
96.3806584923027
96.3035065852208
96.3190364108452
96.3189561352045
96.2815159451034
96.3033314073823
96.3303003836211
96.2786227940278
96.3088629029074
96.3601744947599
96.3107214032164
96.2619667962663
96.1924195936882
96.2341456853503
96.4487981352381
96.4881657994404
96.431769360303
96.4461856102422
96.3807746221563
96.2839256474042
96.259243389733
96.2016402712643
96.2588192766775
96.4295040643614
96.4992528849196
96.4864850443284
96.4953599502029
96.4005563292868
96.3849008150971
96.3605431581558
96.3108340372702
96.2576381345503
96.3245485730791
96.4822758140307
96.5423513607286
96.447727279125
96.5045646950542
96.5119279002325
96.4245783816637
96.3651759145711
96.3879509838575
96.3160587058731
96.3324121358898
96.4162580366876
96.4091986240662
96.354234630135
96.3147169215425
96.4135591048409
96.5808997155766
96.4999465640986
96.43174463918
96.4558860269261
96.3916857906159
96.3726650652645
96.3998281829359
96.449282213205
96.4462406598908
96.4462294354294
96.549672018628
96.4791029298584
96.3958693541392
96.4062328320236
96.4728796670103
96.5503143793892
96.5667255038996
96.4773828957592
96.510298825983
96.5224287055098
96.4861057180805
96.4541019870333
96.5008926341154
96.5532246170498
96.5977228839573
96.5415021997144
96.4565911120216
96.4224730960874
96.4101495869613
96.462277141132
96.5407623880794
96.4176221545005
96.4090499188861
96.4971932030403
96.5125559845074
96.5167108747779
96.5594504203352
96.5096256775335
96.4535825492676
96.4249218010244
96.5806752410776
96.5551026968707
96.4027403436573
96.4085448972652
96.5535278204234
96.6140382726875
96.5649918826514
96.5001201103742
96.4403786592886
96.3306431745231
96.4494605610752
96.674224521808
96.6271729553132
96.4808722008048
96.4823050418171
96.5012253351461
96.5880739800075
96.6691274941212
96.6300639299856
96.5139286975237
96.5165820720829
96.4490842638972
96.4091735572405
96.5151898091111
96.6367956084224
96.609394870888
96.5168551771947
96.4628855934503
96.4987561459303
96.444185647085
96.3722261487077
96.420462123967
96.5221970057551
96.4896485498626
96.5232406192701
96.5407308079818
96.4491370713171
96.4495632160647
96.4598071471551
96.3940098949756
96.2798684144086
96.1441247080218
96.1257915627786
96.2472328204597
96.2998507370807
96.3857071156271
96.4714223219695
96.36800128726
96.2704724953602
96.1308061114126
96.0500517611002
96.1240170254697
96.143540407225
96.0484169417978
96.0357176379121
96.0805031889551
96.188427247704
96.149068652044
95.9648717679991
95.8259418382715
95.8518572480206
95.9170738344866
95.9320942738105
95.8377819256269
95.697487342886
95.6696798033455
95.7799118670409
95.695954717856
95.5538873551415
95.5014797252744
95.5678356426953
95.6504100953033
95.7040353917103
95.6629270937084
95.5472950882015
95.3567056961424
95.2936522102769
95.3257416680204
95.3824814743601
95.2892245455841
95.2595915445266
95.2760098406194
95.2939336928109
95.2019947393106
95.2536141877149
95.1725831216118
94.9593762932681
94.8496913821639
94.9870347555394
95.0214381130181
94.9906363409429
94.9941979119273
94.8439150115878
94.7343666374976
94.7899535895354
94.7472616185942
94.6775381561109
94.6773780269585
94.6181837209198
94.5557778367875
94.5648865205269
94.4573192394765
94.4368836510775
94.4891997897403
94.4886728012667
94.4418320262446
94.3774724144382
94.3352900233848
94.3046272558884
94.2518322479309
94.1446392787699
94.0689226273221
94.1115182465109
94.0610733248754
93.9772239107801
93.9320400620813
93.9978906182479
93.9886782575138
93.8630084935224
93.7730687213104
93.7603742611194
93.7286901721263
93.7120605843896
93.7770766676468
93.817474995727
93.6849640141409
93.6278434186851
93.5938147398825
93.6174058676794
93.5615648213994
93.5073607346315
93.4452781910686
93.3260558413192
93.2612450393286
93.2525153906807
93.230769196471
93.193497051332
93.1301450205309
93.1925780963432
93.1718139713548
93.0575582047596
92.8931192545942
92.8833595470883
92.8780831768291
92.9005254592073
92.975161296199
92.9378276567518
92.8101134342933
92.8029813096299
92.754682148374
92.6904525912228
92.6473500318932
92.6296017483022
92.4799000528693
92.410181257458
92.4472854584243
92.3941544213157
92.3834308442334
92.3585460292367
92.2437310787027
92.2336615327396
92.3055822105036
92.3626210182276
92.3198817920182
92.2731206878202
92.1974190177815
92.1466544119549
92.1873941470401
92.1786568170264
92.0861439415816
91.9563931712097
91.8297543899001
91.8691870337256
91.9833840214989
91.9724204718547
91.892828179293
91.8703327993212
91.8185627562698
91.8133536016924
91.7045302025495
91.5774604258039
91.5933908585649
91.5752132851055
91.5245825665134
91.6192185616388
91.7029516708396
91.6874856162789
91.5455971046056
91.4626679969408
91.5267119102853
91.5465137363912
91.4739197728066
91.4369677573806
91.3649734642929
91.305402964055
91.2870245328956
91.2766648580263
91.2116412791676
91.2572001503634
91.2429041633261
91.1829820976877
91.2199684913907
91.2749774107365
91.2847805091866
91.2679937963679
91.247968110525
91.1971513309497
91.1144749827922
91.0297748414756
90.9578204253083
90.9716893818076
90.9899003774463
91.0242671805502
91.0125512673338
90.9896841471573
91.0002552054743
90.9911315912793
90.9552612830437
90.9466723243165
90.9565730312104
90.9370056926222
90.8469292312459
90.9208167578384
90.9804951349365
90.9315990216075
90.9829485214349
91.1005028930448
91.0710089176069
90.9305816284764
90.80400848754
90.7764758566829
90.7935266045835
90.8338494992309
90.8457788338415
90.8477735022105
90.8648543037887
90.7992540028314
90.6552671271961
90.7271977676371
90.8074260845368
90.8172533875881
90.8867405570768
90.9038743107206
90.8030073383411
90.765994030278
90.748547478103
90.7999728176122
90.8185263684338
90.7390246312635
90.7114062589051
90.7518437410872
90.6916736763418
90.7472431849443
90.7487138471883
90.7545082506429
90.7494813358143
90.7235986080883
90.8000733616098
90.885319451766
90.8762282647461
90.769844781588
90.7322166814397
90.8474207392689
90.7981772554773
90.7431904215785
90.8107221275961
90.8138485476204
90.7822059700016
90.8182610575521
90.8224605199112
90.8551775902513
90.7832706123189
90.7901163844626
90.8389373646678
90.8509189598781
90.9156192081692
91.0044200865224
90.9087889658908
90.8132037262008
90.8655438198514
90.9006351237269
90.8962390246233
90.9413129568355
90.9259317849331
90.9771187349417
90.9787302246421
90.9799901620704
90.99417499749
91.007231833561
91.0165085646643
91.0086586323701
90.974399714394
91.029959821377
91.033881118078
91.0602279160688
91.133142406918
91.193980795498
91.2017673819545
91.1747911875797
91.1253814007143
91.1544393647193
91.2371647970633
91.2611312368709
91.247065013028
91.2717428745101
91.2104110796311
91.289598447803
91.3856450849814
91.4196068335432
91.4451029649499
91.4745869698211
91.4676053338322
91.525746833137
91.5041743841614
91.5163760064206
91.5458796558821
91.5608762952678
91.5747987436297
91.5759003257326
91.6559378679584
91.7684939493967
91.6913025223733
91.6631816771759
91.6847723578959
91.6605334043377
91.6181683693703
91.7068859572461
91.7829136443782
91.8494613227519
91.878333101841
91.8202746133857
91.7838176954907
91.8911622941563
91.9233597235677
91.937502736317
91.9347059858029
91.9350707711941
91.9955613593024
91.9846722850803
91.9178504547236
91.947938504924
91.9723832872745
92.0023274288639
92.0548725941823
92.0511924328877
92.108275504224
92.0978355313407
92.0542345720263
92.1103730597856
92.1732409727567
92.1538655417656
92.0728350740212
92.1007472773229
92.166601277188
92.2241711226646
92.1983565470378
92.2013639253892
92.2874098757171
92.3362925978767
92.2629082932711
92.2278833565036
92.2856228485151
92.3547769973915
92.3433263895829
92.3008020996048
92.2782352563317
92.3119097778554
92.4084198196799
92.4909107840547
92.5487418487356
92.523648711938
92.4589203598604
92.5009808799873
92.5346102210151
92.5231074757104
92.5078009653309
92.5302497877724
92.5369268288718
92.6160325063435
92.6022824716715
92.5396653382021
92.6080989594285
92.6641021704871
92.6645980272933
92.7918153942272
92.8382158556831
92.8055430345282
92.7026078015218
92.5941713820894
92.6129304393044
92.7342905139287
92.7099400879592
92.699392440853
92.7474510117141
92.7400420633745
92.7334367692738
92.7421804392885
92.7431015317474
92.7319426999699
92.6888996278728
92.7039975928154
92.730317087839
92.7261518230167
92.6833735772165
92.6037633279395
92.5123251500456
92.4841631084321
92.4995870379966
92.5086194745666
92.4530250009795
92.3768496997775
92.3956062009934
92.4685114763085
92.4826331956625
92.4008074492457
92.3454415670467
92.3732146730385
92.3315491461805
92.3326430879726
92.321745789332
92.3101099781191
92.2783225681562
92.1794684921169
92.1459050434277
92.1716071525846
92.1409087256012
92.0791620446101
92.0912133325963
92.1490331807493
92.1553859920711
92.0952903194379
92.0352665218532
92.0832043984498
92.1735526917787
92.1554308237427
92.1375205119753
92.2171636005929
92.2910964048409
92.339101518871
92.3475053317119
92.4218749026004
92.4626533104172
92.4274008536496
92.4088106880561
92.4211392808931
92.4052555714544
92.493126232395
92.5696094197751
92.6223339485864
92.6264662024389
92.6110738057747
92.6320230238406
92.6493326201855
92.6839565262892
92.6863109238798
92.6536548998855
92.7109443805756
92.6750898921207
92.6308095698113
92.6945723796437
92.7635878593378
92.7256527638332
92.697229130763
92.7599390726676
92.823035815489
92.8407733759094
92.8192090547285
92.8074589782419
92.8597218619111
92.8790513042845
92.9112619668261
92.9252408844007
92.9341503752425
92.992654106793
93.0494049515362
93.0900424650799
93.17379041923
93.203520529243
93.2104081545056
93.1569872201709
93.1386856039673
93.2229081699919
93.2557853084884
93.2429689475307
93.29155929349
93.3542192773071
93.3926700521734
93.4203418603288
93.4433863518452
93.4291571991701
93.4319535435705
93.4488682236777
93.4939062293662
93.5150045493749
93.5487353566818
93.5285209438889
93.5240853352034
93.570053866685
93.5931975266339
93.6222592009364
93.5853798868303
93.5923225790921
93.6680664492516
93.7092192076882
93.7217928916992
93.6950596849568
93.6937372704947
93.7454042811137
93.7270911968165
93.6908227739492
93.7136069942592
93.7579270275226
93.778826648714
93.7929833658521
93.8222138811713
93.8488682387932
93.8673268643294
93.8434412178018
93.8503040984001
93.8539505277882
93.8523586758962
93.8726616930606
93.9264683034747
93.9352739170644
93.9467779093676
94.0037510856566
94.0287038983763
93.9338202095
93.9305406223311
94.0025548267265
94.026169727892
94.0121624659356
93.9914034703692
93.9983692118463
94.036922554179
94.0228987701743
94.0127276993803
94.025491971296
94.0661638508967
94.0863319756944
94.097409654485
94.0982165648602
94.1410957698975
94.1265201253902
94.0757814847544
94.0968369950975
94.1368865104024
94.1735313921533
94.1829236879662
94.1570866088987
94.1872356344693
94.1973450603519
94.2008939693229
94.21978297693
94.2632490510106
94.2942313090395
94.2554834506894
94.249466006662
94.2947807660396
94.2869243186986
94.2723036016275
94.2708406775333
94.2640411021079
94.2968126959528
94.3617431948632
94.3177349888331
94.280079229269
94.3513038422772
94.36180609809
94.3444858827181
94.3613737517346
94.3543044535193
94.363980723578
94.3591818112724
94.3687486212946
94.4224731815395
94.416838437216
94.3605730928037
94.4211889381895
94.4416097028296
94.4427015600121
94.4414822275017
94.4457223669617
94.4872751354797
94.4934665824998
94.4565165825566
94.4902469429419
94.5581458666749
94.5746240844603
94.5824653033879
94.6430521709283
94.6224933816681
94.5086331599128
94.5306228883083
94.642726581621
94.6677210199483
94.6775000585217
94.6864856864838
94.7085066373158
94.7705989793439
94.7868417076713
94.7188046043515
94.7276863050708
94.8350686327747
94.8299573736744
94.774759830697
94.8236133038778
94.8676529835188
94.871345562811
94.8746228869546
94.8556839143791
94.8533084197623
94.9032575852224
94.934552436041
94.9761334194522
95.0185165179115
94.9501907426995
94.9526429608716
94.998451878858
94.9218431332324
94.9200429806733
94.992382642884
95.0333568463536
95.0831525544491
95.0534163049905
95.0108850475024
95.0915786310397
95.1489292402744
95.1238192804579
95.1490698428903
95.1123018568847
95.0618682749441
95.0690625540828
95.1051252765488
95.0734435275331
95.074717332856
95.1184281023656
95.1322409982725
95.135065422207
95.1804942283803
95.2120395460524
95.1563807505835
95.1878739865377
95.2357504561371
95.1680706616815
95.1719598961264
95.186145635513
95.1344900049438
95.1803549876713
95.2954524660217
95.307436178465
95.3217261657078
95.378842512803
95.3371921412276
95.2695506349767
95.1906193918454
95.1782162573119
95.2250652053146
95.2289773459551
95.3259079006546
95.3697347896318
95.2857864148941
95.2532693928458
95.2442706264808
95.2918412419129
95.3120282735102
95.3477699778156
95.340248304935
95.2645946749273
95.2578105628105
95.3503531781191
95.4015353750724
95.4167745355845
95.407983489905
95.3558995621165
95.3207679857059
95.3993445809953
95.4329240384584
95.3981668073584
95.3506345659229
95.277722408019
95.263398927929
95.311969966749
95.3220845293243
95.3505215750108
95.4332308415146
95.4200744818294
95.3534693784102
95.3323292055656
95.389335538227
95.4319640796057
95.509597928828
95.5376601097651
95.5140615972939
95.4922219919336
95.4219933084697
95.4163502638033
95.3904112446084
95.3769960148983
95.473572380437
95.4998057413544
95.4524269104914
95.455347744107
95.4637455369692
95.4652493008018
95.5062341258563
95.4678834598703
95.4783876007448
95.4936333886185
95.5035840296464
95.5409730538466
95.5323145094286
95.4940454498039
95.4480529727861
95.4539414451865
95.4981689379311
95.4710006514534
95.4124966267092
95.4345447635224
95.5056930255413
95.5013610255009
95.4668453925764
95.418544850155
95.4780092337873
95.5709363247189
95.5095495995525
95.3812806924231
95.3753545469516
95.423489688599
95.506051170091
95.5166536523419
95.6019842807156
95.6376901690423
95.6576069318222
95.625339676582
95.5075033132252
95.4704811226445
95.4671313686296
95.4903521739152
95.5467816234008
95.5194645043097
95.48563869325
95.4581741905206
95.449262592115
95.4920721125861
95.5430266643556
95.522400165295
95.4358819112509
95.4841429104846
95.5090153172528
95.4864078726853
95.4710824143781
95.43279202224
95.4087280000641
95.41782971107
95.4622939278002
95.4983485636747
95.5569929985643
95.5269086552999
95.4875143539037
95.5084862916662
95.5514019969186
95.607520508378
95.6389576543648
95.6414240739461
95.5920132299025
95.6507886523492
95.6841617956132
95.6020566528261
95.6313732724109
95.6473042248163
95.6174168019465
95.6839700910657
95.7553845223811
95.7938480918162
95.8239164917295
95.7677970336041
95.8222405210857
95.9080070227147
95.9521715529405
95.9451594102067
95.9333420737251
96.0489717793299
96.2154597489722
96.1995876125073
96.1172174447449
96.1299179794814
96.1402162061686
96.1594738992135
96.2684456367096
96.332310679287
96.4430813804541
96.5479546971621
96.4931989809352
96.3657785630322
96.3064633995089
96.4714241814166
96.6407706448186
96.6312042122861
96.4177056510951
96.3641097445003
96.5393825831914
96.7592285511857
96.665664973872
96.5810210687123
96.8262911580143
96.9731484897152
97.1451933521831
97.1832997470006
96.9667975258419
96.6507193776249
96.6619550944424
96.8393301390316
96.843454556603
96.8998515175844
96.9284304159663
96.9591827067653
97.3051421862504
97.6128854164603
97.5384374750345
97.1622552238204
97.235881169512
97.3744132483933
97.2894365875032
97.2068763650386
97.4499216818187
97.5600686345584
97.647529964019
97.6826963386931
97.5444401894553
97.6864198601929
97.9433358319347
97.8560713998946
97.7186887033945
97.6584929868592
97.831424085347
97.9155259582132
97.8152301914502
98.2025732909463
98.4306123628096
98.5877275530449
98.9741343654316
98.9048382152243
98.6648081787454
98.371977971002
98.1920717982877
97.8747636335577
97.4390205965988
97.474228147499
97.3375345293633
97.0100355460402
97.0825195193816
97.1956715601137
97.5450040775467
97.4701650070392
97.2121468729198
97.0216198833778
96.7578315940807
96.6419670502676
96.7223449768346
96.6762067266204
96.4967242696067
96.6390531674744
96.8792740460375
96.9834363130156
96.8433444328382
96.6956935099091
96.7056731594927
96.6273545151707
96.5343894190556
96.6410283708728
96.8441002679411
96.9608612552019
97.010554724119
96.8937865057511
96.8880172512953
96.8837982330502
96.7731500737375
96.5737476536845
96.5185442456277
96.7076430239279
96.8181705018544
96.8291421118723
96.9509542683111
96.9881687017662
96.8623847032221
96.7888336237066
96.8070189260679
96.7930359739638
96.9705474260735
97.114638440341
97.1381386876612
97.1720216537591
97.249524416412
97.1650331168357
97.1670282008489
97.2781611240823
97.3656265040917
97.4415229868362
97.4775132597538
97.4323856046098
97.647345089731
97.8358941269093
97.9207870045374
98.0909959264106
98.2439700525636
97.8263982378885
97.8570883599513
98.4311093759943
98.7691543989915
98.8010696255651
98.8560864653175
98.6504356682431
98.3245820110803
98.5416367575051
98.7329466505387
98.3342665037533
98.0597565163705
98.2500668199348
98.4485229561926
98.3607070777124
98.4152969856016
98.4852712253776
98.6216491422132
98.4122064427268
98.147872866159
98.1071717139601
98.0159713001749
98.0557403701568
98.165054014758
98.1560589167903
98.1920854503462
98.2701385860313
98.2206660603484
97.9393986127685
97.9374712669908
98.2085353036959
98.0691112928359
97.9333495048597
98.395344094845
98.6477275156305
98.0697305200155
97.9183204558357
98.3805753560412
98.6184949408576
98.3611988384476
98.0510045996735
97.870056265106
97.8823433375064
98.0061585832801
97.867990088342
97.6945351904597
97.5191168183598
97.5568198996302
97.6805607209871
97.5942659017951
97.4698081220869
97.4505583646182
97.3621054341244
97.4051286776134
97.3127253722388
97.2336974018084
97.2517188140121
97.1555909596397
97.0054576382347
96.9614140438984
97.0305724950633
97.1411036106339
97.0682634780294
96.9518433798274
96.8149422085794
96.8030041252168
97.004347222435
97.1895316383632
97.1147501864856
96.9108195093054
96.8838207314029
96.9237279989988
96.8462063323935
96.8137987987265
96.9067231416692
96.9152742682828
96.8498758888052
96.818890935068
96.8538995904418
96.8979166884269
96.9202600163216
96.8932431752151
96.8256063516431
96.7918667474206
96.8028371145166
96.8142060191714
96.8413333999253
96.8310224812634
96.7594414778896
96.7656976306297
96.7919604520768
96.7887582533059
96.7527732284449
96.7396019645504
96.7254957118209
96.7631866356019
96.7307260801437
96.7678447937618
96.7640366557094
96.7653063975614
96.8248220356406
96.8348379357332
96.7709501562533
96.7313716693283
96.7124004626133
96.7841488429655
96.7981257130559
96.7819225689413
96.7770814261193
96.7761611500024
96.7676063151987
96.7427252750871
96.725075936373
96.8343055305757
96.8531892771818
96.8187769779729
96.8078995427962
96.7955295423184
96.7306944174166
96.6838739809821
96.7450171221544
96.8141451713806
96.8022961908839
96.7744560436124
96.7614192869199
96.7900509694102
96.792635737586
96.7147872612042
96.6913979729136
96.7251558992246
96.7302509644904
96.7417824316669
96.7331047253244
96.7587417182589
96.7399755041856
96.6916349812294
96.6575768614915
96.6444737344045
96.5834302112993
96.5529265636932
96.5960111635292
96.561267011738
96.4709083593945
96.4085393134689
96.3916620444928
96.3969190361233
96.3555444390454
96.302918809517
96.2521730270067
96.2134614583186
96.1665253904089
96.1156293456823
96.054824630497
95.9867263050648
95.9098204453604
95.866625824403
95.8218447778934
95.7841965540984
95.7456860434331
95.6733103601376
95.5675961530707
95.4785138717964
95.3819864303692
95.2806309476042
95.1732332460784
95.158233878132
95.1469872989371
95.0789050054071
94.9569593451785
94.8278875929962
94.7258882467707
94.6421031010097
94.4977490842026
94.3666340513887
94.2744353592137
94.1819662882117
94.0804347642009
93.9689295746636
93.8362711622344
93.7110909296264
93.5706997479474
93.3905273165423
93.1495468281189
92.9217150593723
92.8090797817524
92.6628158504021
92.5286822106863
92.3858157174526
92.1688490212478
91.9228049820358
91.6743114049084
91.3812479191416
91.1699993981253
91.043089272904
90.8146194073936
90.5977496143282
90.307142289087
90.0691364047305
89.89590856591
89.6503524192891
89.3886835523978
89.1567590017864
88.9172365820978
88.6930542276407
88.5132468296328
88.343315225629
88.1336096140989
87.9174334579101
87.5383651843371
87.4021090243551
87.3415393332886
87.1447445346067
86.9545778951656
86.89248334162
86.757489072412
86.5733776389612
86.4076735418504
86.2413111125215
86.1375600226494
86.1141755901895
86.0192175037221
85.8464540730224
85.694974515712
85.6191094295336
85.5126473908279
85.4056173488622
85.306707386359
85.1580306378649
85.0341931969141
85.0021043537517
84.9142686701952
84.7730318381229
84.6525560276281
84.5485405909673
84.4473398023782
84.3760265723851
84.2919937643656
84.1962192582914
84.0953062873779
84.0331294299264
83.9932040242001
83.949240744376
83.904927228333
83.8739332380216
83.84070629455
83.8400815925582
83.8459492823185
83.8373827665841
83.7969480941579
83.7426465775142
83.7801575445901
83.8593484678954
83.8650174950332
83.8645899388764
83.9368836661203
84.015562120147
84.0295745856844
84.0081870425749
83.8807193007305
83.9592367303983
84.2330312505588
84.360908594874
84.4603288924927
84.5628171183017
84.6439311358717
84.7787121584269
84.8419222198585
84.9139244868347
85.0499869945541
85.3543458850841
85.6592084482114
85.8080214423662
85.9223624398315
86.126147298524
86.3136463656987
86.4434589051294
86.565627298082
86.7338736111945
86.8365917134833
86.9580029776242
87.1874709648786
87.3346373197111
87.4757472368187
87.6191566949326
87.6843655936747
87.7266088390252
87.7630215298478
88.0567922971125
88.4200925521728
88.5701296557386
88.6253597327936
88.6709129565523
88.8389085441603
89.1136538513323
89.2625861408924
89.3115180076797
89.4544775633332
89.6705155562079
89.8425584876352
89.9307803587411
89.9506648632486
89.986738386997
89.9594896936323
89.8527711266675
89.7464688813866
89.6642327739568
89.6336264413574
89.5043601295633
89.274643074023
89.0920886809715
88.9831320580911
88.8202621013773
88.5729797277916
88.3358120630571
88.3025960899742
88.3274927376425
88.2248411162974
88.1035768900335
87.9786408086323
87.9272121215654
87.8972208825833
87.8152327072615
87.7187546313039
87.5910678557386
87.4543473811128
87.4177296760119
87.3599671269
87.1964527454439
87.0003722128695
86.8309817513223
86.6577493083523
86.4211169782055
86.2119013463629
86.0129631183437
85.7837201837869
85.6795814440465
85.5570286167037
85.3894618251895
85.2654045017054
85.1421606056007
85.0245875379674
84.9319392081682
84.8665385586545
84.8275247936998
84.7601410874359
84.7332477644607
84.752290378646
84.7655826851918
84.7997993690224
84.8027870839078
84.7911977246527
84.7994928831947
84.8425006649437
84.8899584861969
84.9294559576817
84.9700649566519
84.9906173969388
85.0321530932319
85.0957380084223
85.1956635834021
85.3034232177532
85.3931312296372
85.4875899097144
85.5654057472866
85.6787882434041
85.82957603002
85.9337902825466
86.01149335203
86.1210342878588
86.2446516937713
86.3423155371265
86.4187232257562
86.5094350171537
86.6140472100687
86.685296656483
86.7380800225069
86.808093356609
86.9143099206495
87.0214679791814
87.0941371081003
87.1431386900912
87.20513662
87.251771785161
87.2828236486636
87.3180521603444
87.3480475319418
87.3743612607691
87.4193653559014
87.4681980348388
87.5147452897687
87.5648971204291
87.5881928138073
87.6050459281344
87.6519155917151
87.7278075657467
87.7795751032223
87.8038017837221
87.8489883288404
87.8997999369194
87.9314776221287
87.971488087286
88.0233267053928
88.0834341200653
88.1322084966617
88.1599137658437
88.1756912702033
88.1765273339579
88.1763010464627
88.1740146688633
88.1751704370518
88.1602608979779
88.1175681731386
88.0838697411289
88.057514657441
88.0338725558442
88.000661271577
87.9548535994591
87.9072763211078
87.8699868465713
87.8188918406729
87.7673754808088
87.7536949150026
87.7411689392654
87.7060652750144
87.6660035408658
87.6160577361457
87.5529319500404
87.5081276837832
87.4770348632582
87.4577998953831
87.4306877860875
87.413802163446
87.412230802906
87.4135981900118
87.4290713636987
87.4272303420307
87.4220048676704
87.4355413446619
87.4574262352034
87.4914075648204
87.522347636266
87.5573040047367
87.6114970322128
87.6756721263826
87.7332541741785
87.7887695516062
87.8396747075246
87.8857336507092
87.9575513907845
88.033197402375
88.0739486106666
88.1485684048261
88.2394328084849
88.2832033121712
88.3146432065035
88.3813427549101
88.4370299106576
88.445409084924
88.429785500638
88.412669663788
88.3880588041211
88.3517919546058
88.3023472122687
88.2582397347934
88.1880725136665
88.1288890104519
88.0836338828118
88.0171850265929
87.9456260782367
87.8830435697158
87.8081705425788
87.7273443968708
87.631790659927
87.5397252582294
87.4682914036023
87.378532169412
87.2562995765187
87.1775218227166
87.0886261202692
86.9566466783051
86.84607879676
86.7316719660142
86.6008425141298
86.4792624301797
86.3233716959197
86.1232414252166
85.9537049790241
85.7825243801726
85.5845073811593
85.415367568982
85.2665587481404
85.1123808830182
84.9683337109429
84.8449684264817
84.7405503196232
84.6373657580298
84.558579551097
84.4933494511327
84.4031788460654
84.2920022080781
84.1856205413371
84.0642548548042
83.9205814541847
83.7642505037518
83.6090763264695
83.4574410082837
83.3077023707854
83.1481469972162
82.9670272931475
82.776713561224
82.6081537291147
82.4440799640745
82.2421746803825
82.0562594490499
81.9285231496129
81.7930755263299
81.6210399585014
81.4648454812592
81.3229103265718
81.1921795342155
81.0768280362191
80.9464770608945
80.8234629138979
80.7246892205176
80.6300036046769
80.5237338507101
80.4167719784113
80.3155836621199
80.2136370096968
80.0845126131782
79.9688025923354
79.8998699730687
79.8229288451681
79.7449872353307
79.6962350343231
79.6571293968555
79.594870007546
79.5172690083226
79.4710503954623
79.4831424281697
79.4952845165282
79.4794710106826
79.4926852307477
79.5650930139636
79.6371892197337
79.6908031047754
79.7348669920188
79.7920171777145
79.9034783226096
80.0436425143634
80.1759375401425
80.3052301938583
80.4486630921951
80.6127579166609
80.7853395109888
80.9434792376886
81.1114477911523
81.2902473090836
81.4831525737413
81.6399682480049
81.7535690185267
81.9064533464751
82.0863375740245
82.2536893438408
82.4178555502658
82.5389697136702
82.6486603637571
82.752566249794
82.8610898411201
82.9728115604769
83.0696482458017
83.196238427763
83.3378475111781
83.4375363879653
83.5479309181531
83.6833699598895
83.8307194969883
83.952253958296
84.0609960603808
84.1967128083581
84.3347234326941
84.4622686606997
84.5791874951138
84.6858772358919
84.7784763151543
84.9030509807955
85.0537169372841
85.1822155452574
85.268775146436
85.4011748869885
85.5223983603073
85.6034035608711
85.6912337348165
85.795923368289
85.8826800670862
85.9745519747188
86.0749594517185
86.1579956411068
86.2068166415278
86.2686780945338
86.3226777126046
86.3812741413171
86.4479560792839
86.5245384348675
86.5958131172693
86.6428118006058
86.6953269574319
86.7614269128362
86.8194157361455
86.8744831454935
86.9189124726427
86.9757514519921
87.032655003204
87.0789049203793
87.0906068956018
87.1138267346915
87.1607045142025
87.2183809817679
87.2431832471827
87.2411040976107
87.2404829282817
87.2897077987749
87.3340933709734
87.3424275924401
87.3685446668582
87.4038699956914
87.4291695972983
87.4174594614551
87.4028110105839
87.4393001023984
87.4837335091561
87.479903328927
87.4610023302788
87.4335276338717
87.43760850349
87.4527394791167
87.4666980507576
87.4411670024319
87.404810862376
87.3583220275096
87.3264468249976
87.3066604620342
87.2542754217851
87.194370736442
87.1902754597479
87.1614437149425
87.1162872173302
87.1047086757185
87.0924802510547
87.0617172391948
87.0319124163127
87.0327077582151
87.0022402741
86.9273080648096
86.8899356315397
86.8740137681405
86.8316516305606
86.784176418148
86.7100594865752
86.6439856122357
86.5851588551214
86.5691115277494
86.5487814492476
86.4999647196198
86.4637349301915
86.4495020131937
86.4528654293215
86.4390523387637
86.3910265854218
86.3650659176506
86.3340599647818
86.2846960634311
86.2581746604195
86.210631828432
86.1662236928412
86.1485613266519
86.126222556671
86.1316626701535
86.147174734053
86.1570064650721
86.1419729409216
86.1369209977517
86.1103892931501
86.0984296633447
86.0780491008119
86.0491752875333
85.9964890219714
85.9551890082514
85.9559953290581
85.9753804690164
85.9148402821612
85.8240180402887
85.8293582107592
85.8280902313122
85.7764822640358
85.7309505241169
85.7276667318809
85.7112119410492
85.6532606011601
85.5938176810607
85.5287106026271
85.4468921256189
85.3962295606158
85.3694120048729
85.3326830749572
85.2793792519315
85.179297465848
85.0759469791323
85.0359165467654
85.0217697311292
84.9618796906767
84.8913107912728
84.828710174038
84.7267491176997
84.6147087243205
84.5107815282613
84.3634261255066
84.2448473679752
84.1448724337527
84.0984884497337
84.0499051571866
83.9835062516126
83.930298511973
83.9034559015059
83.8281337163987
83.7293927303764
83.6939663275079
83.6815067984465
83.6025118543465
83.517022862473
83.4421140666161
83.3548531495296
83.265419551969
83.2064307402061
83.0949410187515
82.992790679423
82.8894208571567
82.8798822096636
82.8700741321177
82.7494455166178
82.6651540191473
82.6185138784315
82.521152610179
82.4224759249138
82.3626916094873
82.2690507559633
82.2013552440997
