1798
3999.43349933624
650.420452594757
1
128
4
94.2690571363414
94.2370044460629
94.2926615221371
94.1576904349061
94.0967381360744
94.129177235533
94.3133068402699
94.2434676345299
94.2846407566013
94.2738210841022
94.2915809712716
94.2341798412226
94.2654591095275
94.2645947231664
94.3301277930899
94.2657140144738
94.3108821256316
94.2203742909228
94.3040322551314
94.3397848804055
94.3238078613477
94.1653239825602
94.2040130768993
94.2244404713436
94.3503230379819
94.3422040438038
94.3153239303182
94.1887518540041
94.1741876203196
94.1489369472387
94.2340923161311
94.2498923166034
94.3978586502743
94.3496866011386
94.401150284655
94.3725162017684
94.3147915829393
94.2402072626093
94.2615974370006
94.1173201000836
94.1557404529715
94.2336113370726
94.2974869710985
94.1355755537831
94.1223927746217
94.1805132303129
94.2655057203694
94.2563440883379
94.3530964352756
94.2423454081697
94.064837574475
93.8517673381326
93.8328337495607
93.7718152437789
93.9703431055576
94.1371645157196
94.3127423587158
94.3077877860326
94.2112875966213
94.0182855326823
94.1078883069342
94.0982058017635
94.1125556518756
93.9734745192602
94.0655041121564
94.0582019942849
94.1680318001442
94.1540549464984
94.0327363683015
93.863993935127
93.9711372197545
94.029539884742
94.0309824985627
94.002625688695
94.1178576944302
94.2412206326934
94.2408486235461
94.0065512897741
93.8424333103716
93.7333263251115
93.9340746749332
94.2760959837729
94.5667192584625
94.4455808239882
94.2983297124819
94.1323860963025
94.0737526664943
94.0567702535481
94.187121790309
94.2685822110067
94.3816548260526
94.4160658774076
94.4962392041834
94.5099720533787
94.32736095491
94.0275567010483
94.144020944155
94.258382963905
94.2298231816829
94.3291729682248
94.4720562010884
94.5593616531981
94.7579399721943
94.5042743845013
94.4018816536758
94.4904017495125
94.3626872645474
94.0913349437595
94.2408952576898
94.4896446338754
94.7173185634724
94.6210029408263
94.7833079984463
94.7532048397203
94.6450622984027
94.5766637803159
94.6640216432338
94.5955969316766
94.940197765395
94.8505610910165
94.5923500619333
94.7439165284407
94.821819669675
94.6184537673423
94.7226710276618
94.5676142611195
94.7511377812538
95.016056905725
94.8841658737559
94.7330414894697
94.5293976040245
94.1225857955566
94.0338419496171
94.0586097995967
94.2633870228517
94.0769742240355
93.869550872481
94.0000695712627
94.0875597819621
94.1877778613138
94.507518038052
94.2248430874712
94.0969986225676
94.3188258115007
94.58621003603
94.621465159683
94.7775846156172
94.7817612337288
94.7095673609652
94.580809169372
94.7561151251499
95.0019618680281
94.865665590344
94.6023771558846
94.6962891682761
94.7125532464267
94.7901177361537
94.9827207867282
95.1191933076709
94.9353521249914
94.8791337073606
94.9436322509687
95.1116300603797
95.0586681468207
95.021420087632
94.7131029823313
94.5248152763151
94.3968112854033
94.612071270829
94.9072567383569
94.9891705402359
94.9797818854241
95.0258586391817
94.7166681886004
94.3287337370379
94.0442490050524
94.2000491035892
94.7383872652577
94.908422867498
94.8502654045467
94.8657523499448
94.7820218275651
94.9061621400399
94.7175158159516
94.4771816526438
94.418957366193
94.3167635382554
93.7865848926858
93.351259983062
93.3622213086504
93.6088031526109
93.8598516613033
94.3387635822954
94.5077426551407
94.4461234705932
94.1910197012134
93.8248457379263
93.5003447917939
93.1943247592593
93.0293465356623
93.1218889559907
93.2051738879738
93.029045843121
92.906454881536
93.135671323394
93.1080256995432
93.1393572230704
92.9158049662606
92.8137547221775
92.6421286960651
92.6206059220782
92.6844788038316
92.6316398488908
92.48236502028
92.712393089081
92.8253581238543
92.423725940045
92.1366416485355
92.3151813694961
92.1725022551664
91.8660501703672
91.7018549908889
91.5994251628504
91.5206322011224
91.6107365337953
91.6603173711025
91.6600138394153
91.6343393942115
91.4904818334811
91.2338243355706
91.0401057610032
90.7146435072913
90.5730207636598
90.6623233356943
90.7198451320702
90.7780576910665
90.7812311550174
90.5651927617171
90.546265682966
90.389244726026
90.3171900642088
90.2554323022996
90.1157229272678
89.9353197574344
89.8943977261358
89.8745711799829
89.8530921776252
89.6385432119179
89.421228640461
89.3973859143217
89.4966562007023
89.3060996863565
89.0629186226929
88.9327723989498
89.005008724178
89.0299571097155
88.9695171659345
88.7872899555606
88.6599013372789
88.6360122478962
88.5982815906283
88.4644095498634
88.4302647000681
88.3271406312872
88.2163934632632
87.938729148242
87.7736230065906
87.8569085580757
87.8669684870025
87.6810818988039
87.4993331034922
87.4233977476512
87.3735654677112
87.2096049702186
87.1747189577179
87.1035865763393
87.0056269101851
86.7946069553794
86.7177631831524
86.6796340957079
86.6432550798605
86.580429833304
86.475787033164
86.3521817838918
86.3322237495399
86.2477021293346
86.1563022650049
86.050053839927
85.9457244470634
85.8442112736903
85.8142075939217
85.779889742336
85.7459992677115
85.5633435076673
85.4499428897913
85.3821362424876
85.1984478689166
84.9247379563839
85.0119388792835
85.0941011257655
84.9439612268227
84.8256327753317
84.8403383789794
84.6596380540959
84.4391940317989
84.2856958919227
84.3236916843207
84.3359871987321
84.3241535981414
84.1184206737476
83.9496725301166
83.9140988542113
83.92160759139
83.8320421052745
83.7557781890945
83.6497308260344
83.6028752880283
83.4656834687823
83.3305572537188
83.1930942533126
83.1547879702599
83.0782834302518
82.99617744669
82.9095126515888
82.9521360618309
82.9151378019878
82.8424929959913
82.7607894718758
82.7564852812285
82.6395549030166
82.5933666857764
82.5727903635785
82.4913612398177
82.3707333639937
82.3605714914716
82.2520087683733
82.2163593892664
82.1699969431249
82.1465561766701
82.0787842438814
82.0292377904218
81.841576667588
81.7932896095061
81.8183217804921
81.7303006870503
81.7208077774222
81.7582804495503
81.7594378460466
81.718129447071
81.6789811088465
81.6734016309748
81.5244191976611
81.4803345508401
81.4707899786441
81.4954015411271
81.3809034249646
81.3019267447477
81.2231562127413
81.2384017662392
81.3074348243383
81.3177398914743
81.2666279152331
81.2002909178057
81.1595190809144
81.1698719867225
81.1173806459658
81.0833653199197
81.0579994858574
81.0482373308521
80.9107908459063
80.8864460501469
80.9189872966731
80.9146960548073
80.8635649880829
80.8814492552543
80.8556537332559
80.8815253317207
80.8218208966931
80.8276316620792
80.8017052007656
80.8018294709892
80.6874859467928
80.6350744305496
80.7149146939031
80.755190073634
80.6956628456198
80.626950371823
80.5161453850568
80.5567345469654
80.6733709232844
80.6982087369994
80.6023452956196
80.5647474035625
80.5685441750329
80.5515157741576
80.5435249938975
80.7123039488685
80.7369265285788
80.6685195943587
80.6423335408127
80.598892256433
80.4955408474608
80.4802713233307
80.564936601672
80.7379690421856
80.6765266387163
80.5006880148691
80.4592343142939
80.6135252837371
80.7344930130017
80.7211230389391
80.6725048664121
80.681958794328
80.6781965587201
80.6980683600632
80.7320054274673
80.7953433850424
80.8224077503414
80.7695606040546
80.759430628062
80.871476150202
80.8851365479113
80.9123562999972
80.916625903695
80.9570133406917
80.9867988474828
80.9621677448864
80.99283669529
81.1245166733842
81.1392892441557
81.1293939361226
81.1208055757179
81.1691458003248
81.2344835235888
81.3196387503196
81.344684105152
81.3387325182742
81.3985338970588
81.5004442464216
81.5793676110396
81.6385813004118
81.5763528303839
81.6245248266532
81.6885767924201
81.7751733564438
81.8480926111126
81.9525625194326
81.9715716373195
81.9662602601694
82.0485182427356
82.1430824863978
82.1217544355361
82.1329978531
82.2346576877271
82.3858235486532
82.4484624775178
82.5097425664827
82.5765563627014
82.627092661737
82.7002684337748
82.7597410378843
82.7977096291244
82.8069367085522
82.7931690001587
82.9642970936802
83.1377886856218
83.1224706577103
83.1436466374783
83.1537684396946
83.2179666563849
83.3242469898009
83.377563143614
83.417315974123
83.5073654703121
83.5856254836626
83.6222870868204
83.6488783388172
83.6221958296145
83.7100235090221
83.8042744189585
83.7971360589527
83.7929648348692
83.869337659702
83.8779354471132
83.9604722478135
84.0840976307639
84.096564264901
84.1274638342406
84.1664329618472
84.2150857999435
84.2786240003117
84.3323286418364
84.3370750849146
84.3995996681597
84.4616584142507
84.4234262345409
84.4568286852223
84.5948172616957
84.6646998549246
84.6582382622974
84.6690165196295
84.6962731117647
84.7371133793855
84.752790191638
84.7412554770588
84.8233227369669
84.9427721601391
85.0377188480609
85.0487147094772
85.0717442066209
85.1179445927889
85.1695925231295
85.2662571829331
85.2876941008075
85.3780629383265
85.4455549816432
85.5053924766294
85.5859656085478
85.6234926060811
85.6526283610307
85.6594317719159
85.7205574931432
85.764102203315
85.7536834285515
85.8025874249942
85.9117303443729
85.9637663985299
85.987129459222
86.0642584848306
86.1704544808955
86.1503677672604
86.1252105962707
86.1239605055413
86.1684931927257
86.1713388377822
86.1764476094013
86.2160335037806
86.2867047094209
86.2916049206184
86.2974066931302
86.2960739811787
86.2496112530065
86.2187904794266
86.2385550373429
86.222345354163
86.2464643993766
86.2449978285405
86.2312889267624
86.1754241447608
86.1086702844984
86.0668407675069
86.0881352595329
86.0761724936525
86.0313702813322
86.0506210860333
86.0646779143445
86.0644594469183
86.1081496142869
86.0757438667189
86.0303652466137
86.0026856129295
86.0395137583547
86.0211086552524
86.0313488730146
85.9708551283564
85.9111118636866
85.8922797747043
85.8809535231783
85.8197590127594
85.7807312327143
85.7658779329992
85.8017529884225
85.7863847293899
85.7716144862482
85.7940548554007
85.7882677722756
85.7210093983065
85.7730321765592
85.8036418917504
85.8119398892538
85.9006078484213
86.0344129118234
86.0670269735999
86.1354613713613
86.1946674354514
86.2309463898111
86.2745103676147
86.3772356634101
86.43904466561
86.4932154844782
86.5104612966262
86.569341623461
86.580793861361
86.6613282446702
86.7863419494094
86.8393586345831
86.8195834842608
86.8245539182633
86.8438023226152
86.8982348416751
86.9446387649442
87.007335729046
87.0259957600177
87.0773289195587
87.1381846188876
87.1409366797857
87.1180246342693
87.1940845673644
87.2696063493907
87.3652593443694
87.4180663382754
87.4051312855052
87.3890671210626
87.4469920411217
87.5291064469512
87.5721085922731
87.5656374247766
87.664740655452
87.7472821097823
87.7817038369725
87.8274994876959
87.9010239300251
87.9576598564938
88.0427937282291
88.0955594079386
88.1496436124954
88.1547593041739
88.2447428388299
88.2907844253227
88.3181032483415
88.4110081690696
88.5140587809586
88.4803090528068
88.5245222232769
88.5797891469169
88.5936308964561
88.6395755415119
88.75007638425
88.7539020492916
88.7727637486466
88.819140842361
88.8626519598763
88.8803526904182
88.8936128884185
88.966752959797
89.0581477722608
89.02787269688
89.0204734596997
89.0416980866482
89.0846183142838
89.1162824698694
89.1493339190186
89.1512554918757
89.2058478062105
89.2110685856379
89.2298306731367
89.2999993436439
89.3586310906865
89.3241404098464
89.3436049229162
89.3776651704391
89.4357162875742
89.4340231967417
89.4709595956865
89.5148012093827
89.5522612753406
89.5445633842992
89.5332499508005
89.549812139503
89.6016847929649
89.5992306920824
89.6762991355717
89.7085896684906
89.682357281664
89.6546207510778
89.6882469747032
89.7312530611674
89.7811677971361
89.7958195624559
89.7777842895339
89.7897227708442
89.8666244753383
89.8371514522196
89.8564673539458
89.8550807231223
89.8862851358208
89.9132086332395
89.8805284542839
89.8776251096202
89.9907678586866
90.0445562269369
90.1032115856579
90.1193235125196
90.0630154792785
90.0078818499533
90.0797646570305
90.1639038040649
90.2137715210517
90.2123142070996
90.1996602698326
90.1800982543753
90.179169003595
90.1625281940291
90.2020517928364
90.2333924263063
90.2870389389268
90.3369275364066
90.3730417321479
90.3476986081502
90.3746927833444
90.3803090630047
90.3930211640907
90.3620587338763
90.3441124526971
90.3665865170803
90.4629111425919
90.4970346978695
90.4896872084492
90.4489658471693
90.46408786937
90.4953827877332
90.4974790342714
90.488431283495
90.5377292525051
90.5518543594732
90.5849831561567
90.6319311178402
90.6649555072888
90.6618776739104
90.6600751680577
90.6617122358132
90.7198369662895
90.7868880072807
90.8359222553001
90.8140530048433
90.8595523484904
90.8829487775701
90.8678916913685
90.8802237108184
90.9697457768231
91.0030014711873
91.0485847828014
91.0991426321482
91.1794433928042
91.1669543820341
91.1211129627546
91.1616801392989
91.252550289559
91.2291779675435
91.3246629644352
91.3915192518844
91.3721656647327
91.3629908702804
91.3842023788805
91.3476916381468
91.4203320183844
91.4961915506426
91.5684600402321
91.569712932149
91.6050133642565
91.623958399209
91.6204334216502
91.6232381043831
91.7360763775331
91.7669762842619
91.7226188930176
91.745957596789
91.8527568128076
91.8255614783324
91.8280860091545
91.8747351526786
91.9329529145744
91.8628405455615
91.8143438456007
91.8446947706554
91.9362602342462
91.9792299755945
92.0254008576567
91.9904107852223
92.0166692675316
91.9829526045525
91.9808481300851
92.0276468408146
92.1152387434936
92.0588172293371
92.0233036124781
92.0072722696736
92.0482863442026
92.0899645691736
92.1956277749308
92.2675005561628
92.2186526536745
92.1165594696662
92.1774574844199
92.1938298297412
92.1744756885957
92.1074776011242
92.1550228486497
92.1819557006026
92.2291753864866
92.2532709429903
92.3351853109634
92.3175095427312
92.3158092718783
92.3448656076917
92.290216579386
92.2373618149117
92.2757990896467
92.3150161759932
92.455463199577
92.3584748768273
92.2431277559875
92.2586528652776
92.2739668638677
92.3371011970767
92.4350404951594
92.4038810199111
92.4457056527309
92.4058152181719
92.3158006678109
92.2960618259993
92.3896635056714
92.4239456036132
92.3915277848094
92.4128319612558
92.5052695283899
92.4279704019702
92.3388974815672
92.2692648633535
92.3299077463709
92.4347326739049
92.4465816367376
92.4137080502567
92.4838551838587
92.4797648161695
92.5282843352498
92.5412235957985
92.4751595354192
92.4497931413049
92.4536941477395
92.4685882778154
92.5348515572698
92.5498501336628
92.5792772467524
92.5217345274927
92.4884699216921
92.5070689585274
92.5438169727975
92.5583934906476
92.6419357531122
92.609755334574
92.5718181560415
92.5619913715239
92.5766270867164
92.5450778960498
92.5882801234372
92.5615020258144
92.5156865409674
92.5327150625089
92.6003490125354
92.5172155359174
92.5047873452985
92.5283917849107
92.5367303569632
92.5340548030426
92.5247686318152
92.4451959636608
92.3677937732629
92.2639356187606
92.1935433526907
92.1776147267639
92.2116986988364
92.2894029909251
92.4269652851034
92.4929663062176
92.6541427762395
92.8095305935876
92.941988467923
93.0297174084282
93.0629104566739
93.0383470696747
93.0193264081358
92.9002578534376
92.872758040571
92.8238801980528
92.6495193838234
92.5935564358091
92.6348485315801
92.6234576559779
92.6946677428139
92.756483335012
92.8513000578771
92.9246971414227
92.873642584068
92.8094303290774
92.825714924692
92.7591909034911
92.6267828075879
92.4574480317821
92.4104709132794
92.3869659428934
92.4464713938951
92.4157045083907
92.3868520164139
92.4902606249256
92.5797555813121
92.5019517940154
92.4986799327464
92.5088289933337
92.5094040762143
92.5272491641648
92.6167507536764
92.6102918538045
92.6346140445726
92.6760870999386
92.7125898230593
92.7050893449899
92.7601485284948
92.8526761995921
92.8946579961514
92.8452879853391
92.9093622588307
93.060141557137
93.2041026165802
93.2051510609993
93.2071802375574
93.1637256795983
93.2877590478307
93.5513110185938
93.702754127639
93.6175044905761
93.6015917516304
93.6081744648877
93.7033071823941
93.7367404020904
93.7322330314944
93.7011983464231
93.8742101668642
93.9481304800047
93.8759650142418
93.9166830832076
94.1217644084254
94.1677754587251
94.2376957992844
94.2389821599636
94.4696335050636
94.6617679231279
94.4288649771632
94.2346073878447
94.4496624371378
94.467573738973
94.4898796616103
94.546745031377
94.5700406035944
94.4895263097132
94.7144567980902
94.7833635115806
94.9302996279442
95.113537942593
95.2572822859152
95.250843417422
95.2158755744852
95.1401604689813
95.2253491342975
95.3062189140791
95.4003816406326
95.3834275543857
95.6936478288406
95.7935230433989
95.6791198122225
95.553463733349
95.8240630289377
95.9459939323342
95.9906728469559
95.9091674522601
96.1852272100257
96.3915635359571
96.8125810997793
97.0404242027058
96.9574449071732
96.7692674555478
96.8977064732584
96.6443717168198
96.725691992943
96.8620187869222
97.2178343361
97.5617588572685
97.976180260627
98.1851294184358
97.9997967825313
97.2510306768047
96.9528005679778
96.8452695058473
96.7929222043656
96.6661486575192
96.3756552714634
95.9286826007052
95.7668874393422
95.629271029674
95.5729934444078
95.4355644114145
95.3632375950862
95.1179282128652
94.8779413995567
94.6725180962494
94.6810446050014
94.5835099372744
94.4370006266809
94.300631319827
94.3951652656725
94.5297211759506
94.4517968382803
94.2913949578862
94.3831656124962
94.3292403333747
94.171728202753
94.204635028672
94.3394660726139
94.451239181222
94.5812194473792
94.5534897259452
94.483752189226
94.4058196977526
94.4690947795467
94.4539584871261
94.4755935236604
94.5197395003757
94.5688412801572
94.6060922687496
94.6574687338399
94.6290596994607
94.7001406889719
94.7370975944822
94.7539717089811
94.7985881908753
94.962666944443
94.9849121713381
95.052460453693
95.0849705684229
95.1244139157858
95.2391685161055
95.439271085105
95.2792621380593
95.2875973890594
95.5861854165265
96.0018767319591
96.0485343357448
96.0482563758578
96.3587408178719
96.7020129242184
96.627914943573
96.7075112845998
96.9159916047856
97.1707953855954
97.4640579336192
97.9222529338392
98.0030972209437
97.7816497506358
97.4857327032967
97.7111177174947
97.6954076466478
97.6545428140183
97.3905691969049
97.2457594402505
97.2485424797074
97.4273755456161
97.4355555131009
97.3983047579348
97.1810034313637
97.4197418479587
97.5584889086236
97.2136393885179
96.6448051192519
96.4835109605494
96.6460807535626
96.894903669198
96.5746660617754
96.5123904950537
96.8240736597238
97.0997520968046
97.0252059135244
97.0734274396161
97.0421434227198
97.13610206142
97.1161875298234
97.5584714123936
97.7905899579564
97.6994002983937
97.4543333391817
97.4090867891753
97.4022244357906
97.3426945807747
97.2374533782856
97.0880451837453
96.9293302326151
97.0113104582978
96.5685307489996
96.2141631920297
96.244700731844
96.3500729273284
96.1812352933211
96.0472334837033
95.766069011375
95.674524676271
95.535306935269
95.5599398265381
95.5507603721499
95.5143594360216
95.3684132790495
95.2256631475103
95.2907652805769
95.3306681131817
95.210907168809
95.1472893141585
95.0153256964582
94.9564619105136
94.9519200525989
94.8438811535652
94.9118153149502
95.0268994947739
94.9081539294413
94.9171287652837
94.9112706523233
94.9509977336554
94.9043468824752
94.9012420878822
94.9071682728497
94.8721035255296
94.7490339095493
94.7643674910391
94.7807444096979
94.7903788234333
94.6686238305865
94.6568775271573
94.6892387205605
94.7623021609918
94.8938380538582
94.8858940518821
94.7075418549811
94.7337442911037
94.8358974905835
94.7902398813142
94.6225968219654
94.4137821567658
94.3521998707167
94.6026358709275
94.7071627230339
94.7290155867634
94.7258207553252
94.784930415342
94.7118254112933
94.7076199267674
94.7140131931616
94.7276559892218
94.6213054101667
94.4364303724208
94.2916791143746
94.2328323149681
94.5735160080119
94.7134226833038
94.6195827198995
94.6728782264457
94.6917648447409
94.5695546739151
94.3848707024073
94.386432328655
94.5450881061546
94.4859463786252
94.6286233950894
94.7289912250763
94.7473586430008
94.7641444364159
94.7674966936401
94.7326403501359
94.6262361468855
94.6065611221986
94.6315766626561
94.6529055377458
94.6305026308071
94.5100236002769
94.3889479679218
94.4471812708342
94.4785339916601
94.3760060357887
94.1846111003689
94.1164290368179
94.4042207560079
94.4849062572606
94.4443803567396
94.337269521487
94.3080063882401
94.1467962223217
94.2171710116123
94.1055597307367
93.9396844376246
93.5881795484145
93.4750569086791
93.705807066758
93.736592237494
93.8806499107659
93.6889682736213
93.4662776297315
93.4559844481083
93.4468713048045
93.2851366626075
93.3222203729642
92.877341786166
92.5366772970499
92.5832525599008
92.6398371838797
92.5984241584517
92.4136553835181
92.2821537981315
92.1110847989008
92.0069804839397
91.5891789518477
91.0100050844807
91.4507704755855
91.5308288546539
91.6313942454982
91.5306395936402
91.3929569967921
91.1754502069317
90.8952909159117
90.2043128131064
89.8706709900725
90.0995099599802
90.3281024506351
90.4075770821915
90.1704623724758
89.8265598825646
89.4945885172401
89.1415336366588
88.7564829128727
87.6797072743667
87.9166008483543
87.6948757494503
87.5876398386182
87.778124079776
87.3222211928243
86.8159449696405
86.286050924103
85.2676308392805
84.5285633820144
84.9845412826874
84.7191990837058
84.399712731836
83.5679744271258
83.0776299383744
82.7798770600902
82.1345149112996
81.77421636741
81.7256916039048
81.2623412865673
80.5599071344818
80.2403949823447
80.074900870004
79.5119536186061
78.6679641112589
77.2071728959901
77.40666850525
77.886352175701
77.2656262105533
76.8597548491627
77.0566810646016
77.0891761115186
76.7412861307021
76.1938291862161
75.466740316299
75.2561294583214
75.7970462595342
75.8498695690856
75.6360627075195
75.3664735134063
75.2771767796632
75.0338071900586
75.0917730300885
75.1845099637086
74.8786554522091
74.5468598471607
74.8641206428049
74.8916928090259
74.6848117763215
74.5408103123851
74.4406981808737
74.3505706393671
74.1755847272385
74.0528753254745
73.9210692487063
73.8203214009006
73.6772001672595
73.6120145377892
73.5730913885773
73.5686098676405
73.5136724915783
73.5302816722884
73.5003591217534
73.5591884610452
73.5062330374307
73.3997994207258
72.9551384692207
73.0573154674598
73.5546860408431
73.4200878954311
73.132222681402
73.3943629169228
73.5444440993443
73.4668723778427
73.2080044145158
72.0869147272071
71.8223926526456
73.0463396738392
73.4387822083791
73.6624415571173
73.8338878206641
73.7791900113482
73.9467746224913
73.6778541530167
73.4193862830477
73.101174323922
73.459462286827
74.6121630877801
75.2713541183191
75.0658211694732
75.4649730855355
76.0225744248842
76.0451614978672
76.0721317863207
76.2069863723434
76.3168302101132
76.2756939326163
76.9898784679902
77.2278567131882
77.5586117052147
78.0117020373485
78.0652589986519
77.9347028456233
77.4095476916647
77.7039739133401
79.2088925062454
79.9183580146065
79.9118897808917
79.8473737303971
80.0359971171273
80.6640567975439
81.1776144763342
80.9911783600242
81.0439927599745
81.6402883266302
82.1962108319962
82.5703286688479
82.6847791176493
82.7845749070181
82.7485718149102
82.3851772416961
82.0688326027786
81.6653352079725
82.0065758085506
82.1994167233266
81.7581940501217
81.1855334808563
81.1138750860419
81.0593514819616
80.3268718420164
79.3793275815153
79.3730160523307
80.1244373777891
80.0803120652182
79.9572777876696
79.6300408477761
79.6424875714027
79.6835571816636
79.646283905221
79.4768824649322
79.1716092551537
78.4915260887674
78.5630634956753
78.8140717153297
78.48376669293
78.1495558324613
77.9356380062932
77.6459595289638
77.1512817766687
76.8627811114019
76.2558506225652
75.7461735874244
76.0514646344279
76.080595961922
75.9527737113668
75.7429673669957
75.6282002596248
75.468690231754
75.2706003510074
75.2527378770601
75.3346774293914
75.0970650289557
75.0258510554106
75.0515167025578
75.0644862522749
75.4480571377409
75.5718869270903
75.3923150529399
75.3315487097382
75.6431466823972
75.7677191944098
75.7925792078121
75.8230661209587
75.8152727156004
75.7626653669736
75.7862191791755
76.1080230203892
76.2889864703707
76.4032890407233
76.5837253424494
76.6088935457205
76.6205765709204
76.9863114449719
77.3363010885973
77.5436411243532
77.688675595448
77.869237407519
78.026999872639
78.1714555603137
78.3185600499923
78.4734515434087
78.589061057512
78.6332091440216
78.5625456860946
78.6899828394912
78.9462673091481
79.1500752980624
79.2622211096524
79.3410207912725
79.408266468823
79.4834072200734
79.5625285828641
79.6350146994768
79.6502925403984
79.6541205233108
79.7241748930693
79.8404419544314
79.9247753305528
80.0108190765053
80.1112835619703
80.1879420385518
80.2742391004565
80.3681227751652
80.4249762157427
80.505512010726
80.5908198481098
80.6801332748369
80.7596773419063
80.840409840393
80.884684403838
80.9007650580342
80.9190893524711
80.9722409014752
80.9999340380948
80.9997917793747
80.9855600312633
80.9618346579004
80.903621922195
80.8356027301503
80.7481223771829
80.6552550170022
80.5707371278915
80.4826747014808
80.37509813074
80.2632935063536
80.1525794113349
80.0732865523258
80.0048260025319
79.9361313648303
79.833881968221
79.7384275701291
79.6779572879367
79.6292308939629
79.5497364087281
79.4667735767427
79.3911923166493
79.3678051811533
79.3558390396679
79.3414730950156
79.3335517983173
79.355028351064
79.3757719126177
79.4016396366036
79.4434364382453
79.4969232470891
79.5477967664838
79.6379561750409
79.7213360136071
79.8020977743733
79.8829381763854
79.9772522002247
80.0801555200411
80.2078373472943
80.3238307748692
80.4196144528258
80.4977337243021
80.6007675524124
80.7063135057424
80.8181912627216
80.9406995227487
81.0755822047631
81.1932521009187
81.2981108526429
81.3725806734699
81.4152399973181
81.4133288242415
81.3997794568079
81.3644171365513
81.2819337671357
81.1645181357505
81.0794753241057
81.0062409547138
80.9316227240528
80.8284446775251
80.7213915660779
80.6225468709903
80.5480722534667
80.4435353865758
80.3282679503777
80.1934092787579
80.0546350662183
79.9305191107319
79.8092997116611
79.6767735892441
79.5515778300426
79.4231468534392
79.3147181390513
79.1880196831974
79.0450429586148
78.8596362999902
78.6551471768419
78.4360924618557
78.1965135490104
77.8786559393525
77.513637869851
77.1649899880778
76.8446894535663
76.5392646464682
76.289523004602
76.0714857655192
75.900615321246
75.7599307384392
75.6449187118545
75.5437641499681
75.4620483839374
75.3737658052909
75.2754726987112
75.1564589219025
75.0281022223053
74.8662804364063
74.691021039463
74.4926358506815
74.2757453111055
74.0276056075203
73.7611036399528
73.474196902665
73.1959975100907
72.8724699224836
72.5322501658877
72.1810785233879
71.8444638920632
71.5282433875735
71.2488058759084
70.9825992118113
70.7249449986624
70.469327110572
70.2366064359523
70.0358277984643
69.8794463550163
69.6914867876435
69.507002355721
69.3536392513121
69.2300069343756
69.0760452655938
68.903318829228
68.7179969945613
68.575332566864
68.4433433546466
68.2775669751025
68.0999469121157
67.9501793864469
67.7900561477838
67.6532023894599
67.551255943376
67.4653756160262
67.3718965256491
67.3342938671403
67.3555323086377
67.4024773637745
67.4563098015838
67.5280061721396
67.6119572843773
67.7440591622184
67.860497519072
67.9986619300046
68.1926112732831
68.4278045472679
68.6872662821207
69.0066509151129
69.3242838462084
69.647631520352
70.0007883555975
70.3605226700418
70.6981880180942
71.0264963752257
71.3424574251652
71.6561433712515
71.947965258046
72.2443732243723
72.5386510174644
72.8214849918881
73.0762447244513
73.3251568523347
73.5337287829705
73.7302286001794
73.895860591706
74.064574997933
74.259562204613
74.4267559461615
74.5606301188339
74.7103018399429
74.8540001685488
75.0555890670721
75.2972155349198
75.5414106843997
75.7760936899905
75.9923627581254
76.1950295049886
76.4112576131448
76.6040045465692
76.7860523988198
76.9857331579714
77.2205628067038
77.4344229309502
77.6307254462654
77.809126946256
78.0038655745471
78.212320133073
78.4298949961099
78.619921412963
78.7902799651417
78.9513650066257
79.1304262451677
79.2912781369222
79.4455498681526
79.5614517128331
79.6676449251954
79.7852443622403
79.8973236241062
79.9653696131806
80.0444749018317
80.1396740282714
80.237704371445
80.3295341104471
80.4515094848369
80.5480014651781
80.6433439950948
80.7450032562439
80.7975276632708
80.8391111287894
80.9200644945846
80.981931766186
81.0476140762079
81.0965057373441
81.1195590306337
81.1586504200609
81.1984325715685
81.2184048464199
81.2752939266256
81.2803320008462
81.2243112899832
81.197045694691
81.2570297915332
81.2710575853072
81.2385509859422
81.2443764168731
81.2567419561668
81.2425523575225
81.2195164450969
81.1611816449907
81.1577051364702
81.1648352679914
81.1183716603302
81.045962467904
81.0187968257743
80.9754003148648
80.9153903219765
80.8276993695056
80.7297197579211
80.6212503273671
80.512115800983
80.4117943843584
80.3486901588006
80.2765512669255
80.2023212178797
80.127637651291
80.051326897684
79.927510100534
79.8230577920979
79.6962342000914
79.5799381391294
79.4894474316304
79.4040821049984
79.3099359516811
79.1780222054746
79.0342325595017
78.9664862306062
78.8615569230662
78.7544465270558
78.6759769944203
78.5956512135854
78.5209714108132
78.4904326744554
78.403976721906
78.2785013466882
78.1316544542023
78.0360224962881
77.94311279248
77.8769270384766
77.8177252577017
77.7453476856896
77.6347872212406
77.5749804026512
77.4808873665278
77.3606351360853
77.3116980420557
77.3033445168829
77.2346869863524
77.1541784624322
77.0793177334294
77.0114402722957
76.9029566822584
76.8318661436915
76.731468781349
76.6089855989343
76.5116001316382
76.4429909646134
76.3881087167805
76.3387329640039
76.2069396179726
76.0907548757655
75.9610850689517
75.8411811073139
75.715632563758
75.6607080427532
75.5744306829319
75.4661704569399
75.3153087862236
75.2155477691872
75.1172684725801
74.9945074568653
74.8396840045433
74.7372779554988
74.6050479202863
74.4958814997444
74.3333190899481
74.1924751150899
74.0652758679253
73.9363725611492
73.7687804877478
73.6144532107843
73.4578266048102
73.3194741445104
73.1497787469471
72.9985011960266
72.8377660767948
72.6792989893602
72.490405569718
72.3479293830739
72.2436382596316
72.1363402542288
72.0015496232264
71.9397681838005
71.8111796389553
71.6973579432833
71.5743546675409
71.4905140690738
71.3384519429594
71.2241507522655
71.0447389604424
70.9407778551423
70.7822403633354
70.7502433442092
70.4268904991158
70.4563160026429
70.5563390148149
70.218179224594
70.125161817382
69.9133688837514
69.7722806002183
69.6722303238873
69.5817029634143
69.4246714465078
69.2745631195541
