1798
3999.43349933624
650.420452594757
1
128
4
96.120555496147
96.0280251104939
96.026583893749
96.0590376123548
96.0399151120397
96.0510805887143
96.1629638037539
96.1659123882041
96.0893539021358
95.9861875909268
95.9599564216781
95.9739504292215
95.9689792904972
96.0267323514796
96.076546517674
96.0708721094323
96.1247653709556
96.1048066085833
96.0515413621557
96.0372642031252
96.0712501321227
96.0259992634383
96.0881203336454
96.1260134498845
96.0452776033838
96.0585839721496
96.0903970628195
96.0195054834367
96.0291793990236
95.9831175401487
95.9812552132728
96.0958917178276
96.1900805324687
96.1060323411444
96.024988975037
96.0709322365207
96.1165651176961
96.0715449043706
96.1039703316036
96.1837557580333
96.2311480215476
96.2122027906957
96.2031833565403
96.1324520345463
96.0658633367571
96.1076232914276
96.1580257832045
96.1213896164318
96.0882648652648
96.0162785342996
96.0479584771618
96.030362822848
95.9805095623769
96.0106228990528
96.1085786857184
96.236078507186
96.2687583889702
96.2190791880518
96.2410186896749
96.1598515904434
96.0987268713073
96.1280644516485
96.1543151191911
96.130320046084
96.1021032296394
96.0207855919149
96.0268057328747
96.0926697039692
96.1024911208145
96.1153918011718
96.1648123754956
96.2018273833364
96.2873055001403
96.2359919241699
96.151157011169
96.1272137340431
96.0663122214197
96.0135370300348
96.1979125609955
96.3388712821256
96.3588227581503
96.2756307358636
96.1214506401473
96.0672980638148
96.1046181600877
96.025363629848
96.0941497214815
96.2517725931871
96.3419054548415
96.4057301799754
96.4606174727018
96.3471003775312
96.1845137611409
96.0904406766921
96.106070946088
96.1571364469361
96.2223120886131
96.1990343771593
96.235998038939
96.3197474684309
96.4165267397365
96.3886149897586
96.231473919131
96.1263067153423
96.1708185633279
96.1481288611529
96.1615324576797
96.258954703525
96.3738894128219
96.4131990502701
96.511424095768
96.6010738401162
96.581651928803
96.4440923933991
96.3217048104311
96.2490813269647
96.2992170993679
96.3583529218345
96.3213450566671
96.3286615909543
96.4359391923657
96.4168576821448
96.4181178968202
96.4494881084435
96.4477082260268
96.4149232067294
96.3871132530241
96.3411402574459
96.367156064086
96.3869249094188
96.3456366541118
96.2296656620542
96.1873506791635
96.2980671701398
96.3927714004096
96.2873658309589
96.3505704126388
96.4324593975004
96.4574308135606
96.4113619345027
96.436996445473
96.4494896892654
96.3819217159717
96.4066998988939
96.5220124048015
96.6005030539374
96.6358379805887
96.6097122626917
96.6220265261983
96.5799783083525
96.5699554832524
96.573991831398
96.5223416086195
96.422384840435
96.4753019372119
96.5908642121403
96.6264859237052
96.5632693815902
96.6149500466219
96.72920502078
96.6835667030057
96.5315014534544
96.5427764238147
96.584030265564
96.5216114371634
96.3820698521781
96.4052700950623
96.5177080231418
96.6051684492982
96.6037538320517
96.5551676805928
96.4572045506619
96.3901593837065
96.3762395852347
96.4187662523988
96.5298701036727
96.6144113976924
96.5666887691786
96.5749769652948
96.5950653507605
96.4841422588271
96.3566286923684
96.4114131111608
96.3833746700202
96.2963845285733
96.2889989997014
96.2747012015739
96.1825980370743
96.2108143182114
96.3298572586368
96.3674003936479
96.2031308788318
96.0948662202624
96.0002673608397
95.944153136701
95.958025518759
95.9260550904404
95.8325510815896
95.8017389257491
95.8813200075629
95.998873630176
95.9341830591384
95.84077994553
95.7610373619555
95.7252078990851
95.593509877814
95.5012994470735
95.480212827288
95.3899299771278
95.2108384737213
95.1933985310557
95.2951756405958
95.4406295573801
95.4586844462854
95.3669117639839
95.2368257751363
95.1729099015584
95.1283357949916
95.0738625178784
94.9681577102317
94.8353879159392
94.7224645296533
94.8987822607785
94.8674404114679
94.6582345379237
94.5554533483771
94.5833366571163
94.6451733723773
94.5095022688232
94.3481495056694
94.4212437853944
94.4514899610449
94.4462443275147
94.3704967589974
94.2923978912672
94.1118109525446
94.0474627229548
94.0638042018735
93.9235955893501
93.6844496326624
93.6914374998421
93.6469130727768
93.5521159398799
93.5141838330507
93.643066810508
93.5559991340872
93.3596422251619
93.4056750854367
93.335231771306
93.1756590447296
93.5028416571875
93.5687706490509
93.3336275373351
93.4213312459615
93.4629071402059
93.0568447734318
92.9077015755691
92.8436098899303
93.0267208801021
93.0767119606938
92.5959419017403
92.2737820281142
92.3205973333041
92.3443544414603
92.5037729430771
92.6761170479478
92.5325169228519
92.2052572643364
92.1641959836931
92.5097569408678
92.7026471272992
92.5099548680363
92.0896095835818
91.655165199938
91.6045562425736
91.7738186166631
91.6427197247568
91.9340655845119
92.471292560587
92.1727471253256
91.6293744578421
91.5154630788854
91.6566730988436
91.5241831554337
91.5597460917141
91.5886135352813
91.4242145910894
91.3526282750684
91.1853631206951
91.05357029901
91.1698568936308
91.0752398093835
91.0034577191824
90.875897535718
90.6408574707833
90.7588708271578
90.9463972632977
90.6379779392532
90.5833796968726
90.8238022535743
90.8846475718494
90.6287125479275
90.4274314475025
90.394666274659
90.4364970232829
90.4019030069128
90.2149579984028
90.0217853331622
90.0729421012432
90.1673016220155
90.0586749127853
89.830207940144
89.9012848425378
89.9578948541784
89.9637076147019
89.9076578088072
89.776907663527
89.7481202158772
89.7183626763769
89.5651482330262
89.5614272319618
89.5730552146032
89.4970138611842
89.3842276969118
89.4597931866815
89.4690587779729
89.357631728693
89.2100210690623
89.1619523002968
89.227208346064
89.2625251648112
89.1748103187231
89.0827487482107
89.0571147418188
89.0563920815391
88.9379790257078
88.8095538386875
88.8016421011589
88.89617304797
88.8610962181767
88.7874299808286
88.7317776997839
88.6942497358683
88.6808299089229
88.7346289195068
88.6678884370088
88.5999071824192
88.5678535266459
88.5506927229344
88.5362335773105
88.5055976129723
88.346337731874
88.3258163285648
88.3645752602179
88.380683556682
88.3812220492607
88.3920803918518
88.3364009320933
88.3415720752955
88.3750462290389
88.3090442513751
88.2443239421193
88.2681384350319
88.1921488043148
88.1594441468813
88.1996596313085
88.248088446072
88.2336232124377
88.1438113648131
88.007010111953
88.0401445386355
88.1341119551487
88.1881793564942
88.1051141998473
88.045739542806
88.0174820511743
88.0381004834347
88.0855271532681
88.1075638791008
88.0882506334457
88.1570588416605
88.1418125084658
88.0864752936905
88.0402523411272
88.0256521312651
87.9379256870364
87.834695459587
87.8318752496
87.9220101449992
87.9768763729877
88.0108936935001
87.9396027019981
87.9184372671618
87.9276732127974
87.8954121473749
87.868959260001
87.9052841359066
87.9086606826908
87.8873712284919
87.9167505890732
88.0098696824845
87.9402773646474
87.9772957695458
88.0617121482537
87.9867535624625
87.9048471013457
87.9564720578746
88.0478521197275
88.1098218524214
88.0742045051072
87.9923712377907
87.9528271454733
88.004807917326
88.0444904313114
88.0422909259124
88.031902245827
88.0267389523247
88.0068325334697
87.9860540383594
87.9891802421186
88.0406964152042
88.0985776231931
88.134457714437
88.1024758575976
88.1365577382563
88.1700757761234
88.2451488467235
88.196669042113
88.1768464797459
88.1831550726675
88.244187036884
88.3712967961427
88.4180014581386
88.3610177628239
88.343494156726
88.2753637097119
88.3067703475832
88.387706726811
88.4310797312826
88.4065657825346
88.4487075151127
88.5206827816727
88.54234309047
88.5113661658731
88.5434818527168
88.5346534771315
88.5797498648405
88.6988415909119
88.8045973447668
88.8559487958285
88.9423061261365
88.8566654270834
88.7707238543685
88.8022964159726
88.8801350027093
88.9681913734859
89.052223537004
89.0538880613604
89.0167936654234
89.0289759985041
89.1249592097853
89.1916497802344
89.2015104578597
89.1669520677583
89.1749810384775
89.2596059817982
89.3483878085975
89.3325750543513
89.3341246379739
89.3673357087397
89.3315796509402
89.3588125322688
89.4886308725359
89.6253714054915
89.696702619394
89.6164589252219
89.5656794723605
89.5696385320283
89.5620127612272
89.5805024219554
89.6772745811788
89.7349587804413
89.7696203997059
89.7416206443531
89.705500108033
89.6820381677455
89.7627642691493
89.8055564277014
89.855153178724
89.9682281019281
89.9762369976264
89.9419327399806
90.0026669192721
90.075244390698
90.0763930932598
89.9707585313502
89.9483274155407
90.0029548242303
90.0543491247913
90.084180558347
90.154876111753
90.1735390337975
90.1790309949923
90.2243878981977
90.2810200367367
90.2359949654826
90.2369913578972
90.2270917977259
90.2996714224343
90.4110336316809
90.4090478733563
90.4095513010118
90.4866981515449
90.5450839212077
90.5704480784597
90.5848413050342
90.6208041876001
90.6267744713993
90.6493864383293
90.6979874600037
90.7417245973232
90.7272092546205
90.7419585250341
90.7759351450969
90.8379564608239
90.8606816377682
90.9154133290364
90.9075433872642
90.9073703385143
90.9424402138232
90.9880169789383
90.9617916974471
90.9448662842692
90.9612521960629
90.9944580382116
90.9749531520932
90.9590160801919
91.0061994302356
91.049154487203
91.0261750719899
91.0474694779692
91.0248628711818
91.0046378002003
91.0351893278915
91.0377475699588
90.9807580495145
90.9860947430969
90.9730939821088
90.940333115907
90.9054259032529
90.8541435608492
90.7607322124651
90.7562404328156
90.8518738925749
90.8596117532053
90.797514688852
90.7885768565468
90.76611502082
90.7610742249422
90.7402902639376
90.7711199624368
90.7850997206102
90.7413121233827
90.6621137568445
90.6565285847113
90.695356555132
90.6948963547895
90.6942483671305
90.6510964322571
90.5176066274908
90.4892673606973
90.4783839788331
90.457004894529
90.4697043213544
90.4792451671007
90.4669136315264
90.5412215497439
90.6004011477292
90.6342866771266
90.6238721183015
90.6391203952634
90.6916096005021
90.7062218363699
90.721223764024
90.7804744856761
90.8423790588091
90.886311045386
90.9486826815929
91.0032275427058
91.00732898995
91.0017963673374
91.0356890998123
91.0909465092786
91.1317152976815
91.1350316026549
91.1688227202162
91.189874421849
91.2135767033296
91.3070135107991
91.3029632509939
91.2706909309785
91.2813310776033
91.2599249537671
91.2924290771154
91.3792767139948
91.3817824263682
91.362426591001
91.415158577777
91.4264275985126
91.4140849862635
91.4738623136619
91.5177336752359
91.5415988400016
91.5764752519399
91.5781202634792
91.5218916023553
91.5232671015316
91.631165332202
91.7170379357899
91.724046956013
91.7300400060583
91.7547769651294
91.82819766954
91.9341866851729
91.9645447942241
91.9987916642774
92.0205871574257
92.0032342484
92.0691045371396
92.1527307347852
92.1265953570024
92.1179364720001
92.1535281247926
92.1401684354515
92.1336299497749
92.172136542759
92.2512589719601
92.296431225721
92.3074725703924
92.3541640693373
92.3690912354465
92.3785017238322
92.414959791069
92.3865290792022
92.3920378336583
92.4603582257266
92.5219476078425
92.5124441607147
92.4874501834929
92.5048868516268
92.5305460319737
92.5358198523897
92.568088149713
92.5949326030235
92.6258663085243
92.6121284757988
92.604114372479
92.6838565384349
92.7470277523304
92.7473294802905
92.7096636364259
92.740925096632
92.7812690383194
92.7890418638376
92.7788207644164
92.7261854056254
92.7275006841609
92.7727025808883
92.8479079074976
92.8867131998633
92.8973986881305
92.9237997783697
92.9696280086255
92.9614041039677
92.9392261516147
92.9005847186889
92.8573945723831
92.8766446509747
92.9536140428359
92.9867456432036
93.0014676652466
93.029119660599
93.0069926034554
92.9827580275914
92.984122714086
93.0272266240724
93.0460222766136
93.0536933606267
93.1050091612116
93.1449584319364
93.1712691860578
93.1420967248046
93.1292896457056
93.1456503285375
93.1629453805848
93.2246710908267
93.2630079628866
93.2439749578194
93.2376100589905
93.1940086150409
93.2077139710743
93.2502860154415
93.2242539241931
93.235435974206
93.2751355138088
93.2704870006501
93.2884685717566
93.2747992061797
93.2815924000467
93.3509289286851
93.4059458418196
93.3679100830814
93.3618596343973
93.3799303034395
93.3587059853846
93.3937838113955
93.4039695869533
93.3686408052736
93.3605796516919
93.3653355315229
93.3734382614565
93.3786437876509
93.3892550806793
93.3984546003876
93.4340896650703
93.4689856029501
93.4921464096264
93.4969149393621
93.4906804872541
93.4863761625352
93.5031698808327
93.5299149636475
93.5210444813708
93.5055353690593
93.5683202261709
93.6758711816843
93.7408726275911
93.7302077714783
93.7338004666968
93.6674301627055
93.58199218825
93.6921448112502
93.824728013921
93.8059965433099
93.85616504249
93.8851628990605
93.8625765471616
93.8661834247081
93.864753536514
93.8963950780677
94.0132202786772
94.1141528421968
94.038667881749
93.9272816536457
93.9196053431994
93.9254587161363
93.9850972367906
94.0252778909
94.0464704589988
94.0854037914408
94.0686887496006
94.0833457026905
94.1261997418059
94.1412160890009
94.1294050585766
94.1758811262004
94.2342994511108
94.2647338591033
94.2520961189129
94.2277968613971
94.261068445836
94.2527175989388
94.3070022554627
94.2994839516844
94.2190490477283
94.3632455932216
94.3906626842147
94.3097652183148
94.3623329464778
94.3827556275873
94.3824868120937
94.4417234653222
94.4484475898834
94.4145198569165
94.402094000898
94.4138903357088
94.456457288654
94.6026074162148
94.568136662036
94.455262335175
94.439802534575
94.4736682685893
94.5186324227563
94.5424629811301
94.5951659913055
94.5813981343944
94.5189494652343
94.5172755568075
94.5140120309338
94.4314232049313
94.4773260638278
94.6100948838221
94.5323335995225
94.53632131776
94.5934098117654
94.5522314532331
94.5487016024811
94.6077310148465
94.7494218919634
94.8373219743738
94.7421834650429
94.5923991538507
94.6100263135039
94.6233304876238
94.6151121066843
94.6455304662819
94.6319668556671
94.6919158430691
94.7169076827703
94.6967461204767
94.7201705206647
94.8182012056862
94.7405550560913
94.6454938436941
94.6701692866118
94.6655753040718
94.6913668221661
94.7112386422635
94.637347974211
94.6070634273338
94.7173934682517
94.7931434612198
94.8068529961276
94.7444884110711
94.6353715179739
94.6378954551194
94.7524157578182
94.8365386389815
94.9186841588181
94.9423612886549
94.8080447764194
94.7496432737518
94.7322768121909
94.7315299525251
94.8169730803493
94.8793817524848
94.8316104017287
94.7640990179753
94.7891033420597
94.8650516396397
94.8135141845479
94.7416012256012
94.7469175708788
94.7368782694434
94.8005136318788
94.8087096490943
94.7877213511561
94.78877615582
94.7925064404469
94.7651343234352
94.7413340225903
94.8312621809817
94.8987250455219
94.8541699053552
94.8172193874081
94.8425724523794
94.7435292702704
94.691733616603
94.7626426115607
94.7557744497324
94.6453796273454
94.5985105500594
94.5997583175565
94.6434057262232
94.7104818988553
94.7767726792426
94.8356529458559
94.9220864296024
94.9670952937109
94.9197673224074
94.9383670070087
95.0615903207348
95.1264042618642
95.0654546480067
95.0230110338452
94.964641522081
94.7505621073186
94.6078618833661
94.6794885475563
94.7939275746432
94.7942377116029
94.8077461828813
94.832950950698
94.8496037079595
94.7945924399639
94.812319331536
94.8685073975848
94.7935484362047
94.7048797774365
94.712948397783
94.7204976252756
94.7394497250052
94.7937203526579
94.7839857012032
94.8714103110577
94.9064875196001
94.8459104008911
94.8280383734292
94.8642789054415
94.974267828313
94.9496024305292
94.8266367669374
94.8509204755116
94.9565367964389
94.979242746929
94.9546676317626
95.0027620362649
95.0959783734559
95.0591204588137
94.960310229308
95.0237468989808
95.0943961424626
95.1430699042044
95.2724371841115
95.3311646229734
95.3639612047292
95.4322197746837
95.4947678666411
95.5200653370709
95.617169658019
95.7166705373084
95.6979937529431
95.5718826542845
95.6632666848495
95.6837915311702
95.6506991876566
95.8400154676295
95.9429721058781
95.9376707074341
95.9800950407858
95.9949133217119
95.9543096456549
96.0814649149843
96.2614005651183
96.3655291019251
96.3893563843579
96.310051236685
96.2873904281452
96.2287716028345
96.2717372124183
96.368960350089
96.4127644080676
96.5244893112322
96.5031937675099
96.2391793861093
96.2225273822067
96.5035105238837
96.7320593862874
96.7054411982517
96.929730599101
97.1531280474145
97.0861110551615
96.9274645602883
96.6878589641733
96.6123095353488
96.7416539889807
96.9254054184291
97.0460365239463
96.9261725155178
97.0468776052032
97.2516510101327
97.0875567039209
97.1572861544201
97.4211012483064
97.7553372546337
97.7489845131729
97.4989851647021
97.7778298550245
97.742328031614
97.6244099860622
97.9046942862237
98.2749209670018
98.0576698394962
97.7517670969443
98.0541316244445
98.425756436649
98.80838519354
99.1476525065066
98.8763635701878
99.0325222574914
98.8220661974683
98.4641222291859
98.0732266191602
97.7453030892089
97.842865581997
97.6793278585457
97.2948707684867
97.3778190541705
97.4621670859533
97.5013499645736
97.3418106281481
96.9101930867179
96.6812437558987
96.5865577136716
96.5062765360282
96.4684253491234
96.4164165717076
96.4904869615345
96.3804172535994
96.2189947910164
96.2151665408147
96.1106099308232
96.0632056598134
96.3611769698862
96.4967267228064
96.3902278706329
96.3760630380525
96.3346376581058
96.32421703684
96.3994016193659
96.4496329814652
96.4458299031851
96.3311617318899
96.3473356161294
96.2308488640781
96.2681968848714
96.5458647749905
96.5417477281199
96.3643101370243
96.3650913856405
96.4549594600596
96.503564141839
96.5846864978536
96.8204141763491
96.7973843331628
96.6309623377097
96.6302249846563
96.7979259607834
96.8468667348726
96.8772586553845
96.9890649346858
96.9380566120594
96.9278476242953
97.077825649777
97.1724593537859
97.3804113332054
97.5717942016813
97.985254932558
98.1652276142664
98.180399005824
98.0711126946811
97.9817908388527
98.0491478126079
98.154709744678
98.3108929052026
98.7173652661711
99.0977256637734
99.1832619689435
98.8371826864542
98.6920461625912
98.4361123520976
98.2080590265376
98.4029387251905
98.6390986092025
98.8108605847443
98.7190691668011
98.3386654283267
98.3075123472713
98.4106922643562
98.4585337808119
98.2480851544534
98.1348330228629
98.1583987178283
98.1118276971278
97.9091062934755
97.8782141278824
97.9571618627982
97.9900000181509
98.0344214944243
97.9659356223377
97.6707891453525
97.8738996887232
98.2624824692097
98.4399241263123
98.3411411701319
98.4909029300692
98.6041753787822
98.5459744334943
98.4757519228605
98.5570221140068
98.2421993529803
97.8447429637497
98.1599184373831
98.110211853134
97.6985150022827
97.8332875436379
98.0373781126204
97.8775485851707
97.7228513059447
97.6513773743436
97.4933826408368
97.3479431626632
97.2356237716195
97.2469029317238
97.1766914081237
97.1114481209057
97.1563459809227
97.082640062157
97.0779715125289
97.13314571551
97.0738587709005
96.86363374727
96.8809858460313
96.9959443906894
96.8798511866563
96.7209550074027
96.7941620389565
96.8390852017926
96.7284780071619
96.7003776211787
96.7010027706318
96.6302780944147
96.5991241739767
96.5943110749795
96.5505177199545
96.4813086590036
96.5322216990621
96.6493831239646
96.6680683094215
96.5622917135416
96.5177392319212
96.5065222832101
96.5104432573355
96.5027857606904
96.4922160144956
96.5299361897088
96.5653236356973
96.6452439774347
96.6610261434572
96.4899942887535
96.4135806983363
96.4613012999742
96.4271499896559
96.4007388080567
96.3969087742805
96.4382378015736
96.5095107866404
96.4827928189246
96.3910821500192
96.3943746209096
96.4321066915017
96.4253428188673
96.4498483069702
96.4499693144514
96.4312425925005
96.4490648397486
96.4943274152933
96.4484494702087
96.430197479317
96.4595286476805
96.4846448019035
96.4769316461912
96.4518199651807
96.4172797490069
96.3839364200173
96.4413579329779
96.5194770370093
96.5207194710102
96.5045979691535
96.5063964720876
96.5328838464481
96.5226237740087
96.473293510037
96.4568577343533
96.474219927376
96.425010366623
96.3746473395339
96.3932036317202
96.399534806417
96.37841751204
96.3470267130995
96.3167999827408
96.3015454481159
96.2680016351148
96.2688039032418
96.249017635528
96.2232936357119
96.2013214748307
96.1540885922646
96.0894163878702
96.0259112219536
95.9565931784981
95.9135772647888
95.8742792541001
95.788530787788
95.7456381038532
95.6890730243836
95.6408055267698
95.5811133803227
95.5187431661518
95.4456542657311
95.4098703121027
95.356624921393
95.2933819194539
95.2093564260444
95.1178880630956
95.0303830868225
94.9244909374146
94.8447105834076
94.8049221267407
94.7532981340625
94.6356978478149
94.4959896727196
94.4000456605777
94.288899521055
94.1993039260793
94.0967643177204
94.0414693982757
93.9741900386608
93.8747149777814
93.7056091077279
93.5195214894906
93.3744851312294
93.2292382268381
93.1060810129118
92.9932067450158
92.9017717664236
92.8110078216002
92.7075461744217
92.5249892144505
92.2905562440691
92.1116586098068
91.8847759268691
91.6931619439661
91.5523895800373
91.4141224569838
91.3033657336819
91.0699494541053
90.8251897170958
90.563626885087
90.2829433110189
89.928736229725
89.6552617988558
89.4271987241551
89.2567965850328
88.9701933416409
88.6258178440213
88.3210069970693
88.053604427525
87.7606932399381
87.4624735792508
87.2272571575339
86.9461170125307
86.6029295096068
86.2860633678432
85.9853391889253
85.7237538847468
85.3743887615665
84.9702044158642
84.7769329283896
84.7132806503041
84.5412534318959
84.3018005673817
84.0957022958353
83.9085824785638
83.6916745279286
83.4582152154702
83.18591325419
82.9966027277078
82.9695216687176
82.9202511206449
82.752885914825
82.5681371959236
82.4084242919183
82.2695531917561
82.1972242560007
82.1145531381255
81.9381677504609
81.7698552925229
81.6891777563086
81.6082058427058
81.5024950233359
81.3404110164978
81.1551095502561
80.9800702820374
80.8586638308375
80.7238901935882
80.6051666264827
80.4898081700025
80.3521202031854
80.2194439785057
80.1417492530704
80.0852320655127
80.0344930878803
79.97932417383
79.9344082203597
79.8619978560777
79.8291187948804
79.8155492489104
79.7128507566846
79.7214833744225
79.9153556359333
79.9760182376255
79.9023391282779
79.91341561652
79.9630650886996
79.9929384108651
79.9873637269021
79.8110416194318
79.7048886874542
80.1121671242777
80.4385188139198
80.5973374178407
80.6827850658142
80.7211151394372
80.7694363817744
80.8225903931185
80.8956005205706
80.9805568612458
81.1096689289672
81.6334934444219
82.1509721204143
82.2962680154988
82.4098296350869
82.6668046087765
82.8729348315191
82.9841984173037
83.1799890674178
83.3374852904443
83.4733905994477
83.7993147822051
84.0919990411724
84.2969762068064
84.4682569964765
84.5510937837099
84.6550493335533
84.7282550362837
84.7647717138643
85.2176756178383
85.7153182568161
85.8982553689444
85.9706766688598
86.0569171558313
86.2659496353627
86.5725993952581
86.7378199793969
86.8174801909307
87.0143409242556
87.285112874962
87.486495122578
87.6073162517071
87.6947621509596
87.7421221341406
87.7315039363313
87.6667228928201
87.5754856056909
87.5181831318201
87.4845299137645
87.3396723014626
87.073860378133
86.8294899894506
86.6536288971787
86.4748362123036
86.1686562930443
85.9510120939199
85.950387638834
85.9441309809185
85.784490410921
85.5949278232635
85.4590023856297
85.3915965426289
85.2759698731765
85.1672149870845
85.0436194312435
84.8473837214422
84.6934534616713
84.6290530745356
84.5340016495182
84.3362480777296
84.1335809437282
83.9340990506565
83.6883950295457
83.4247428618663
83.1471398014183
82.8722357416054
82.7128510078238
82.6078459534397
82.4451314654892
82.2703300592604
82.1016939223071
81.9627006741199
81.839374654571
81.7526297877879
81.6957974287679
81.6022257930204
81.5478087676792
81.5420063231616
81.5141171817523
81.5333496534454
81.6076411878948
81.5797495900702
81.5178823911989
81.5563762333767
81.6164219214443
81.6364354831867
81.6599533408462
81.6896923150148
81.7185150969983
81.75164761188
81.8351665205569
81.9681575353318
82.0657705125908
82.1616999600293
82.2806414805096
82.3769879078667
82.5097597447283
82.7158527640403
82.8691743705399
82.9844142395531
83.1179437730028
83.2466468100032
83.3648182183952
83.4767529136697
83.5858882362301
83.7030558660238
83.8115558831683
83.8900175223098
83.9713889438295
84.0883813398071
84.1932779433115
84.2874049207176
84.3744307004902
84.4380608131693
84.5085864498838
84.593130947475
84.6561190417799
84.7106420777105
84.7613752358742
84.8106008923317
84.8710918091924
84.9189934673041
84.9615639363748
85.0265035056286
85.0785125410228
85.1138425554754
85.1623154801283
85.230188864546
85.2913626535091
85.3402514338208
85.4099451364035
85.4758684930105
85.5140809661741
85.5408478699974
85.5764887542888
85.6232615026262
85.6583499122016
85.6793076393049
85.6707769087935
85.6529967467317
85.6556852653769
85.6598008144376
85.6359128126181
85.6019370038686
85.5560918967287
85.4960016730285
85.4402259834371
85.3976188968302
85.3601624022142
85.3058276232387
85.2385988608392
85.1864454447371
85.1552100088609
85.113734318859
85.0497219953584
85.0037707686698
84.9826489359892
84.9615723676529
84.9370211448868
84.8994326672593
84.8606481722725
84.834059933215
84.8088123017919
84.7932252704959
84.781535237596
84.7908356285882
84.8049097935864
84.8254805465302
84.8626138409627
84.8992330125678
84.9547691902988
85.0131602546004
85.0509960366216
85.1000135567387
85.1662092715304
85.2338795832124
85.2956098668864
85.3604108708671
85.4178506738088
85.487480333133
85.5781122191218
85.6464913768302
85.7005003692995
85.7713071850607
85.8668910741991
85.9725882223916
86.0487049707005
86.1185524718807
86.1781862485809
86.1890934750719
86.1788520133668
86.1829155094016
86.1705773831623
86.1227551954593
86.0566401602728
85.9887550874206
85.9319864759335
85.8975851339122
85.8406402427078
85.7670616133315
85.7082879965566
85.6441791195668
85.5587864801675
85.466483320631
85.3709563017823
85.3008008212918
85.2302740676423
85.1219468561583
85.0170427592854
84.9189438521234
84.8226209693097
84.7069398497384
84.5749102724996
84.4585713333815
84.336089862164
84.1941841622133
84.0416059492202
83.8655744862985
83.6423698617626
83.4146655782405
83.196200780154
82.9778971323132
82.7737261636722
82.5893597468485
82.4147374380916
82.261328932617
82.1334477339391
82.0255604201961
81.9328162280522
81.8462865584369
81.7630547982835
81.6604601219103
81.5259180455107
81.3814202879485
81.2208684401661
81.0653287654652
80.9026473167314
80.6949169283807
80.4819316890735
80.3022048121305
80.1113857593377
79.8977029520931
79.6791191214901
79.444868922012
79.2058248399527
78.9983056961224
78.796219917342
78.5927001352421
78.4038533738844
78.2275421268475
78.0848032123539
77.950062235365
77.7724728498451
77.6203936421426
77.5000804035666
77.3815542977543
77.2708375777589
77.1682929795222
77.0640876131369
76.9504071950039
76.824595623696
76.6958206979683
76.5789212851851
76.4713282708486
76.3729024609747
76.2737843686223
76.1693747059935
76.0957384107036
76.0587450494891
76.0163558341376
75.9638171645125
75.9648214477588
76.0004971744696
76.0228664548835
76.060073545622
76.1001139593019
76.1300283478035
76.2267230656977
76.346101829553
76.4560451050134
76.5849024467384
76.7188802119987
76.8833176211123
77.0910861506088
77.261791165539
77.444683850043
77.6684798374359
77.8654785931279
78.0543654690343
78.2673871463416
78.4878342498544
78.7177661880768
78.9359862713355
79.1482965173955
79.3482168464429
79.5419651428056
79.7460833076501
79.9323938136669
80.1019331121573
80.2982658645204
80.4785277656283
80.6114697714525
80.7380184660824
80.880966492573
81.0469225871689
81.2318855822388
81.3833959524963
81.5269153683148
81.7011788174801
81.8636353119867
82.0029565960144
82.1502953869943
82.3332792669079
82.5220880996266
82.6424815532601
82.7365450193227
82.8521781776688
82.9986241464799
83.1702037791117
83.326565560872
83.4558661812269
83.6091016787488
83.7571165624313
83.8811830869177
84.0164130114209
84.1513774571452
84.2413769058803
84.3185736710784
84.4429694870557
84.5558040370536
84.6255027651837
84.7221584484782
84.8151228039492
84.8913601863288
84.9315247957197
84.9684489810849
85.0705954187273
85.1521503087931
85.2126259113642
85.2867719690035
85.3398155994735
85.4273211903369
85.5202595973756
85.5672325723312
85.5880010143966
85.5871871152379
85.6112603130335
85.6387746254378
85.6475358870332
85.7161172124866
85.7599577401392
85.7563611884265
85.7885597414677
85.7948180742925
85.7900703691029
85.8246939513429
85.855353904485
85.8803925545878
85.8676359451343
85.8368933606578
85.8160328970736
85.8146701398637
85.8360929837149
85.8737898684649
85.8717094476111
85.8239815609785
85.7966224747704
85.7864724619864
85.7633290001572
85.7490242049439
85.7188514267743
85.6626900998891
85.5851212830692
85.5139872775527
85.4555880770515
85.4060128637102
85.3346988494035
85.2972053320081
85.2539460001421
85.1556301613391
85.0918301134761
85.0760408853457
85.0199780652097
84.9737054202088
84.8948135878453
84.7887039826569
84.6840110359675
84.6156069896115
84.5694280057787
84.5298345508384
84.432978300361
84.3045899253287
84.2161276499296
84.181046324268
84.1179377801797
84.0515320925998
83.995660659387
83.9440668905323
83.9042869824698
83.8432961885299
83.7862083002639
83.7486883162908
83.6835863146722
83.5916178326544
83.5171662390956
83.5120670605429
83.4642703581316
83.4081781992574
83.3608061580086
83.3180503485334
83.293377760801
83.2798969299982
83.2367939513106
83.1627051889405
83.0973817290708
83.1154523848983
83.1064326239124
83.0469930267048
82.9867047467311
82.9259692574733
82.8615858697698
82.8263318987224
82.8067729988003
82.7539821703835
82.6846953498337
82.622382229705
82.5604277120541
82.4955793139664
82.4209818232097
82.3558544654429
82.3053609498324
82.2276436479832
82.1544658052106
82.1287292878756
82.0453542990452
81.969478062115
81.8809861563458
81.7508282183756
81.6838254818419
81.6520533824676
81.5283371767261
81.4248365751031
81.3182413232276
81.2481696710092
81.2043762039061
81.1333828150604
80.9952614102925
80.8582933368594
80.6986156679311
80.5915942541514
80.5056306323919
80.3866862097627
80.2785447013054
80.1886843977456
80.0909043091273
80.0132348993208
79.9283165528658
79.8870966772812
79.7786326652547
79.6939587095978
79.6651067384542
79.5819734699051
79.459543734504
79.3794821682292
79.271031486464
79.1753799938136
79.0979438059592
78.9665688327304
78.7919855729316
78.8779238388778
78.8604257087807
78.6213810687462
78.5027734215285
78.4139069030143
78.2942713952897
78.1838886019381
78.0475926513508
77.9923178175496
77.934448101986
