1798
3999.43349933624
650.420452594757
1
128
4
96.6395476093445
96.5961745652721
96.6384186290105
96.6407271276363
96.6471904108026
96.5899826129918
96.6216975507489
96.6264660815969
96.6333028234447
96.5303374544235
96.5714765412143
96.5673671578956
96.5250820779532
96.5208644958987
96.59934462602
96.5710833288846
96.5885159292321
96.5737265789771
96.579052875499
96.5560900689379
96.5351797363686
96.470277111765
96.5846793750942
96.612472242985
96.6446425292141
96.6342782456651
96.5702639190103
96.4995035534025
96.5090046585926
96.4888028455219
96.5754618407818
96.4824260766096
96.5036516991504
96.6232704517546
96.6027360051675
96.4646186978703
96.4907368711524
96.5264477042036
96.6030266911657
96.5765258099845
96.6254110931341
96.6182471163712
96.5866531940359
96.5827598816246
96.6737462420415
96.6064811181558
96.5612294034361
96.4833409495974
96.4789348686538
96.424524774113
96.4210159612758
96.3762252132986
96.4286554711224
96.5270751206589
96.5604944573944
96.5163767660209
96.5947432836493
96.6416314784046
96.6627750936219
96.5845202835791
96.5946147014196
96.5210481234496
96.5270508757137
96.5345792553873
96.6209638590753
96.6355171274019
96.5852892997254
96.4614009796516
96.4763839256956
96.3556466533654
96.3394331442363
96.5510882104584
96.6750029414638
96.6121466825449
96.455644898519
96.3090765061057
96.3125124345893
96.3402568308442
96.4755085211556
96.6342677243678
96.8252761802731
96.7623711147082
96.6704778832233
96.5137245284038
96.4641222853128
96.3949886378604
96.4180593368857
96.4568960749257
96.6113757486936
96.7848202380215
96.863958828414
96.754792986444
96.6694804735295
96.5198286998183
96.5289765822779
96.5330869774356
96.4665498082133
96.5020302773707
96.6835925037442
96.6762697777891
96.7218983660685
96.5831996249557
96.5888320528199
96.5377954491475
96.4725871884882
96.5426807811907
96.706682978519
96.7632330282362
96.8052008405351
96.7394435427782
96.8049177484466
96.8358436009906
96.8534813904739
96.7821952015862
96.7699736412182
96.7041635087114
96.7097602949446
96.6758227088511
96.6230803178598
96.6568067189906
96.7830720837835
96.7327765480804
96.6825055194742
96.5717139070814
96.7024828327208
96.7292455381516
96.6808141857427
96.6128936699651
96.5727605191783
96.5756264385761
96.5651906804251
96.4597659187938
96.4815752709731
96.3704497037921
96.3042736747717
96.3771243542099
96.6136128687509
96.4788210515578
96.5599113296081
96.630052853013
96.6094457228565
96.5159891276661
96.6316603434234
96.739130812447
96.8122745968579
96.8221743343657
96.7649290672562
96.6794671192943
96.7690565571535
96.7633694892755
96.809158840307
96.7759564152325
96.7294603819854
96.6032275251384
96.6147894169862
96.7510389215367
96.9020931926167
96.8978901452425
96.9425861582227
96.840918608819
96.763528386437
96.8120300731524
96.8235347449208
96.6386393940847
96.5991554093294
96.603440104103
96.7207874312995
96.8121451350601
96.8723709342607
96.7303548891852
96.7091041219543
96.6794014678286
96.6444117970714
96.5235204512469
96.54841191841
96.752605980281
96.8526103293253
96.7881808864499
96.908030405024
96.93680993219
96.9704093894308
96.9154097938731
96.6800787323025
96.4558020488488
96.5339388939181
96.5448605949512
96.4830154612968
96.3941810367015
96.4759798653834
96.6190637411263
96.816322848284
96.7425490690031
96.7066141338922
96.7396749718457
96.7537993254347
96.6117606049634
96.5387758757437
96.4328849325882
96.4623762535577
96.5815574504136
96.6817180142675
96.5480488921652
96.5450170939756
96.565356137589
96.5269022313301
96.3837189629065
96.2857927135769
96.2274357301292
96.3781831912771
96.433089296751
96.4054257222648
96.4516861655784
96.640471274116
96.7992890740768
96.8053308279783
96.7912659977003
96.7404698849928
96.4699768307166
96.4262514823738
96.3417004021798
96.2944272973513
96.5690430161045
96.6755357355429
96.3373192037681
96.3971307788006
96.3411985999102
96.1741179035956
96.0313094975403
95.9555629837285
95.6036231194238
95.4171156921949
95.6497336215448
96.1241005310043
96.6412774037964
97.2089392659834
96.9154169687176
96.0569769162429
96.1635297623699
96.214955442165
95.8021972394701
95.5618084644711
95.6489098413826
95.984343607496
95.7824271601889
95.83235781969
96.0329391278224
96.0810609077163
95.7884909933607
95.8883174434724
95.9658839600581
95.6820938216559
95.3267376414119
95.4101062623243
95.540771047011
95.527973957032
95.4838027913106
95.843585882317
95.7719040210373
95.405223387935
95.8280559800425
96.2741313389291
96.025649333655
95.9009472885264
95.7802930660795
95.7041995707989
95.7186694613524
95.724211171848
95.7785529825492
95.8840844442123
95.81277383618
95.5948354690833
95.4367639456317
95.6434410487582
95.8240248110668
95.8244987007983
95.620725848614
95.4420447155805
95.3700366436005
95.4535348126729
95.5223960027955
95.5979523731478
95.4054237293206
95.4725139629836
95.521440530825
95.4371223794335
95.321364861973
95.3729957866552
95.2827874797591
95.2341644157386
95.2002524559751
95.2281118935608
95.1672933551069
95.2529564111075
95.2525104131964
95.1599210216737
95.032380422597
95.182075975553
95.2921463964421
95.2467211310909
95.1834722324779
95.2008437932483
95.1163752459729
95.048269257501
94.9877646846302
95.0343576649823
95.0122927955399
94.9979760619785
94.8826047561446
94.8092998069269
94.8201861021699
94.8800672240422
94.8851327933097
94.9228119158036
94.9310843210566
94.930471139633
94.806466007652
94.7389994339699
94.772186520664
94.8492154644549
94.8635851261579
94.8942435833333
94.838046691669
94.8183635897511
94.8075764562218
94.8154559162979
94.7298802274829
94.7206741826802
94.7314561471582
94.7311597849951
94.6799354120028
94.6994377364024
94.6572229457815
94.6193416799915
94.5640313503614
94.6482252397622
94.7222236366453
94.7602482029198
94.681210111534
94.6274670586008
94.6273142076301
94.6094565012438
94.5178612790052
94.5140342486949
94.494616379708
94.4953770559863
94.4922801460387
94.5942020457366
94.6385777320187
94.5323997739045
94.4263757160187
94.6250794223003
94.6308356618857
94.5360555175729
94.5657938769085
94.6108823497375
94.5183839276877
94.4991876237361
94.4967132259137
94.5157709487826
94.4740905642463
94.5326711097237
94.5554066789703
94.5624257641919
94.517252213108
94.5287115629639
94.4728378418368
94.4404686643728
94.4412869537018
94.5216970947201
94.4535013493521
94.4383708257588
94.3533428908675
94.3151936708105
94.3576946066837
94.4428076873332
94.5471170814694
94.5972998641227
94.5142732124547
94.507463616614
94.451591884065
94.4064262129355
94.3920762598684
94.4947427983984
94.3903683669774
94.352931713699
94.4389125177878
94.5279170948472
94.4639035309861
94.4326053254132
94.4422263266074
94.424707661232
94.349228421373
94.4008638718786
94.4004952630996
94.3974109039302
94.3899466285102
94.3637613596131
94.3440824727353
94.4610604660543
94.4454297340772
94.456982384351
94.5294520335105
94.5457670664812
94.5148903549838
94.4414536886634
94.2920434594424
94.3858797304952
94.4764059202625
94.5124006140169
94.487156410148
94.5117382806527
94.542141483826
94.5407353046809
94.4260421605954
94.3212325076655
94.3109026249656
94.3951681253775
94.3608771253912
94.4019836091345
94.5046529164965
94.5620037855613
94.5583534783629
94.5286080281831
94.4247857757553
94.4157776140502
94.4524509067872
94.5114124795045
94.4283695075911
94.3903550229924
94.4232995162092
94.5335458512289
94.4800219302118
94.440697755514
94.442679445203
94.4235631280737
94.4494451139193
94.5362282854098
94.5152842015984
94.4744921328418
94.3239710984953
94.3853617629982
94.4855206219662
94.5695890635166
94.5221788156441
94.4102615651735
94.491332395269
94.5750725200407
94.5097792726449
94.5246650235218
94.5433658052336
94.6282705189287
94.6398715884173
94.5560283840683
94.4638641625426
94.5205487178979
94.6183164234209
94.5810914091243
94.5302707402999
94.6261001475771
94.6591777053615
94.6349807681747
94.6046236332429
94.6933192838315
94.558944647686
94.5218933329243
94.5961767394647
94.6715028878061
94.6238782274432
94.4853832657726
94.4436345278939
94.5712498589504
94.6470310220605
94.6814473050538
94.7254571475873
94.711957565553
94.6746258373
94.7808476890046
94.7652475597261
94.7480995422966
94.762850958904
94.7489973998651
94.6853452840666
94.7176998960868
94.737694954536
94.7353582494804
94.6633664296358
94.6259184352676
94.6592111567973
94.7335602864953
94.7808481812433
94.793112292187
94.7579971918436
94.7779256218309
94.7700064290807
94.7900523663421
94.8321330232194
94.7705526213277
94.7315504042097
94.8134755899918
94.8207902884943
94.8670613472972
94.8267171434005
94.8016206830793
94.8160392503815
94.8393327748428
94.7671553518873
94.7624370909671
94.8412169248131
94.8871355806264
94.9259875183169
94.9136035193386
94.8675936012494
94.9075477159807
94.8801020288858
94.8829897694913
94.8697579861538
94.8410572094266
94.9126519269568
95.0032468234785
95.0023119576214
94.9721640309897
95.0215562702951
95.0642938072719
94.9659466320553
94.8285202456784
94.8036197346117
94.9299654841441
94.9833396488537
94.992392384623
95.0160680668477
95.0230828512746
94.9816544086415
94.9575832703927
94.9557398035135
95.0255763062085
95.0040815103084
94.9667091471299
95.0462485729938
95.0687566441332
94.9883197770725
94.9502908522761
94.8791733072482
94.8756792670853
94.9390731059098
94.9437457244111
94.9186410735966
94.9743924227929
94.9724515257348
94.9709988802234
94.957324905378
94.9324451558279
94.8961719582502
94.8759478134991
94.8356560304347
94.8754041497279
94.9164024561222
94.8721450164409
94.8678492900275
94.9607100433186
94.9403262834415
94.9000025630149
94.8805644597176
94.8954322004904
94.9422017674029
94.9641322688922
94.95221462634
94.9603523365398
94.9272707177187
94.847574285868
94.8292860078836
94.9190109616721
94.8969160441498
94.867782704414
94.8852193611047
94.9127724080245
94.9143707282145
94.8933909529112
94.9005452605276
94.9191121187504
94.9152702705995
94.953205591666
94.9567452155104
94.951717488169
95.0015817497194
95.0350269767598
95.0074996759714
95.0594794866416
95.1189956845748
95.1371951101791
95.0938065294043
95.0602808092183
95.0911571293226
95.1265821511006
95.1530737022027
95.1396935499618
95.0910741676217
95.1472086035373
95.1676952008516
95.1355679516596
95.156954920779
95.1776042064636
95.1761364647531
95.1770204916548
95.1924205264356
95.2410275421364
95.2380058056822
95.304106984424
95.3674716754196
95.3169489770045
95.2481483428198
95.2736841834199
95.3312568519411
95.3585530024252
95.3603378607118
95.3889087804694
95.3936319795776
95.3946373357063
95.4151697921001
95.4221211444365
95.4424456883266
95.4878621347047
95.524084396624
95.5617124733349
95.565128240092
95.5254696351634
95.5321017915696
95.5746477642668
95.6129779763657
95.5908317644158
95.5689247401053
95.6008606513883
95.6139408879114
95.6156895742265
95.5856911676678
95.5580223563384
95.5965121949475
95.6052260282789
95.6092022899081
95.6964059350547
95.7208540529261
95.6973363352381
95.719127762181
95.7406420402783
95.7354375881487
95.7250753147811
95.6991377385255
95.7298328966178
95.7510337434707
95.7779834644697
95.7969600002659
95.7503296118104
95.7457479076101
95.7895826497788
95.8073661731461
95.8078807801368
95.792290799073
95.7957549326828
95.8409167408558
95.8845072782039
95.8554923616854
95.8268998158474
95.8665688009319
95.8863160817264
95.8509223669398
95.843322909411
95.8494183555931
95.8410597228123
95.8497904103918
95.8351798027581
95.8610037961832
95.8664860073594
95.8783482408476
95.8901635217234
95.890946704746
95.8836432439484
95.8671270992834
95.8773283426907
95.8928486082771
95.8831836818618
95.8595214147741
95.8196543434342
95.853272560345
95.9216027895869
95.9553948815933
95.9256921588924
95.8774650454349
95.865895352417
95.8739100164018
95.8939127355693
95.9440836922785
95.962587925726
95.9351572048017
95.9368781289034
95.963181944848
95.9397157757135
95.8837928311802
95.8857518737648
95.9031471236525
95.8851998901694
95.879789037942
95.8471483400721
95.8265624685398
95.8123614398345
95.8548158742811
95.9190852936775
95.8953511932309
95.8272541971903
95.8146570729336
95.8249188873092
95.8322063226909
95.8286778242001
95.8006735159493
95.8146891438549
95.8481924299896
95.8317132890267
95.804126085495
95.8140782910832
95.7862826006805
95.7306577699997
95.6914275535202
95.6972280153482
95.739976634654
95.7464017924807
95.7214963668509
95.6988975141002
95.6671345792467
95.6907646439849
95.7153411026175
95.6593502439902
95.6673020750211
95.7192240970987
95.7377422469269
95.7695630269085
95.7549241621458
95.6506737059647
95.6901808742622
95.8091017278347
95.7411806029036
95.7152065667063
95.7547120018007
95.7170071971643
95.7385717021786
95.8249889045857
95.8548405655703
95.841101212308
95.8318408270248
95.8102243101184
95.8606009345695
95.8896096042843
95.8714384466233
95.8005324481592
95.7842875934254
95.8621551734329
95.9042262705149
95.8562504059485
95.8122962571154
95.8662054794309
95.9733405811695
95.9865443834556
95.94206026548
95.9048004419229
95.8928779281323
95.9550388108437
95.9596268996221
95.8929895405106
95.8936953705533
95.9764242083715
96.0606290674942
96.0521455545676
95.9583344942891
95.9202262489561
95.9728249071034
95.9796221991886
96.0081384354326
96.0153894635404
95.9964269934194
96.0294378977395
96.0958089243121
96.0530807250717
96.0371477058131
96.0944661858625
96.1740696337225
96.0907546884815
96.0161495964412
96.094268582699
96.117474781612
96.0828201383408
96.1513326471963
96.2115656298496
96.230015111933
96.1396936821265
96.0580643269277
96.0984318965886
96.1656171117714
96.1679263764398
96.1770316250059
96.1366177187802
96.1401472494417
96.2144977687109
96.2343225064992
96.1996226660083
96.1764864010907
96.1747703529683
96.2045345293487
96.1066148781119
96.1216341807712
96.1727158273951
96.1996966170851
96.2323535601516
96.2076476099272
96.2004456486023
96.2227064540665
96.2227125315179
96.2675013138861
96.1675601864964
96.1535377969839
96.2578643230843
96.3194582345128
96.3258382637911
96.3058707629826
96.2820886147063
96.2446225708786
96.2337908330456
96.2843435516321
96.2901703827788
96.2234711545688
96.2255711298591
96.3380079438791
96.4103258991412
96.4317228324185
96.3921450261865
96.3255303592974
96.213932687277
96.2569507746703
96.3186835345479
96.310066941277
96.305711974573
96.3490505526686
96.4074589106523
96.4145683786361
96.3906481228054
96.4402849744247
96.427278783555
96.3454926326597
96.3353109230303
96.4122623729705
96.4443502409763
96.3699975012598
96.3580687833012
96.3362962751879
96.3546064217045
96.4629128865576
96.4682778036299
96.4634666649359
96.4702486759408
96.4510943718703
96.5035337198661
96.5283395562029
96.4494326633981
96.4223388169027
96.439912567418
96.4622669372137
96.5132425680083
96.5193338524993
96.4606105278229
96.4637464917742
96.4307876862417
96.3423574561605
96.2712005592278
96.3358321043758
96.3228845592227
96.2924377675573
96.282205446045
96.3139782047859
96.3776359677615
96.4197534620226
96.4940949966519
96.650991510411
96.7126307569472
96.7065528924787
96.7865348494929
96.911190239181
96.9041531156961
96.875605984411
96.8076065677791
96.6479982449373
96.476010843747
96.3164376911473
96.2785491861257
96.4003899265267
96.4858805832369
96.5710073063598
96.6218267507001
96.6022467497823
96.6101618059952
96.6513013916612
96.6992498567582
96.6881240156189
96.5751870183517
96.4906733201825
96.4631471964943
96.4649158795993
96.5029460575225
96.593534227356
96.5794253015043
96.5480832407308
96.5831107437085
96.6215337837267
96.6022983423905
96.5943702866373
96.612028803776
96.6654138635631
96.6476146072481
96.5817158778301
96.6527262750351
96.7962625717735
96.7102244381487
96.6288161416749
96.684258377211
96.7156244083673
96.693126145645
96.8308517263397
96.9562360944198
96.990305740518
97.0987142439799
97.2361927240407
97.1776325515536
96.9645685409979
96.8942047000817
96.948790903003
97.0726388801306
97.1882994185234
97.0909596346562
97.1056600223513
97.2207534802143
97.4599138541457
97.4901676527253
97.3313224729701
97.3395930723011
97.4944199245632
97.4927361331015
97.339036198086
97.1255568988902
97.3742380986762
97.6469703339691
97.5598290704938
97.5829576025029
97.7916292217884
97.7590830625074
97.557743605912
97.562777439617
97.7287034018085
97.904213034659
98.0070689421852
97.7939555932862
97.7074353601005
97.852879683787
98.0755503425122
98.1396691414276
98.182318045495
98.3493611940479
98.4232905393377
98.1070244060004
97.8956799615167
97.9062995813003
97.9976965027958
98.0442365627408
98.2761209637802
98.2204812591767
98.0015218715184
98.0201673321802
98.0821430828795
98.185124244632
98.5585588822948
98.8108685592994
98.7423830966803
98.3219545325359
98.1098389902782
98.3971561973972
98.5560561046965
98.4773900863299
98.6521343326005
99.014656968583
99.0803746858624
98.5657849947668
98.5768077848756
98.7976925694096
99.2151551466926
99.5561952870314
99.4292140839905
99.1801829826071
98.8306615172064
98.7855719548023
99.0388883696425
98.8807276287916
98.5584306245115
98.3280900399784
98.0675573407337
98.2354013377496
98.3666601997631
98.1220342480256
98.075523564586
97.905445223643
97.7535619830629
97.8602009520847
97.8080252072253
97.5919723679013
97.6380079294329
97.6932111288262
97.6992435474424
97.5642581558814
97.3270971585762
97.3082747971414
97.477329052331
97.5201970478032
97.5830206213155
97.4521462809596
97.2320653219143
97.2218961242928
97.4365352196177
97.4584032593911
97.515736784106
97.5888974814783
97.5517973906241
97.6056456192619
97.5470453233665
97.4269256339822
97.45669085349
97.3898509129456
97.3671433265013
97.4594567967906
97.5475511887065
97.5230818668376
97.5606294077863
97.6338736550876
97.5774169856698
97.4759848382931
97.5693614991065
97.620214344783
97.5646306926478
97.5679718948209
97.6428443411801
97.7265072597534
97.9281608413441
97.9770406703332
97.8312149399393
97.6758377662192
97.8176934537474
98.1324996490929
98.4547132150768
98.2994660319668
98.4292926050583
98.6468358485254
98.3935797244002
98.1283013560855
98.2770669119054
98.6894854819345
98.8618122984208
98.7754450648226
98.8093166126661
98.5697380214515
98.609355832174
98.8099746873492
98.8277633957846
98.7281719651969
98.4644950787893
98.8067179870001
99.2041951608492
98.9347395273918
98.7099773939107
98.4971731312646
98.5192282625767
98.5984908203847
98.310948052279
98.229156426899
98.2250489276767
97.9412750614682
97.8703606417376
98.074914845346
98.4048749418269
98.4068900481838
98.3000116775848
98.4725304826764
98.676111027133
98.7484496357188
98.706138560314
98.8771906390139
98.8022928888643
98.3465525076255
98.5071489819838
98.5748483364621
98.2867145163597
98.2485295944202
98.367487470833
98.2665743596415
98.3681929388959
98.2595176194487
97.8383059408874
97.7628076636601
97.8473038429419
97.7171863672558
97.6077929565509
97.5847302319126
97.5592717724125
97.5827933589178
97.6177712226434
97.5026676099278
97.42682083823
97.4937006744504
97.4429801378864
97.3213981928038
97.2723836868689
97.3220528337
97.2736848837277
97.1565107280039
97.1334076503623
97.122914239293
97.0842760900639
97.0572260097738
97.0269328566695
97.0284818350517
97.0554827492879
96.9920880834514
97.0339183180708
96.9762415465089
96.9331121809503
97.0099087761216
97.0008216513606
96.9579777635524
96.9396332309856
96.958124533539
96.9618525865605
96.9350479995843
96.9794494199516
97.0455247772884
96.9817636307186
96.9592098790098
97.0175714142591
96.9985983164881
96.9458091814872
96.9455485760536
96.8891835532224
96.7713445423125
96.7480629822799
96.7803595842178
96.8884984263968
96.9376214031073
96.9427732905039
96.9757321009542
96.9768130460506
96.9062441080887
96.8538961422688
96.8527442471934
96.8386611929077
96.7945723986802
96.6769002868606
96.5966238301975
96.6461095364908
96.8089909107481
96.8575841365967
96.8146813212095
96.758229478356
96.7230698930243
96.6812912907274
96.6958766437254
96.7162329550941
96.7427300850459
96.6871843790006
96.7236134906993
96.7766097976419
96.7721004956982
96.8219277135054
96.788270720604
96.7034239946999
96.6912388466533
96.6961617735463
96.6825054126073
96.6355165319609
96.5884320572048
96.5342808609895
96.5229085585429
96.54718125949
96.5375710359478
96.4821978913035
96.4898150834155
96.4977932705145
96.5718276698314
96.5783569588386
96.5506133445178
96.4867930206834
96.4713798943453
96.4051589116366
96.3777342427172
96.350463461177
96.2383938329958
96.2223568673313
96.2762009651022
96.4046181680219
96.3709814250809
96.3036190124779
96.1850266678521
96.17757693693
96.1854380751134
96.2112340354287
96.157467110759
96.0618586553333
95.8525349955778
95.7379809503378
95.7772437424775
95.7936279540895
95.7521767861337
95.6126353892202
95.5091409586579
95.4232213653249
95.1963848381919
95.076788109983
95.0247200918234
95.1931055755971
95.180413583489
95.0852196224782
94.9166965247288
94.709995441495
94.4590325568
94.1558954921105
93.8173078235813
93.6570679775816
93.7087251434745
93.6507760105413
93.4778193886834
93.1092895890006
92.6464306928442
92.3335854044449
91.9788058929875
91.7148458850314
91.386014921232
91.3446776114175
91.3712966804977
91.2252180456047
91.1328888243517
90.7878761253898
90.4364952588118
90.0285025592642
89.7664481411054
89.6878567755706
89.9063432124449
89.7641128272428
89.4894602016817
89.1620779587878
89.0170741430555
88.9351866101432
88.7931422208737
88.8066495492513
88.8237436751673
88.6652105489472
88.5232555295467
88.5014928388044
88.5120332273274
88.2605805141885
87.8459030674542
87.7688293048605
88.3945732757795
88.6698350288565
88.5088202660654
88.5582135716327
88.7735392269064
88.8433720607213
88.719375764865
88.4210991416076
88.2644346925636
88.5260316372843
88.9009530582358
88.9126957595934
88.8287289175951
88.7466461528829
88.6982100464749
88.7383802081048
88.8828664991971
88.8914629764444
88.8594383219268
89.0201995151205
89.2952761271768
89.4043987856637
89.3629565001489
89.3896482077333
89.4455077275248
89.5213754999317
89.542542639984
89.5607738812661
89.5215684021996
89.4725998618605
89.4090122571773
89.388964095446
89.3198056466417
89.2472139030863
89.1534479299778
89.1049805968795
88.9985728991625
88.9222900686906
88.7882337021397
88.5567771750563
88.3554082746457
88.4472961384532
88.5216105329585
88.3354291251242
88.1974521802292
88.2156812162952
88.1864435640496
88.0166946038055
87.6504198303501
87.1179802007906
87.2867003411721
87.8909116531334
88.0442508211824
87.9266371644018
87.8294015521306
87.6620087112814
87.5380074022403
87.2450392763042
86.969762373634
86.8010385516907
87.065059464273
87.40060701862
87.3597743852172
87.0702334150753
86.979132856731
86.9578804590655
86.6937243125107
86.4940900996115
86.3020992032352
86.2034112745979
86.1736601834022
86.312458759812
86.2952396189542
86.2317734538589
86.1678792704191
85.9503388655692
85.6512624492663
85.3522498342337
85.6314652319832
86.1640031938173
86.1983634960155
85.9433436039508
85.7058427713209
85.6986583629406
85.8669518038191
85.8508021752407
85.5920265359418
85.5136744210498
85.708312350996
85.8337717886726
85.8321431990256
85.7350101895242
85.621720154619
85.4644664291912
85.2344581198806
85.1008030206857
85.1083391958584
85.3253626243163
85.3707549685627
85.095232613442
84.8624457932117
84.8043074816075
84.6546933130613
84.1749390531824
83.9052877838865
84.084172687865
84.3196635878488
84.1320780602878
83.9007919230218
83.6821231342211
83.6118134273797
83.529673222976
83.4039759637234
83.2267443490813
82.9569673924416
82.6822367903271
82.7472327057114
82.797231104006
82.547167890717
82.3490443802314
82.2016179062582
81.9779690602017
81.7018063995862
81.4431722499566
81.1197114322144
80.9445489655346
81.0391849417517
80.9163008026387
80.661257070372
80.3910140987609
80.1606190777993
79.9045709570167
79.6644647721668
79.5134281292167
79.3474616111146
79.1161323144016
78.98098324171
78.9414985586692
78.9490523269342
79.0847465285373
79.0658561746116
78.9473012227186
79.0070360861382
79.2373083376528
79.3353234544759
79.3603923945997
79.4299544503619
79.4993676600662
79.5635386738254
79.6844874785798
79.9020732475467
80.0254680475435
80.1376060312585
80.2678029319423
80.3506689654636
80.4640509054632
80.706860736759
80.9266863165851
81.0676770751473
81.2022058550996
81.3744722086141
81.5442491718894
81.735160331303
81.9275547512604
82.116056826306
82.2785017264972
82.3956369270726
82.5060382984816
82.7167388630662
82.9611903013178
83.1593179470275
83.2939559513303
83.4111603603392
83.5427033849965
83.6817966357147
83.8163074005877
83.9441273846926
84.0527481743003
84.1661329261971
84.3285302227054
84.4801051084223
84.5931506719369
84.7432524296912
84.8914385341945
85.0136126607612
85.1430541659136
85.2798217669639
85.4106367225203
85.5569822941458
85.7124674629469
85.871334740549
86.0090382695497
86.1538313660934
86.3018522205393
86.4426643608201
86.5964791419592
86.7859635452052
86.9665655816612
87.1286774318534
87.3052359229894
87.4821857333429
87.6299222065258
87.7848957643573
87.9295699956889
88.0645396312612
88.2324243234737
88.4086175063875
88.5515276974367
88.6930704022087
88.8301120177039
88.9643166355034
89.109144596728
89.2341737430316
89.3346177598387
89.457278615327
89.579330718908
89.6851549570046
89.7864201763534
89.8828907900285
89.9652529011948
90.0489883408672
90.1352835643526
90.2245004523441
90.2949491478416
90.3535764701192
90.4024454737812
90.4277693419581
90.4430506333987
90.4714734060563
90.4683166577147
90.4529576106025
90.4552522414218
90.4399798633258
90.3718631768128
90.2979209238809
90.2393149726329
90.1701604216484
90.0674932836049
89.9552443073255
89.8238910151744
89.668349278451
89.5199318342911
89.3752407743978
89.2211507282709
89.0569111849752
88.893525465304
88.7479825965714
88.5933609523934
88.4355843051539
88.2910139397032
88.1674918862345
88.0453958043207
87.9387802403316
87.8313786870601
87.7142667469791
87.6023720044551
87.5064426638282
87.4069625748885
87.3303837113969
87.262000632827
87.1586691806731
87.0367224198181
86.9288794781999
86.8141971577953
86.6671302642579
86.484342165854
86.2986044190058
86.1256947017964
85.9490793646441
85.7398253320251
85.548089091533
85.3556135019739
85.1389955819551
84.9237648131839
84.7224565929159
84.4768163729717
84.2217818743574
83.9776298446706
83.7253282100136
83.4502514680002
83.2051439495857
82.9866322808192
82.7657856535582
82.577351793412
82.4507361261887
82.3171891103255
82.1786453318231
82.0877302218195
82.0610218873964
82.0246052821436
81.9806603772865
81.9474249207427
81.9513544018276
82.0072980163982
82.0964130092643
82.2263736142155
82.3994913805654
82.595099075023
82.8324590236569
83.1184468495631
83.4290864051068
83.7600633066849
84.1448947771634
84.4879553433441
84.7938688261337
85.0911285170736
85.3606719519842
85.6091551425415
85.8520124247676
86.0974581403759
86.3682473523576
86.6179338146276
86.8553367093035
87.0565534375584
87.2214903461992
87.3713890825554
87.4786541159191
87.5486716558915
87.6159171542666
87.679132233637
87.7513817847096
87.8059467942535
87.8206532823927
87.8197275862721
87.8628769890717
87.9482301543652
88.0582689084419
88.169193505971
88.2416605079461
88.2716744390999
88.2563665123853
88.182873013622
88.1370244093445
88.1918994115602
88.2801969636238
88.3151425453931
88.3645240475888
88.4232795367368
88.4504988403496
88.4587299675051
88.4661150194051
88.4554280155448
88.4494095522226
88.450912129539
88.4732942903391
88.5029002457438
88.5123470442016
88.5143428712358
88.5457154182013
88.5869992670722
88.5954771651512
88.5824841500102
88.5421952041406
88.4494432929194
88.4025157368737
88.4935409717358
88.6617253230314
88.8475858442873
89.0731641580385
89.2532233484621
89.3761686419047
89.5103494883935
89.6557540195268
89.7809013178192
89.8970777087895
90.026547163209
90.1899524654348
90.3094815146201
90.3572647522709
90.4391385595469
90.5612793890957
90.6555673828225
90.7316451217343
90.7795663643443
90.8372612937917
90.9185030177922
90.9812402778656
91.0276385599343
91.09952321371
91.1650544732445
91.2140839112382
91.2534869021953
91.2982857401009
91.3376718314917
91.3823365478369
91.4155756774779
91.4340969290349
91.4664122894355
91.5085679657538
91.522202011515
91.5488832149343
91.5772924306948
91.5588891750399
91.583097228503
91.6254242371951
91.6566277010245
91.6870588307428
91.6921792204755
91.6778392810145
91.6894722720662
91.722965212417
91.7163577694541
91.7155471958418
91.7181437592768
91.7241422053513
91.7356083232142
91.7013705193197
91.5870501712902
91.4532928366245
91.3381085251127
91.1893006649348
91.0047239374835
90.7402424242211
90.4001118099107
90.0416052110948
89.6541386644761
89.2855408049528
88.9332612176044
88.5864318807487
88.2382523291451
87.9149700727061
87.6601485783228
87.5338316234109
87.512108219367
87.5491374061551
87.6684894578944
87.8328308216214
88.004337063628
88.1812488712377
88.3013400738663
88.3658596801257
88.3311277009812
88.1702930936477
87.8532459368394
87.4311971823224
86.8910241179612
86.2699959583403
85.653764276162
85.2543592941109
85.2260576788148
85.675148331528
86.5231611211449
87.4697747373906
88.2889144378181
88.8984681299017
89.3615186824663
89.7219688279293
89.940343733976
90.0777792666429
90.1588104114087
90.2220299893927
90.2706419727809
90.3833038566627
90.4846426976023
90.5388815972276
90.5860045482137
90.5725190721063
90.5541820325432
90.5850621807113
90.5863653393581
90.577104841983
90.5774386718497
90.5857335542351
90.5758108892601
90.57931788443
90.5505439661744
90.5180045188912
90.5426541493452
90.6267487165692
90.6797952833887
90.6697462795007
90.6989505685172
90.7498021451905
90.7030410198901
90.6641479620257
90.7026920742421
90.7389173135655
90.750300623915
90.7151107824776
90.6894172473671
90.7480282683538
90.7793774178837
90.7615923626486
90.752684931084
90.7661373194905
90.7840969576012
90.7823596074249
90.7515492019636
90.7296741775742
90.7429231956518
90.7312804274734
90.6992911690379
90.7096120940731
90.7187200468467
90.7175607470258
90.6793680212899
90.6066004095817
90.5307806285387
90.4417256318334
90.2525340761444
90.0044051462301
89.6729431237545
89.2690662884915
88.8207033857891
88.3403979206033
87.8239294173303
87.3487345472309
86.9081957848212
86.5407079849901
86.2770025695157
86.102725727125
85.907446035173
85.7186381927987
85.5689816418041
85.4513547086141
85.3257256500294
85.286141204481
85.2910258486598
85.3669072850036
85.4727728636333
85.6347951133944
85.743129839398
85.8778506863675
86.0115089556801
86.1733887733202
86.2955775794049
86.4595350235464
86.5280719339523
86.9517883336057
87.3169554959138
87.2701442493568
87.2602408844461
87.0898328636237
86.8854162039579
86.8836195234673
87.0188025896201
87.1242170617442
87.1512905494052
