1798
3999.43349933624
650.420452594757
1
128
4
96.7839713525708
96.7363337588351
96.7099286011252
96.7136880204662
96.6867213902347
96.6752399486732
96.7059482187961
96.7480682312206
96.7656051495306
96.7132451129385
96.6500449066373
96.6668075318663
96.7264663811569
96.7527049131724
96.7948934160039
96.8805988619569
96.7882301316244
96.6612846314361
96.6908395953796
96.7796019555719
96.7159534518943
96.7150706462208
96.7429527815365
96.72489485361
96.7476790966941
96.7780054340874
96.6449705904771
96.6274265254414
96.7063862902895
96.705824818614
96.6919520443532
96.7257570391219
96.7919920900136
96.7761311504133
96.7184809691301
96.7637387402295
96.7508305159106
96.7608647044075
96.6959486333567
96.6847570038737
96.7817664438529
96.8200980059572
96.8182944823136
96.8265186027456
96.7418379378235
96.7310738604537
96.6786271112361
96.6303612961435
96.6910374614627
96.7278861551603
96.690284081628
96.7757401405921
96.6665453167555
96.5818060330422
96.7094688308545
96.8154823482004
96.8508796705342
96.8747202259378
96.7085984790745
96.6672369915949
96.7064088051396
96.6978420374451
96.6817251101006
96.8352185364243
97.0358541232282
96.9393914750333
96.7832017319585
96.8830096397474
96.8488702557052
96.7366430618928
96.6785146811444
96.6897342419867
96.8069387404735
96.8965228459996
96.7327192580482
96.7337993040496
96.7307872354784
96.644696107026
96.6888677844441
96.8207641037997
96.7748098155339
96.7894211513776
96.8100820710273
96.7277098294334
96.6612764629319
96.7204513355595
96.7606234098762
96.8076330404227
96.8628767283431
96.9055796821222
96.8856508262536
96.8459402784538
96.8174755948547
96.7939212500534
96.6680287546182
96.7067708901054
96.7925741785133
96.8474854727488
96.8431462714343
96.7893502479722
96.8226841808344
96.8467895212679
96.7438512068242
96.6989808743683
96.6713147691933
96.5889440305022
96.6956480367432
96.8735700581338
96.8306176244889
96.8188534704731
96.8299773384139
96.8178375528802
96.8286072248726
96.7177694524678
96.7078970465144
96.8346717635385
96.8123557349009
96.7648997982204
96.8212419373017
96.7950236766612
96.7499699596242
96.8122003215662
96.8308464165403
96.8527961308301
96.8142863580018
96.8495360550929
96.8212795910124
96.7481240879117
96.6968349427061
96.6990514230493
96.7007214730256
96.6495354663613
96.6717486263776
96.802135270269
96.7113466963264
96.622638614768
96.6539854964069
96.7906282510023
96.75608765784
96.7147711081939
96.7564198244749
96.8060274531005
96.8029843022496
96.9348338320361
96.886094719842
96.7723705629724
96.7438536381528
96.7894260326501
96.7972713664933
96.8369803351273
96.8749183557697
96.9187231709478
96.9659347284953
96.8564131920206
96.6665730151455
96.7281591129722
96.9418807594041
96.9629405096091
96.7880625581148
96.7986490144703
96.8648869426458
96.8833563438411
96.8232729456764
96.8141075656086
96.8206895442758
96.8637205392714
96.8515152825035
96.8102370954902
96.7635839957977
96.748284204992
96.7974971004277
96.7935308734376
96.6220190321717
96.5707876748115
96.6584897917479
96.841054998377
96.8973052913046
96.8062279441884
96.8557784551583
96.9399720636948
96.7472848518021
96.611564572536
96.6734803290259
96.7761846528738
96.7829799178306
96.6707824906718
96.6211981347363
96.7768827961381
96.8958091784889
96.8324408185281
96.7014880865028
96.6903888465312
96.566729192078
96.5515654686926
96.5939814926447
96.6214997298985
96.6606688756746
96.6927905958907
96.5897181698112
96.504982319114
96.5238774669405
96.5751631813818
96.5609473974208
96.5204893037637
96.4502982461496
96.5396285426915
96.5992077555133
96.5973775397366
96.6109352802982
96.5155091900634
96.397984577578
96.3991201152802
96.4048674631114
96.3833091040875
96.2910423190465
96.2501128736508
96.4097199767611
96.4312939571005
96.2988991880409
96.1022770182
95.9783114325237
96.1377342043798
96.1814823823864
96.1659452287632
96.1186246509535
96.1256395545613
96.0486419511473
95.9646102648341
96.0237863878544
96.1249175854636
96.0027614484215
95.91004747295
95.9741871849586
96.058016057149
95.9513755401851
95.861031147854
95.8511586900747
95.9379158786552
95.9526537166617
95.9531213772484
95.8556786939041
95.7519029771422
95.7515893575736
95.8578675291334
95.8264011565614
95.6792311181483
95.5862019928089
95.6509997496293
95.5940051421995
95.5347373027805
95.4741704038949
95.5253993148264
95.6024255347048
95.6034179724093
95.5173534174863
95.4757970761254
95.4540512366623
95.4675975262435
95.4683531567858
95.4671968554886
95.4576074089223
95.3968664580571
95.3276578332531
95.2278315873704
95.068912791334
95.1214790960548
95.232127037034
95.208416580221
95.0539243710723
95.1095697563119
95.199186228943
95.2031283532516
95.1305989787222
95.0619926650338
95.0648974772826
95.1156227245709
95.099452923975
94.979502341286
94.9850570884735
95.0374905611186
95.0185375008552
94.9807047895884
94.8798259060445
94.894794656797
94.9536592744475
94.8858134512375
94.8717442658503
94.9007535392848
94.8195440268638
94.8046112328521
94.7282530639428
94.6986007801877
94.7322050519458
94.784123328265
94.7520910374417
94.6685872772941
94.7170767317227
94.6709825978068
94.509383060196
94.5391200984117
94.5929736156264
94.6224462172581
94.5863399094687
94.4684002398982
94.3577328168136
94.4112573915576
94.4467680751655
94.4292537002404
94.3677932083057
94.290164985392
94.3329057398123
94.426803115244
94.394561475994
94.3483933296233
94.3289045892783
94.3335844206687
94.3467670552971
94.3225349101919
94.2662460626039
94.2224466295657
94.1653406930489
94.2285035337936
94.3455084111146
94.3058874261773
94.1536863385994
94.1492613134301
94.1501754301452
94.2418436691459
94.219587199656
94.192742976801
94.1520540089046
94.0734056962573
94.112413655056
94.0891866016301
94.0443859855599
94.0942791245983
94.0292377180491
93.9970245736981
94.1365142588347
94.2082723597632
94.1717242532034
94.1991202523818
94.1742466964627
94.1028947820216
94.0863758384273
94.0819609839304
94.0254155820386
93.9656216871514
93.9924827435345
94.0257986660855
93.8974981600474
93.9049700705273
93.9839507860516
93.9052984568791
93.8777140817148
93.9077537482354
93.8793635949372
93.9451068674796
93.95154529795
93.9767760526506
94.0401758450373
94.0395481851863
93.9895195323378
93.918651252875
93.8645541124143
93.9018087166571
93.9137525863995
93.9374472449373
93.9218929098365
93.9145385490177
93.8734897032078
93.9274298109644
94.0072222119286
93.9815862660287
93.8972723990829
93.9001110555878
93.9297988758399
93.9525862745143
94.0206453653281
94.0221980735014
93.9190715781024
93.8392947017554
93.7800809129966
93.8960650368801
94.0330294150122
93.9518784659391
93.7953414604072
93.853527376775
93.9226069135895
93.9022741059783
93.9483330458213
93.9803444246233
93.9245653744337
93.9334650612932
93.912422966571
93.9678153107532
93.9713112754379
93.925325945018
93.9543784225513
93.9110519559164
93.7643941112432
93.7728136075759
93.8438523141737
93.8696450863079
93.8976179655775
93.9546374619274
93.8668001767679
93.866572208502
93.8994864359985
93.935351535275
93.9211744462113
93.919125568973
93.9463914604087
94.0013243421061
93.9271201992011
93.9081059979714
93.9407112546353
93.9890713077642
93.9967782475495
93.8984139577602
93.8586715798118
93.9459927616081
93.943157995314
93.9292797254447
93.9737082282817
94.0329587216605
94.0190810885146
94.0232314561418
94.0021693982303
93.9918087463633
93.9354349931227
93.9249935086933
93.955734147566
94.0028451552881
94.0224528914131
94.0376370193167
94.0954240512956
94.1739481062191
94.1052339925172
94.0379864212329
94.0191651779502
94.0113765807971
94.0191208246607
94.0719856077777
94.0382396018867
94.0548971552285
94.1061957142251
94.1085938901611
94.0720071368209
94.1152693916703
94.1479958804878
94.1683031212036
94.1080913459452
94.0560687187075
94.1381927888564
94.2111359410759
94.1176088468939
94.0695740628326
94.077759158851
94.1780601488995
94.1482359269937
94.1088852765386
94.1484033466243
94.2029457270312
94.1679491129757
94.1641484801689
94.1804306199986
94.2778428348044
94.3136879850639
94.2610261938678
94.1776620110314
94.2339308612233
94.2947506711266
94.3074010772185
94.2370637078436
94.2151794620566
94.1909018549772
94.1838928903756
94.2479953761347
94.2680423099181
94.2149036730239
94.2301364628297
94.2633963203701
94.3082826876494
94.2380314091851
94.2381004001461
94.2165691081229
94.260393887691
94.3411316260462
94.3938126557064
94.3579097580081
94.3985552914881
94.4090510876689
94.4088359631171
94.377872885616
94.3480848001516
94.3386145548692
94.3585372850515
94.3970901857858
94.3938268783134
94.3243770954601
94.3441143437863
94.3793689442518
94.3914673303573
94.3787640677662
94.3820830008753
94.4057948667331
94.4404895191935
94.4432213552771
94.4164540688209
94.326424412994
94.3752648371035
94.5446209355393
94.6180028294693
94.5117670503235
94.4222352415851
94.4647381839981
94.5449631186395
94.5382968617222
94.5294089188212
94.5218792044133
94.5292502846214
94.5160164849663
94.5263248674764
94.466390258494
94.4815675579204
94.512985679092
94.5853570751249
94.6255847663875
94.5642746047532
94.5674374590713
94.5846141160569
94.5544360434601
94.5582565048732
94.5119731678704
94.5059630449505
94.5653274639013
94.599124696808
94.6052022550425
94.5592638469877
94.5096182575144
94.5773941379099
94.6199664373985
94.5751523861098
94.4701801579465
94.4369527675071
94.5193576436161
94.6770104324506
94.6762944868072
94.615594311357
94.5962314247772
94.5248553073676
94.5177441157256
94.5330584943391
94.4514436249297
94.4794098281613
94.5330566293191
94.481456841606
94.4195728577697
94.4445883009872
94.4894903389535
94.5484136177787
94.5863524288193
94.5403722990452
94.4819638528396
94.5282511534543
94.5739345065287
94.5417885536938
94.4837783204609
94.4823282458615
94.4805804283185
94.4602399127729
94.4517877697207
94.491311548281
94.5131826335775
94.4971681737017
94.4998476670708
94.5208184509524
94.488672951925
94.560928010907
94.6108689724143
94.6188720270874
94.6785326815878
94.6731183667405
94.6513632236628
94.7228758903745
94.6808003053721
94.6466445407981
94.6693806481717
94.6805623667824
94.6843897790604
94.7402915979718
94.835476685757
94.8452510038219
94.8010132034941
94.7860197632429
94.7631299988357
94.7874385133561
94.8411726868723
94.8547012391971
94.7986992351653
94.7780910537694
94.8287832042684
94.8364657332844
94.7939382940265
94.8595640107178
94.9065547237783
94.9174356549273
94.9185957024326
94.9214101356115
94.969783781982
94.9858734755864
94.9707078603578
94.9499062515092
94.9183738344788
94.9385280786648
95.0141512314274
95.1508805997603
95.1389342209767
95.0811034800853
95.0810007089029
95.0941525937068
95.1409520591669
95.1751848505127
95.208013179307
95.2503995860105
95.2327634873842
95.1973003604301
95.1880515094328
95.2291724639835
95.2684467055221
95.2450130674935
95.2084702356052
95.2259006404537
95.1950087353151
95.2225593923148
95.2893540467327
95.3532128955409
95.3802150333217
95.3853608344691
95.3167189333822
95.2851306179909
95.3402124690054
95.3875738403208
95.4119498097709
95.425125283407
95.3704470448195
95.3724900697458
95.4197169292549
95.466897198126
95.4790625753309
95.449045315851
95.412200522935
95.3888645160013
95.3982740748348
95.4411973240317
95.4718113371869
95.5043000685631
95.5106315099673
95.4777179252603
95.4897744927975
95.5168318261122
95.5317952064605
95.507939249275
95.4869124023513
95.4840482252248
95.4391708595292
95.4672115787477
95.5373157263124
95.5463570774494
95.5654885337919
95.615385230962
95.5666589025692
95.5214777744449
95.5162552164538
95.5719471609568
95.6058826259559
95.5907859103558
95.5752871268293
95.5615840736924
95.535436402011
95.5422925271226
95.5743402389655
95.5877078902912
95.5565792133037
95.5754698954396
95.6242995390282
95.6394228820352
95.6241992916075
95.5947429882345
95.6125413114416
95.6555416758822
95.6705343444486
95.6727441658916
95.6518885816372
95.6489887417547
95.6207913089831
95.5944838192871
95.5805516513241
95.5904154765007
95.5984773703541
95.582021095962
95.5414495623268
95.5529835725138
95.5770690700574
95.5897965688887
95.5910926119196
95.5661843475657
95.6002146909049
95.622570091715
95.5743717111809
95.531357029152
95.5564323657807
95.5560824042649
95.5200510544296
95.5029987985234
95.5168044053994
95.5404533692945
95.5016341830211
95.4387310899577
95.4135409376437
95.3707764670827
95.4004854495368
95.43473457641
95.4107410625334
95.4244981665838
95.4266323610797
95.4469589835686
95.4032936340404
95.3494889743651
95.399113860199
95.4334203861109
95.4080872685986
95.4178857697429
95.4185434481748
95.4146565705158
95.3753900045883
95.4427561185012
95.5186867895344
95.499314544028
95.5139712602564
95.4845233034026
95.4680531872344
95.5288077756284
95.5132204173645
95.5024189692392
95.5230184792197
95.537327359086
95.5294687115927
95.5696797795039
95.5703181582704
95.582550363815
95.6006906322318
95.4823633957265
95.4281755290763
95.5009983141797
95.5413913324485
95.5595212292702
95.6243582211346
95.6547078557038
95.6220408967737
95.6281354408232
95.632392797099
95.594113693849
95.6557620854406
95.5991789909756
95.5149905012798
95.5648581321554
95.6618083233977
95.727791494499
95.734787739128
95.7488936054066
95.7262132756479
95.6773844011885
95.6471829196401
95.6428113633357
95.6684115673179
95.7497555753006
95.8407617169062
95.7345321235587
95.6474696352059
95.6793996837585
95.6491405869755
95.729147247309
95.8082201835991
95.7872711093469
95.752449004397
95.7546833777729
95.7681477803307
95.7398190915206
95.759094998166
95.7976885668895
95.7761532261885
95.7645440898148
95.8007279677433
95.8692895111918
95.8058249365341
95.7098984702568
95.7911143673798
95.901293380681
95.8898533508238
95.8954702035519
95.9247562877065
95.8503150054249
95.7251084404999
95.7573157274694
95.7677589949671
95.7473001642319
95.7779380026224
95.8278257884737
95.831714195311
95.8751019397429
95.9234575276393
95.9080647433715
95.8729429482589
95.8494726732153
95.9376798850024
95.9788388358002
95.8898968936486
95.8438893920482
95.7621374210683
95.8032414198268
95.8951855132713
95.9080799596498
95.9133602093102
95.8590931064403
95.8682868976049
95.9140013687555
95.9364752327478
95.9234630999504
95.8925878959192
95.9114583020469
95.9199134544678
95.9110624935329
95.9417425105416
95.9672402633958
95.9929149580578
95.9678257233997
95.9498121984458
95.9906161875462
95.9973751778463
95.9905524291893
96.0230362076605
95.9918347947486
95.9859907092109
96.0258751230329
96.0906962383822
96.1042277574157
96.0950660635668
96.0313476649151
96.0194681990141
96.044055492843
96.0282501128538
96.0645079348526
96.1332644136489
96.0968517691485
96.1202050404717
96.2056576647247
96.2344062370042
96.228704488751
96.1898064929183
96.1098387804153
96.083050888227
96.1307394783531
96.1431256838473
96.1226786163701
96.1465851466196
96.2110739033462
96.2410110873851
96.1865924093362
96.1330209921226
96.1193024840403
96.1278316105616
96.1257126117275
96.1694921765263
96.2161892330487
96.2908587088334
96.3245146931926
96.2491174603016
96.2019433080139
96.2143384187327
96.26219596386
96.3100552360925
96.3206449752746
96.2800585769824
96.220248274693
96.1634199319291
96.1060546349285
96.1110689374729
96.1207078321087
96.1364438488844
96.115134871804
96.1299429291838
96.2015757705469
96.2403678208118
96.157692107013
96.1388674909979
96.1064899170979
95.9277784042719
95.8420720315594
95.9191000164321
96.0238760278311
96.0087018880712
96.0055416096249
96.0894575295162
96.1659875481966
96.1443526092885
96.1023382156127
96.1095990548501
96.1878927067014
96.2453865646696
96.2469342022254
96.266649454818
96.2506632995779
96.1619808070157
96.1115742432543
96.1274574491429
96.2150477610986
96.3166218160977
96.2211369319301
96.0774120084109
96.1366337404139
96.2874803605519
96.4697791135998
96.5979203882075
96.4955801346375
96.3889983981736
96.3886740074977
96.4316721593173
96.4463598199918
96.5418965581369
96.5910890571617
96.6542304505188
96.7054443583323
96.7818183101505
96.7674314034181
96.7985720142435
96.7310624788068
96.6368967002945
96.6400765360582
96.874232504914
97.0737514512584
96.9910787678891
96.8145712981518
96.848687940992
97.0748223384381
97.2391648528709
97.3033942277742
97.3543793922392
97.3292806150602
97.3473815232455
97.365748545544
97.384136962425
97.2770551577782
97.2262956097083
97.5587777068653
97.6148367739964
97.5738308297845
97.6232597918334
97.6509774150531
97.5484687521675
97.6285270218666
97.6187112746492
97.3959356492183
97.4699021632485
97.7006509372279
97.7681110845352
97.8173728743468
97.6810925794794
97.6787487598226
97.7399031578875
97.9109741726998
98.1377493775179
98.0037611446395
97.7782803855315
97.6479807330774
97.9223475250319
98.031858840872
97.9431981297985
97.8836445164526
98.1605987586034
97.9340436806367
97.6976130979
97.5614544151349
97.866011625232
98.2316127193783
98.1730693882231
98.639216560376
99.1144299728916
98.7937486329575
98.440007155329
98.0373222247688
97.8658617386868
98.0685460211878
98.2047908937136
98.1628104570101
97.9767250711392
97.8028773150667
97.6757803036873
97.696009798168
97.7002081805269
97.6842769006239
97.6122303776335
97.5136028708237
97.5615943430443
97.3431656179376
97.2162969819597
97.3078259015617
97.1221529174365
97.0322717722525
97.1025503323503
97.202591096727
97.3309934052336
97.228925023576
97.1896962805126
97.2420425838849
97.0148792507487
97.0359203442557
97.1582549172788
97.1479128086919
97.0560413378962
96.8854266219786
96.9441549140742
97.0378536921432
97.1005809781586
97.0475602750432
97.1803817283403
97.2772902861312
97.0957918040152
97.0102363949333
97.1323368792274
97.1595871564065
97.1751617008235
97.1016280282915
97.1805724544896
97.1203749913964
97.076169801957
97.2162889826686
97.4557479368858
97.3118336802827
97.2899507031565
97.3740857621875
97.1350179167278
97.0533731275821
97.2376539860816
97.1937064395475
97.2955043871246
97.7627766809285
98.0003852090538
98.0851899592766
97.7465510141676
97.6952581808174
98.0829501044295
98.2807364880182
97.9471929007638
97.6349195385527
97.7680403430703
97.8489537203361
97.9298437645745
98.2068865521814
98.3011208577185
98.2409893572747
97.9645266226898
97.8988702273018
98.3072865963491
98.3893093997032
98.3271841259319
98.0348653322918
97.7489010270433
97.9577450847559
98.0914343205825
98.0405356079263
98.0817827582901
97.840492625605
97.7107166157376
97.9723811368637
98.0782658007064
97.9400449891065
97.7533718037285
97.7854528281728
97.7750803025982
97.6269277931218
97.5556645092098
97.7961545322547
98.0253561818527
97.8204030544835
97.7126021379611
98.0294620157307
98.3387333500416
98.1359808693596
97.832334821143
97.6843723349551
97.5983130239998
97.726242807901
97.7887495368333
97.6501027431912
97.6461171375566
97.6796637377943
97.4672573046993
97.4095256669116
97.4898593609722
97.3464443995649
97.2979900309346
97.3057643036545
97.0962454638432
96.9738104324333
96.9006141881516
96.9693551027575
97.0704598825611
97.0655227233963
97.0105871765904
96.9341611778253
96.9267441971796
96.887623184768
96.9223426707914
96.9677006399622
96.8393189758735
96.5899560469304
96.5171829728629
96.6578124608803
96.8022311940891
96.754377248079
96.6562711932185
96.5491348288476
96.5653717348906
96.6592076574974
96.6877622245844
96.7130548858624
96.6504097827728
96.6300438755215
96.6409662234451
96.5822313078546
96.6244993883619
96.6119439251453
96.6106380178833
96.642244663077
96.6905915719563
96.7011678715053
96.6574314668781
96.6680106248916
96.6712013281508
96.6266730712819
96.642765639667
96.5925132840236
96.5969983119611
96.638246521544
96.6504621372161
96.6250530455672
96.6288260975772
96.6414739895209
96.7226521214553
96.6334496210387
96.5358740241851
96.5307101952277
96.512062284295
96.4831266190793
96.5616555352399
96.6007555339487
96.5600355702641
96.5485134255443
96.5212567898968
96.4827781325695
96.5180611509804
96.4293785466026
96.4184800226332
96.499972349531
96.430293719253
96.4171428495175
96.4450719735691
96.4907030737568
96.519969956501
96.5128986767193
96.4819686192655
96.4270477004925
96.414605833872
96.4034202855856
96.384432529271
96.336764223991
96.325694625305
96.3494933891468
96.3573687873499
96.3563444031959
96.3540615741649
96.2894266453243
96.2705340002256
96.3859228761405
96.3555089771935
96.2371507911908
96.2111134234472
96.2181916606517
96.2156305847734
96.2716768582539
96.2923723918938
96.2702612116383
96.1899958420109
96.1389512714761
96.1414941699829
96.1384091531407
96.1777234631452
96.1262388962251
96.0447949588444
96.085440587282
96.0693017874552
95.9755277232782
95.9508443350426
95.8719797684863
95.8020602850316
95.7883683560443
95.7674396595464
95.7058761827771
95.6269107153691
95.5346158436129
95.4701850594752
95.4386319461534
95.2767131224707
95.1168778235159
95.2202408804
95.2272547032176
95.1276782244385
95.0032200136449
94.8522352294786
94.7248904639478
94.6306149780947
94.4022444689221
94.1891471765075
94.1784447967279
94.1636885936711
93.98675301049
93.7290862060626
93.4597099032285
93.2365638369335
93.0354958220768
92.733535137077
92.395149272866
92.3672687120985
92.1516806235464
92.0019035497354
91.8913042927566
91.5826837917703
91.3275794919711
91.1487686621251
90.8352867129795
90.7053378524039
90.9190473928676
90.7202308794289
90.4623672884877
90.1258448088115
89.9414736402893
89.8897343650427
89.6541651809351
89.5426301828845
89.6338593769956
89.4717737646922
89.1991800131543
89.1534720379341
89.2243623671555
89.1693815757919
88.9413491007785
88.5105972230702
88.8395257479925
89.4878983065964
89.2632257707099
89.0540823830127
89.3199306728509
89.3913193324039
89.2594016109358
89.1671744733094
89.0112870836218
88.9801309550336
89.3451966250922
89.3866776502303
89.178940138899
89.0592028596967
89.0511649108138
88.9824527352325
89.053264988242
89.199893163043
89.0723564396359
88.9037971610035
89.1774130620069
89.3706366814591
89.3451762620488
89.3303198942438
89.371988865189
89.4083239006558
89.4058050963476
89.4245320873758
89.4405191703601
89.4302468543687
89.3605252036417
89.2920917634235
89.2474903099383
89.195299833187
89.1047149530545
89.0138169321641
88.9141857374288
88.8350980898716
88.7278088834413
88.5862977039277
88.3339079963601
88.2508815271627
88.4893149198016
88.3746547179549
88.0551430565263
88.044746648315
88.0965345932676
88.0165206096027
87.9388925411706
87.5497259889135
87.1109362715122
87.8325987881248
87.9991383192919
87.8235338145698
87.6981167161112
87.5517701332667
87.4935608159161
87.2809982857623
87.0914372538406
86.9913252351416
86.885420107028
87.2567794749407
87.4107679556481
87.0189746918227
86.7692956573562
86.8294063920126
86.6924048423147
86.4316836621291
86.288335458517
86.2341790577124
86.0724240955908
86.1925062899248
86.1348797918965
85.9999985000859
85.9912755372029
85.8317122689543
85.6233296581753
85.306304995927
85.0710538539538
85.6282859863478
85.7531728647089
85.4209964079937
85.0982556436669
84.9412200056199
85.0365230299595
85.1670735531893
84.9403842128317
84.6866223047693
84.7901889819176
84.9136464835852
84.8735798945701
84.7109985442859
84.5943078526051
84.5172009121417
84.3505193563087
84.2131017821265
84.0986311272927
84.2654806162788
84.4071246936599
84.1936781847523
83.8726585160231
83.7542404810556
83.7934359375734
83.5325609321225
83.0972370141783
83.0250360689916
83.4181871205819
83.264472374091
82.9745422462329
82.7107414363768
82.603093276488
82.5940725450874
82.4682209191515
82.3219294600398
82.176360270471
81.8768204405035
81.8114638171702
82.0345230310549
81.8518493300518
81.5663349642969
81.4273212568709
81.3175344839017
81.0698064376799
80.8677803780162
80.6026930588324
80.279399221983
80.3642481465244
80.3634640253343
80.0886380263825
79.778454527459
79.572037468655
79.4076976135927
79.1688599281106
79.0093634885521
78.9308298962174
78.6790054814051
78.4885173870455
78.5244685120465
78.5202529664504
78.7122312700295
78.7965617139546
78.6600182716102
78.5814757377771
78.8565658976222
79.1012517332709
79.159863563033
79.2417559104532
79.3623155936651
79.4536268998741
79.5240590613639
79.8363080553665
80.1314645350541
80.210245653228
80.3468595612647
80.4671315368177
80.5006412504279
80.7503464293665
81.0929782008257
81.2415655574349
81.323009399331
81.4588215313311
81.6345600785543
81.8149068956837
82.0068814153101
82.205361823537
82.3855753967372
82.5349397301074
82.6131143250975
82.7630267696579
83.0468975755498
83.2641611465066
83.3741152529456
83.4462802871469
83.554294950649
83.6764550784448
83.821624387578
83.949252043678
84.0613839321217
84.1690725518847
84.2865892387039
84.4333883724463
84.577470724086
84.6929802771742
84.8342743159593
84.9536672029642
85.069611362835
85.2014592263785
85.3269864245823
85.4599511225909
85.6014044453798
85.7326827081454
85.8678537023095
86.0123965615243
86.1491908289276
86.3009413213182
86.4775159293488
86.6381849198474
86.8036298593724
86.9532331473905
87.0827843391455
87.2196088296236
87.3922932590406
87.5843606368403
87.7608993047777
87.8962102082916
88.0369294638467
88.2060145071402
88.3535230439109
88.4682721848292
88.59584167004
88.7191380667496
88.8478929273558
88.9777919427392
89.0840756049333
89.1934461667479
89.3062274758698
89.416485514158
89.5060636747286
89.5936037881808
89.6867707018904
89.7543015042095
89.8237643912856
89.9095886336536
89.9961769269864
90.0629187643826
90.1006393243102
90.1302049490806
90.1748990652598
90.1954870499459
90.1938936556223
90.1916710022395
90.1840218818825
90.1554691948717
90.1198322727522
90.0587307128342
90.0058576620805
89.9448709564259
89.8654013317515
89.7601505379677
89.6247643902705
89.4800662719976
89.3418130585963
89.2030150025487
89.0636196864237
88.9025715652943
88.7261798706603
88.5405798450695
88.3664015615178
88.2008632288809
88.0521825947642
87.8819934592706
87.7199989160057
87.5830213401967
87.4776713423367
87.3817093585568
87.2933068243633
87.2009650676314
87.1196133972586
87.0586173421504
87.0239124198732
87.0087101137617
86.9687428031102
86.9376779635057
86.862015191761
86.743553118679
86.6236166610432
86.4712857521302
86.3059295743725
86.1331761637567
85.978978988425
85.8205095197624
85.6357662459172
85.4268793739307
85.209028825018
84.9951129302654
84.7885632634007
84.5624309217049
84.3268462614028
84.0553169380174
83.7962905306854
83.5477822974796
83.2880333220485
83.0290209988098
82.8298266152599
82.6400892373079
82.4431430040169
82.2730302329833
82.1427439963004
82.0354693600254
81.9426181482297
81.8473536956429
81.7572444753339
81.7064037324383
81.7167542058115
81.7253350842026
81.769722302097
81.8727473159914
82.019129312868
82.1891136925327
82.4102651306705
82.6768801173837
82.9856390552904
83.3656867433266
83.765829670829
84.0997119816517
84.4074051148511
84.7046595330507
84.9926613215065
85.2750956781944
85.5343329699209
85.7801541776407
86.0282704762115
86.2639960051494
86.5076411094135
86.7204609458691
86.9047281179501
87.0599720780482
87.1774407915751
87.28904414699
87.384103678508
87.4643563971898
87.5403903625967
87.6002075797226
87.6104743969758
87.6067810702775
87.6085359341152
87.6784699082623
87.8318312692989
87.9553867129421
88.0504361516344
88.1158967441446
88.0952499313896
88.0046014065983
87.9821155948935
88.0403931732901
88.1396120366967
88.2033644213677
88.2265859287754
88.2558209009694
88.3043463489393
88.3310846162393
88.3170289705119
88.3074591162368
88.3390259843024
88.358525143352
88.3490888602956
88.3571203959875
88.3743132036446
88.3894084158761
88.3954152782075
88.398922181044
88.4274796693454
88.4097947017127
88.3422026962241
88.2157799148961
88.0772791008252
88.096437169687
88.297781043726
88.5428651862455
88.7521666394242
88.9185618918644
89.0654089049529
89.2015918614199
89.3157105888824
89.415238003636
89.5611576821726
89.6998344840575
89.7994697409828
89.9261203974948
90.0171863221957
90.0613571099795
90.1379923638107
90.2442858508255
90.3343001237132
90.4041424538597
90.4496267008442
90.496884624887
90.5783791890743
90.6209306112679
90.6569168674722
90.7348020402106
90.7850791815307
90.7905900125452
90.8546643373181
90.9023828056861
90.8990798306168
90.9340863298926
90.9947686841242
91.015222408758
91.0482071581248
91.0804308472613
91.101075714053
91.1258803678515
91.1503307476479
91.1506129860474
91.1615723324357
91.1779374038157
91.191450872785
91.2040832861887
91.2207195600747
91.2425018597638
91.2482439739684
91.245031543564
91.2546292312272
91.2371116882325
91.2295991628556
91.2121966549474
91.1471519444368
91.0529425729248
90.9371013513684
90.8473728588331
90.6823127716875
90.4228993540514
90.1596648928126
89.864213792377
89.5135123382333
89.1226856313206
88.7242547662031
88.3448063028373
88.0150514643473
87.6929640637718
87.4022847968057
87.1989624937392
87.0862502940893
87.0729638007533
87.1599778272541
87.3161435894835
87.4749315188659
87.6635312029094
87.8212273657134
87.9290453666097
88.0460165414959
88.0966327972773
87.9796297847284
87.7168944314805
87.3567102389757
86.8727992118955
86.3107358725931
85.7071916811665
85.2362206374389
85.1751577196847
85.6935720024725
86.5211202253342
87.3663108817343
88.0791284081002
88.5692001200964
88.9251506593044
89.2009675597475
89.3730878095327
89.4729927740937
89.503604851543
89.5712618616582
89.6515810206479
89.6955049697271
89.7721861047448
89.8334559922027
89.8397499729802
89.8785908090795
89.9120668495681
89.9388673924786
89.9066092428493
89.8377320618424
89.8112705847484
89.8639821677298
89.8701201262651
89.8801480131868
89.8778078873114
89.8960597956855
89.9028634529262
89.9101502390324
89.9420703373802
89.9249405993213
89.9167024888969
89.9554461232767
89.993732776037
90.0126554499924
90.0238493306758
90.020817023672
89.9608624162607
89.975820811477
90.0334575940539
90.0391097543205
90.0193181026282
90.0458178071527
90.0484289474857
90.0440455727904
90.0439906325562
89.9926949942318
89.977409165687
90.0228805512814
90.0243475098308
89.9961860054157
90.0177085652722
90.0574074069372
90.0054132427586
89.9723923787933
89.9406007802544
89.9078810464119
89.8640233144381
89.7414932175968
89.5478267330938
89.3000407787731
89.0125555527802
88.6208160596422
88.1394279426613
87.7074840341452
87.2616313345678
86.8164222217783
86.3809709147584
86.0416972637337
85.7509384464313
85.52797012037
85.3076600992312
85.0893543465617
84.9284928643899
84.8665019811286
84.8442805427163
84.8120668808773
84.813055622531
84.9422111187063
85.0804375969446
85.259277220415
85.416323350326
85.5053867511779
85.6025019741749
85.763204694603
85.9024679224651
85.9995467102357
86.0408285109593
86.4703079970744
86.6132197859838
86.5815309395723
86.5736936652019
86.4276726399408
86.3115951571685
86.4049965177181
86.4865907133314
86.4995006228625
86.5362293587779
