1798
3999.43349933624
650.420452594757
1
128
4
96.3984989434754
96.496266322697
96.6180766144288
96.5743520116734
96.4707533198587
96.4791134468926
96.4785757703289
96.4251616443291
96.3269975776668
96.3989943078764
96.4641367949939
96.4474442706066
96.4664689140608
96.4830576525538
96.3925358037199
96.3845133603394
96.4676854643701
96.5223023289978
96.4756816955634
96.4281345718017
96.3496190006559
96.3421671849246
96.4446737629455
96.5296011539929
96.5598041754033
96.5587253879408
96.4287649484155
96.3647068133027
96.4000657103929
96.4661014270873
96.4739641917652
96.4424607923066
96.4354455952284
96.5308620091247
96.596078218082
96.531713836937
96.4521959456979
96.4937561111973
96.4530170007353
96.3899274475177
96.466860199155
96.5704978001569
96.5575159744193
96.4657255305065
96.3766003939141
96.4407462716041
96.5227495291048
96.560143356987
96.5325827608597
96.6135879456502
96.618739086289
96.5302938679346
96.4815321747184
96.4646592377097
96.4337574305224
96.5220019365431
96.5836852181728
96.5516115095362
96.4483926070581
96.4677329325582
96.5900471671935
96.5505801284705
96.4743110301554
96.5014298567323
96.4638927474339
96.4330423381702
96.468983238216
96.5943624150988
96.6039424923491
96.6560388702477
96.6388794380929
96.5658523899695
96.4490867247816
96.3915916192484
96.4700234424323
96.6207686525603
96.7120918342984
96.6649357772779
96.4873485201401
96.3915758557787
96.3399872108586
96.4312327572751
96.6080092787369
96.7214798366814
96.746992408061
96.6815681238521
96.5234189224958
96.5321512576034
96.5099649607349
96.4208064941615
96.3839651974219
96.5206161873715
96.6406442714484
96.6162679439797
96.627827081351
96.6396492558952
96.5464181186518
96.5607135769729
96.6110976204335
96.5280709545493
96.4922447546326
96.6606936684663
96.7324422300647
96.7140551877067
96.7232483844158
96.6935896680746
96.5854561736713
96.5552227678457
96.4661463722161
96.3828655682618
96.4692649723828
96.607673628037
96.5699183741773
96.5592145442456
96.6309349924538
96.6822325125726
96.7165980591223
96.7183783696012
96.6656825484322
96.6964427626689
96.6889426294231
96.6742399113711
96.6482628829737
96.6463863243136
96.6920354015802
96.7376396880173
96.6695981545303
96.6407678141843
96.6531208937587
96.6269151420462
96.6129594471546
96.7353194954296
96.819367072752
96.7135723777819
96.6545402164509
96.6900286389026
96.5829925522591
96.476025650007
96.4946837608328
96.5363029969834
96.6430503369447
96.7528369557972
96.7028392724787
96.551428768788
96.5159253158433
96.6620136293373
96.732674777687
96.7557329797738
96.8116966138202
96.681135000658
96.612867044324
96.7671062570007
96.8172178592309
96.8048648225084
96.7751411456437
96.7152580997961
96.7294147966961
96.817779180184
96.7595482099015
96.809423658478
96.8849729085252
96.8733937381402
96.7963314656582
96.7415185228596
96.796191534835
96.8106567635998
96.6716531655767
96.5992442439386
96.5991338999006
96.637875162643
96.7293121181691
96.8988347785889
96.9785824439975
96.8662351299268
96.7290025589303
96.7760664246455
96.6748335745913
96.5758903955845
96.6199632768476
96.709504232203
96.6990087817358
96.6634957850988
96.6731377723025
96.7475148620913
96.6645599490728
96.6933957037178
96.7364418669053
96.6608697073846
96.5907411224818
96.4268951396535
96.3392367265176
96.4080736440726
96.4445989635414
96.5549974299487
96.5446329232353
96.4741560682299
96.5334000026661
96.4880479747745
96.2375323098121
96.1684300014632
96.2067995344211
96.2344540655255
96.2584524238407
96.2662438495964
96.225655142225
96.2700735318304
96.1346514301175
96.0597712319971
96.0852870799387
96.0769524405988
96.0598993659929
95.914071553652
95.9063566125647
95.9745629560596
95.9413156083606
95.9391755381617
95.8303265787998
95.753778420106
95.7668143733401
95.8013380535203
95.7972056503727
95.7436396866402
95.6663294557317
95.6285636725585
95.702234668676
95.7169007527401
95.6445622184964
95.5564495194048
95.5322560180328
95.6294882844109
95.6847354402354
95.5503520271064
95.3102138342386
95.2697555950352
95.2154270994558
95.0869242569612
95.0344978005777
95.1361468959308
95.2437586800405
95.2888936546972
95.2382202929711
95.1207614667047
95.0596487162694
95.0248759729387
94.8963341710538
94.8592019958586
94.9202605842879
94.8371991274399
94.7227983262627
94.7394777810725
94.7608323818384
94.731330953091
94.6129637829101
94.6541023277212
94.6800445716147
94.591528364433
94.5595151111518
94.5665459022579
94.5292143352919
94.5193628035987
94.5191179920995
94.4760313837636
94.3506654422456
94.3022866640321
94.2278451589416
94.2443303387854
94.1858120582385
94.0446133780679
94.0508964032273
94.0938452306632
94.0936155860819
94.0716670496701
94.074859462776
94.0450251113219
94.0069205182231
93.979157114133
93.8187115250646
93.6955597713455
93.6220101468012
93.5808964730118
93.6228257665336
93.7514929378631
93.7505725706697
93.6289316770246
93.492813267696
93.4980072638305
93.484599694482
93.424196681237
93.2286000920261
93.1380247152846
93.2611013630138
93.32832995365
93.3114491151079
93.3393322882096
93.2496559646082
93.174385948909
93.1625557542796
93.2232422215503
93.190431844289
93.0854907897782
92.998065499418
92.9331940303915
92.8255754480555
92.8923476786522
92.9436341014397
92.8564153836655
92.7788507174313
92.7793295226522
92.6986685359154
92.6960319505533
92.6711639352391
92.6346044460832
92.5542950981575
92.5273986340473
92.5071773338091
92.500412316532
92.4805210970436
92.4581502053107
92.3542707967689
92.2762647474024
92.1984752446428
92.2794823579302
92.4223106702231
92.3667028600118
92.3186632547354
92.2877185128372
92.1481588931923
92.1096184747581
92.0591287362331
92.0326197268316
92.0414147899562
92.0864273368369
92.0876927697746
92.0665327425422
91.9936002518728
91.8988096134862
91.8753183175658
91.9665606499162
91.949426925919
91.8772173970059
91.7300227549636
91.6903914214308
91.7929152536567
91.8242834848942
91.7917415569796
91.7561711221083
91.6773002940484
91.6366865348473
91.6220679347499
91.6910271375554
91.6589239439587
91.5304425026915
91.491571224386
91.588343526193
91.6385823277683
91.6283509092002
91.5830278919431
91.5171791028977
91.5279806220818
91.469927761348
91.3885464901858
91.4196908480697
91.3478274306554
91.3538843957774
91.4569325622205
91.4572519102689
91.4463082634284
91.4824294535033
91.3919770715647
91.2915224801668
91.2683543587949
91.4476122566321
91.5000260493988
91.464295936342
91.4167349452913
91.3494587935219
91.2902560438142
91.3005197120044
91.3154918839959
91.3119742838455
91.2264010201056
91.1993561609325
91.1994872752831
91.2314032682552
91.2539369169518
91.2164184311893
91.1482696604538
91.1690198872928
91.2168584357617
91.2613506526499
91.3233568616268
91.3555199282947
91.2882873087102
91.2358683038791
91.210374828736
91.2310929307513
91.2044337921601
91.2262236971264
91.2052590438264
91.1891749267996
91.2517767927041
91.3383041155142
91.2751885578747
91.1768055568945
91.1579795357946
91.2910390149503
91.381069290312
91.3676811954383
91.2684264529187
91.2999377865546
91.2768853570332
91.2584025552618
91.3028244485299
91.3593360635394
91.3126079792939
91.3043705966669
91.3316941864741
91.3671688851402
91.3905011134365
91.3824027339462
91.3292746606434
91.3556998065284
91.3502890245513
91.3443668336126
91.2878472234509
91.2989587338043
91.316985466924
91.3405763211068
91.4033707638244
91.4998491035781
91.516350876089
91.5169971588558
91.5585296220512
91.5051133235063
91.5053020732055
91.6127094897713
91.5263403145808
91.4331047665455
91.4984707219677
91.6161264496515
91.5949318836965
91.5519005316549
91.5387685689784
91.5881768200191
91.655455547768
91.6946209719822
91.7033012097566
91.7000947237022
91.7653066809808
91.8495292881651
91.8912632567125
91.9197020974112
91.8485995226848
91.8537139801429
91.8323828064465
91.8122308248753
91.9389828304155
92.0050112654527
92.0012318330032
92.0521695996937
92.079918529368
92.1138500686076
92.0805855599466
92.0599027594936
92.1278675495316
92.2096713587338
92.1478189005929
92.085188852741
92.0770955652091
92.1495254746115
92.2399185997296
92.3192232720425
92.3738659856974
92.3245912897798
92.2394516079647
92.3381227420732
92.3314104373801
92.3358214222275
92.4362202277149
92.453244742622
92.4156336749351
92.3868754334558
92.4112360927951
92.4125820028108
92.4149073809932
92.4989178218814
92.513243366641
92.4881047449592
92.4860949254917
92.5320994407088
92.6457877848033
92.632538577222
92.5924145396018
92.6200857863137
92.6167366137113
92.6231634354107
92.5384612362103
92.5373481147902
92.6260646996786
92.7409889672215
92.7265585179267
92.6885032802111
92.6627624342479
92.6752105566559
92.6818366327432
92.7481503855543
92.7584077541231
92.7525752835522
92.8201138200284
92.8629405143168
92.8461342388437
92.8766315792387
92.8830927100112
92.9412551402799
92.9589643333566
92.9230814497752
92.8891392702443
92.9377434489649
92.9504674425987
92.9108832070646
92.878893332814
92.9619545592651
93.010408290627
93.0376670295772
93.0606966291355
93.0782616401137
93.0904352847712
93.0971188618915
93.1049811190279
93.1661867157654
93.1904531445129
93.146428362324
93.1475800869359
93.2188772291826
93.2207876922776
93.1245308477452
93.0684076544499
93.0985544120634
93.1252196002741
93.165415060032
93.2493427780155
93.2737710306805
93.1533866522102
93.0941797544832
93.0936349532671
93.1048379079629
93.1443184731934
93.1368656610364
93.0760270440146
93.0191607167973
92.9724948697785
92.9443972829743
92.9073665111078
92.8433595900878
92.8288542652655
92.9097678407597
92.9739142385718
92.9042388105351
92.815309678876
92.7566838078495
92.7185732825656
92.7177442189163
92.7259316641217
92.7360481264809
92.7519363384906
92.7316026082161
92.7521554571399
92.8001488855019
92.7437518101263
92.6549059606788
92.5408157311502
92.4970140348783
92.542160851592
92.6044792956944
92.5445060521008
92.4601906235984
92.4878821330236
92.4892993505036
92.4867950004538
92.4989135862896
92.5244491769102
92.6213829876864
92.6798926461959
92.658404609308
92.6552057639939
92.7310603001159
92.7679935525458
92.77605202686
92.8098866561813
92.8114199316127
92.8138504896813
92.8615853646683
92.9358877273928
92.9965755347197
93.0348316423062
93.0545918255235
93.0176946013374
92.9667301203192
93.0119613916238
93.0883022823886
93.0813401136175
93.0717472277671
93.0392540086047
93.0003486957432
93.0741892972073
93.1712990957574
93.189891571051
93.1449601681099
93.1357955115379
93.1641247570901
93.1437051719958
93.1804753674904
93.2451127689694
93.234064942453
93.1716786494419
93.2293731429799
93.3264089663428
93.3738003379382
93.3543189847128
93.3159527749349
93.318107415109
93.3728204414945
93.4358232256623
93.4948334395552
93.5736930426743
93.6603183360894
93.5959413322102
93.5841581528833
93.6276937829733
93.62402654659
93.7043059514634
93.7719142769424
93.7600813297886
93.761532775493
93.7630673113332
93.7563633481557
93.7618790186419
93.8030491943313
93.850620734249
93.8710022998677
93.8516658325773
93.83628445502
93.8757105937741
93.966315584382
93.9451789204924
93.9177671394462
93.9271714705198
93.9341002169336
93.9546752181238
93.9617480139288
93.9717992770745
94.0259831130355
94.0610102593078
94.0874542090959
94.0597069201955
94.0278311242105
94.0539348079502
94.114034712698
94.1280789932775
94.1696311759398
94.1775778502047
94.1489256996461
94.172591291168
94.1916254589516
94.1279721230231
94.1210639242747
94.1750992921223
94.1993184053043
94.2134865664564
94.1956317260259
94.2111596780792
94.2339544054185
94.2417808786783
94.2350371237898
94.2767019632783
94.2824522899692
94.2577198825797
94.3013541570271
94.3183624519921
94.3314117551717
94.3580209376051
94.364908251244
94.3388146794971
94.300324843011
94.2830747698699
94.3175698932355
94.3340317045968
94.3540595577769
94.3758076422944
94.350704730162
94.3501148616206
94.4218106461516
94.4516189209856
94.4475578549396
94.4814162208559
94.4418282282851
94.3985860358017
94.4391642595976
94.4767010414181
94.4789637270064
94.4626799609813
94.4839942772805
94.4920934794187
94.5208101527342
94.5045732975041
94.4806129510819
94.4918224620476
94.5069868063369
94.5293685968533
94.5668097687805
94.5846359928294
94.5344797024603
94.505682425535
94.5548405302925
94.5991386630124
94.6214281586835
94.6309540351139
94.6265779187733
94.6069579537567
94.5857805655433
94.5832742814079
94.6196239883331
94.6166345393043
94.6034487211331
94.6461955441504
94.6658789910883
94.6301562324384
94.6617179407843
94.6966113377422
94.7165379765991
94.7348847804184
94.7194621100191
94.7397695992269
94.7420550556453
94.7779946359786
94.8154685841681
94.7565227956722
94.7084266318252
94.7796266003904
94.910525159214
94.9385796687186
94.9123385191399
94.8909781283336
94.8827398748957
94.8991753606764
94.93592556648
94.9608419897855
94.949304223052
94.9347646055446
94.946608182138
95.0162211075003
95.0827272484873
95.0858677342185
95.1072907120765
95.0757255656076
95.0747108911769
95.0825585660961
95.0508991946442
95.0040621179147
95.0711798538188
95.1717370910064
95.1853453658306
95.1455349054266
95.1827298964708
95.1715458691509
95.09013149614
95.1164687802619
95.1762858572244
95.1372343286021
95.0690532065998
95.1543341065698
95.1369582085235
95.0946430456739
95.2148821154414
95.2595532684115
95.2260208286367
95.2713184480562
95.2757807364633
95.1640189178268
95.1633256601443
95.2947897850511
95.3937837754714
95.3234170178334
95.2791314090236
95.3709281524851
95.4014282358384
95.3181386364684
95.2642696339581
95.3257984516475
95.3839020665341
95.3973450959031
95.3858950253984
95.3481848405797
95.3666939124359
95.3737732625234
95.357684893144
95.3516138563548
95.363529166584
95.4243869386749
95.4710319596499
95.4198020253931
95.3984648344267
95.3768969245807
95.4046766302914
95.523722540454
95.5273996689922
95.4425130919236
95.4012514594212
95.3491888647755
95.3351334174848
95.42391170385
95.5097488281866
95.4549082543883
95.3921954241376
95.359686225206
95.4095625940984
95.4130112605333
95.3693099634546
95.3896819076854
95.5097945698596
95.5316817735692
95.4032378019545
95.3684029871767
95.4488294945572
95.4408673272704
95.3915761657376
95.4251368849348
95.5113756383001
95.5211926854841
95.4295816048948
95.4410780589338
95.5359900350144
95.5844505726287
95.5743988644091
95.5840759173211
95.5652239134921
95.5329513678535
95.5245293244168
95.4966043596084
95.4722024696254
95.4801809117042
95.4517258259661
95.4391694924732
95.4690862879957
95.5257218715719
95.5548752433727
95.5122313832785
95.4845180023136
95.5332703267448
95.5587890611802
95.4497178061442
95.4557822057232
95.6155451904469
95.6772316735971
95.5779118780942
95.5466033113979
95.6016184304361
95.5725981225122
95.5570423996926
95.5554070670086
95.5890463956677
95.6151230809923
95.5534518726167
95.4936341771732
95.4955058722171
95.5465644221603
95.5804032364301
95.605755883189
95.5599989771276
95.5289886724198
95.5788557815204
95.5660939846778
95.506009739264
95.5188114735587
95.5708199522706
95.6272770193444
95.7103864683058
95.6889043512377
95.7090051664528
95.7061055343235
95.6557914521649
95.5425147943548
95.4800867835289
95.4360625233182
95.4175932344539
95.5358374850745
95.6178979405415
95.6437392138566
95.5968213918525
95.4425019166098
95.4260899590177
95.5490873629887
95.6270972767737
95.601286308313
95.5664668600851
95.5597931000175
95.4967601683473
95.4480338792253
95.4899908166212
95.573625861413
95.549759111747
95.5176236776382
95.5205111624415
95.5486044934883
95.5676229342112
95.5399172640628
95.647954549569
95.7140585211728
95.6541320369047
95.6501860557135
95.695271209655
95.7241186357048
95.7337624658282
95.6910038152146
95.6183186718898
95.6177968532873
95.7038558996901
95.7436343018094
95.742592696374
95.8505804907327
95.8856021863092
95.861033712125
95.8998522645215
95.9598110113613
96.0103370759835
96.0203643011386
96.0437346156242
96.1044236968808
96.183169745
96.2498666448196
96.3428528752778
96.2593549760487
96.1743637716782
96.3641842422864
96.4340548957449
96.3476398856052
96.3131577522691
96.4364323862818
96.5068191001828
96.4203464025355
96.4346523294743
96.6362177661114
96.7208807581981
96.5898330541863
96.5350469436776
96.6113019984013
96.6624607259205
96.6676035768918
96.5841984280715
96.585389850296
96.6339452149354
96.9640645971874
96.9410556791693
96.6472037535003
96.6682928880711
96.7912215275419
96.8681475260058
97.1647465387054
97.4448389193902
97.4134585402077
97.4192941545684
97.3251409744426
97.1734893130119
96.9481328788728
96.7873083618477
96.9081280309498
97.2126190452426
97.4666209946918
97.5427092769919
97.4970773420138
97.5479398075366
97.7392572246446
97.8636589665759
97.8363795404715
97.9035038119741
97.8656542199048
97.7766191506359
97.9453721125655
98.0544360386088
97.7831782117974
97.8744907322836
97.9358994814902
98.067480638765
98.2121461672069
98.4492966958601
98.5423453534684
98.2709764330879
98.1281077237591
98.5287586232765
98.8331057974103
98.5591648616768
98.0524523002339
97.8571105040415
97.8280252078494
97.6443611981023
97.6587863685295
97.837567674042
97.7026704798835
97.379134150458
97.178372740973
97.170162588462
97.154833190831
97.141372885672
96.9904984538378
96.7675337688915
96.7065699424159
96.7974785430346
96.8954877871806
96.7682543125357
96.6771986127702
96.7361694423727
96.8059638134773
96.7250329201159
96.716698878368
96.68316142183
96.577340866934
96.6791804023128
96.8706943473732
96.8781812537881
96.8546194700121
96.8399614408827
96.7395474816272
96.6613730711632
96.6970723604565
96.8863276558392
96.920379976777
96.7840272039387
96.8007857092151
96.9538494883011
96.8094590561503
96.8026026114635
97.0717015601701
97.1293795624096
97.0703826219512
97.0699682208614
97.0837184645097
97.0586265979383
96.9139269508082
96.857293840286
97.1627626278708
97.316246740958
97.2355043166204
97.3819522461272
97.5597119515012
97.4754127596425
97.6159497652108
97.6669027196104
97.9496414407645
98.2875500424786
98.1110918870666
97.979565690028
98.1950634881874
98.5181845843477
98.9425859332174
99.1478831224962
98.8494231220224
98.6561313526082
98.5293634080498
98.6773158932483
98.6605984048529
98.7725978048943
98.5837483279681
98.4808516771802
98.5700470488314
98.4101145503965
97.9268391030878
98.0292852171735
98.0771749358014
98.1265128201951
98.5222930997229
98.4880743171786
98.3008067806979
98.0651844637907
97.9391880501593
97.8596153260237
97.6832945266397
97.8059199284962
98.06532038609
97.8936315765529
97.6408157191425
97.8256146889511
98.0954791230161
98.0742684871482
98.1790336990877
98.5127805924622
98.4739184824192
98.3837165657281
98.4899108441718
98.3259587192805
98.1407441644631
97.8978732488727
97.6631374244822
97.8950442045537
98.0725310220675
97.8743584044495
97.6270604839589
97.6752032501307
97.7422252181891
97.5813081193371
97.2835517058956
97.2588483819228
97.4221175429298
97.5172638760245
97.2966172359123
97.1536967855891
97.3298101640096
97.3161352094747
97.2253397002697
97.17720736127
97.1073967441148
97.1261136247191
97.0739774918758
97.0206079376293
96.9092132303628
96.9568262206061
97.0060462624665
96.8616339552685
96.6892251542497
96.7388663605097
96.8887365432174
96.9974919100919
96.9639739306373
96.9087818367166
96.7749602277841
96.7654036408442
96.7450620273023
96.7141176345725
96.7843470425548
96.8160155799519
96.7714399416748
96.8033890062268
96.8416791151516
96.7729144121441
96.7332410155615
96.738615902205
96.6597936851996
96.6256216558094
96.62018461219
96.6163603277335
96.6727003965267
96.7568785581484
96.7550067860113
96.6420687736325
96.6352775681396
96.6888035076485
96.7068211446974
96.6711558673988
96.653938753187
96.6866752447877
96.7327259251772
96.7244404520191
96.6829677247036
96.6800790530374
96.7183344142096
96.7537515108653
96.7701505269616
96.7131288052347
96.5897439793902
96.5511718803916
96.6432350255312
96.7122053757898
96.7136194665448
96.7084971370714
96.7024756105217
96.6760833324323
96.6870263507278
96.7067774934868
96.7035731284786
96.6880059691796
96.6962385067494
96.7044119457941
96.710076480994
96.7611606406173
96.7376382430348
96.6700964578821
96.6224064970089
96.6651844515791
96.7281148772878
96.7517113759951
96.6908764760943
96.615528719086
96.6365658324017
96.688314730873
96.6754325709176
96.5968476767221
96.5480221182323
96.6126215043927
96.6729677778845
96.6312846894218
96.5499013695272
96.5425557291058
96.5567300443801
96.564884342333
96.5327104913584
96.4848251062059
96.3631978351442
96.296462858468
96.2565911647514
96.2933122355522
96.3111623482619
96.2448810092617
96.1866464593755
96.1919342137913
96.1290307237619
96.0501141323902
96.0148160374502
95.9489407722535
95.8631680103414
95.8275576749359
95.7539769974298
95.6660464587863
95.596477182466
95.597942745007
95.6060204479194
95.5999525123319
95.393214218006
95.1530373394245
95.091208542019
95.0753712212852
95.046019320325
94.9987551152459
94.9197683107169
94.8902183648595
94.8167741399395
94.6524013597449
94.4474278986235
94.3315462755581
94.2741858664147
94.2074433783322
94.101510924519
93.9977709847556
93.8818512826121
93.8284141120573
93.6344466381738
93.3575894044602
93.2092883133748
92.9820670758544
92.843740271718
92.7319832385477
92.5767420431721
92.4514207497041
92.2689968337348
91.8910317513262
91.6416626155288
91.5398059112979
91.3780428899694
91.1650340932984
90.8888616500069
90.6828622174035
90.4582464629319
90.1933457494683
89.9681976345982
89.7997325062774
89.5502911435693
89.295770906206
89.1354959395125
89.0124761959884
88.8665044438931
88.5660955935948
88.1936257248985
88.20300237149
88.1294931446759
87.8027648420321
87.6024902142319
87.5955698457634
87.4967036538424
87.3563643615892
87.1736477597927
86.9013124810606
86.7955672671562
86.8456298833441
86.770452083881
86.6099195381793
86.4989968870835
86.4020757987413
86.2593960848681
86.2342907103538
86.1480699831108
85.9077676308773
85.790248251862
85.804279133864
85.6961438043135
85.5505633052297
85.4226690487345
85.3207513785645
85.212702714984
85.1387647778718
85.038523967104
84.9708530129929
84.9041474370686
84.8089236794854
84.7296297281289
84.6748580475951
84.5985211015062
84.552903028248
84.5326740023001
84.5125452791357
84.5158867302781
84.5389269361033
84.464740329201
84.3493536547847
84.4719173910673
84.5766752398829
84.464798035771
84.4033052038828
84.5355754986849
84.6387437479978
84.669770155382
84.5413907442104
84.2106432900837
84.4556853354484
84.8689672479741
84.9239808891907
84.967537387306
85.0360846874231
85.1711403444444
85.2943985461527
85.2920304448043
85.2982019013913
85.323619906457
85.5952313776833
86.0765978622858
86.1945999576093
86.1444591917254
86.4160827976145
86.6673194205855
86.7649221896531
86.882327481193
87.0391869310625
87.0409314050664
87.1766719390976
87.4490999028848
87.520618600483
87.6661201280909
87.8248540844992
87.9363982889824
87.9470717189987
87.8270927021955
88.1382032585385
88.6415184777245
88.782190391624
88.7919056391283
88.8215709650816
88.9876981155737
89.2791968652216
89.4043343694379
89.3861632680993
89.5379388261355
89.7821085001601
89.9582152379811
90.0409629745336
90.1034648201636
90.201585166398
90.2326466970926
90.1917168539179
90.0862837294432
89.9474940634015
89.9538691035397
89.8768627296444
89.6889036267338
89.4861035620137
89.4276178918633
89.3202739341013
89.0567641033837
88.7588312414591
88.7644036775162
88.7859389573927
88.6646297225535
88.5124227220089
88.3978532566668
88.3473330997587
88.3099514923848
88.2615442146654
88.2260394322452
88.1303120141961
87.9412215511941
87.936793447478
87.9191633262434
87.7448874385739
87.5798842766006
87.4523840020941
87.2774300409315
87.0981511208983
86.9339526126429
86.6480435701647
86.4696606293825
86.420933958024
86.2823634362879
86.1056671586945
85.9621476859688
85.8358067816754
85.6718749175169
85.5594587509963
85.5371011200899
85.4866361516016
85.3763119750697
85.3619106827203
85.3583964902325
85.3815575267155
85.454401707778
85.4408290263696
85.3805369451972
85.4284681568949
85.4931162856316
85.4869500639464
85.499386126988
85.5411448773233
85.5888536605495
85.5982188825438
85.6644680870762
85.7775633065884
85.8402719053485
85.9315844316335
86.0414608635518
86.0806786224486
86.1420562205789
86.2856387209406
86.4199703712208
86.5193333052975
86.6102175822601
86.6990527957237
86.7833265560233
86.8693077037078
86.9574492667023
87.0474702287422
87.1407217381727
87.1913297051777
87.2384608658844
87.3284931488032
87.427095355367
87.5032256398067
87.543319807563
87.6043483683058
87.6559200909818
87.6956143449047
87.7542391498157
87.7777712671171
87.7885522620907
87.8234429798869
87.8612256794961
87.8965930265319
87.9108999939959
87.9395929472159
87.9809754606992
88.0060041274331
88.0428058292607
88.0919029366935
88.1484585466184
88.1707874939549
88.2104131135293
88.2581631667487
88.3117259172602
88.3512386423442
88.382938119624
88.4193271412578
88.4375309880433
88.4574312365508
88.497787111953
88.5349655668317
88.5295294669647
88.5181553124541
88.5081676929534
88.4851340576453
88.465191135392
88.4447165651198
88.4044437958556
88.341688244612
88.27524260916
88.2450938209327
88.2278077052551
88.1914097351362
88.1611361469834
88.1485938156918
88.1099971304069
88.0554556928156
88.021055347465
87.9948716923488
87.9556142143075
87.9208285812936
87.8751813726903
87.8384520161969
87.8280282515701
87.8193555781973
87.8032649581688
87.7967491171136
87.8070802920939
87.830307482525
87.8360923237806
87.8567854974221
87.8948531546663
87.9093517361306
87.945054222616
88.0200041280085
88.0594317086488
88.0945336461528
88.161040209514
88.2333190574691
88.2966709902594
88.3543556103362
88.422041308152
88.4917600608581
88.5383876731102
88.6091011797602
88.664898314595
88.7046272977438
88.7717866334734
88.8458755821156
88.8872987924168
88.9356525768929
88.9544614434394
88.9474559510557
88.9396717490277
88.8981449277011
88.8709526874264
88.8507263525896
88.7881549561059
88.7334709494613
88.6835751658136
88.6215093345044
88.5457731816811
88.4900686222499
88.4404141172498
88.3625755544819
88.2767083838087
88.2167977515733
88.1557517736281
88.0620116083462
87.9478952198249
87.8632778067056
87.7909153846339
87.7059272357747
87.6247995843759
87.503333041093
87.3471236195693
87.209552968707
87.1060175495734
86.9648713938464
86.7899445785171
86.623491632422
86.4456243416629
86.2899912755023
86.1168984809547
85.9463550224321
85.8204027089762
85.7138414830861
85.5934574724236
85.5115803250682
85.4467689032572
85.3502907771977
85.2486931260769
85.1710705906814
85.0670065810856
84.9394456588118
84.8105558251804
84.6799381689284
84.5239856224926
84.3556556830455
84.2063999653635
84.0553184268703
83.8673472533284
83.689033032992
83.522920646635
83.351399993957
83.160326547201
82.9806949825491
82.806743005022
82.637410622089
82.4634977384065
82.3131162761912
82.1580059507103
82.0028363191079
81.8510373235353
81.7348340296892
81.645289917347
81.5189493737211
81.3802222523806
81.266003520715
81.1510395266971
81.0447494814751
80.9317396354594
80.8025305561432
80.6791422946371
80.5864197967083
80.4864894028564
80.3854688599571
80.3082697978485
80.2178326757519
80.1550481755869
80.114766008334
80.0700480201578
80.0222143583127
79.9802144030285
79.9711549219355
79.9686732762651
79.9789870807949
80.0082718422256
80.0725689192578
80.1396468516795
80.1981587407718
80.2585555946831
80.3766852891577
80.5037344034204
80.603397933275
80.7369663564981
80.8944234244858
81.0436371850172
81.2111435663006
81.3777242734108
81.5410710953657
81.7009947841926
81.8812258226714
82.0561233958476
82.1935963818703
82.3377112651697
82.4883810886226
82.6319144756761
82.7813576038913
82.9128459771619
83.0270087391568
83.1238734784208
83.2500284477013
83.3872676827563
83.4738132656459
83.5569209865044
83.6651732481548
83.7783928305244
83.9030940803877
84.0607264809711
84.2158274702022
84.3298060686274
84.4292257639947
84.5393291789916
84.6871616620487
84.8103102718051
84.8989570589393
84.9909803776859
85.132424227915
85.2874046137954
85.4168413969979
85.5190660092465
85.6173000634749
85.7138466931268
85.8457863571152
85.9829835808314
86.0935595947734
86.1715480089808
86.2445059188431
86.3408614683125
86.4230054843553
86.4802575253674
86.5462508686555
86.6384251444224
86.7017006741989
86.7506562047059
86.8108738043815
86.8528448372362
86.8905920559458
86.9516813808495
87.0493478394257
87.0971443404343
87.1691718131118
87.273581795073
87.3266137276634
87.3609093930478
87.3872718208968
87.4267974308851
87.4938872907843
87.5564067724471
87.5885199586037
87.5934418200518
87.6079759993959
87.6036729547932
87.6161511830199
87.6498261815242
87.6827029500041
87.7308554021349
87.753307539886
87.7309181242788
87.7124960323218
87.7222654287292
87.7864227662634
87.7970469896015
87.8054463606708
87.8113819285967
87.8201186199763
87.8263691716059
87.7961294468651
87.7844603991268
87.7851906234891
87.7515737049937
87.7150633784706
87.6903717962052
87.6474614254601
87.605956683715
87.5769979118087
87.5252600222805
87.4770860583945
87.4418019738496
87.418002241113
87.3929288420294
87.3654802425203
87.3638933780881
87.3633904962096
87.3211452212025
87.2459772474601
87.1688172773267
87.1480158226608
87.1019343214385
87.0372156135734
86.9758877351657
86.8853711681666
86.8352129549099
86.8549755499261
86.8454187582876
86.7998847866092
86.7528346413734
86.7237871979124
86.6906608174075
86.6293830019979
86.5761817409595
86.6051989786136
86.581187301636
86.5143934052649
86.4608361765021
86.4659916597359
86.4476875499764
86.4241770062796
86.3488467556151
86.340025939409
86.3433586183224
86.3228919914042
86.3453933799284
86.3285151466925
86.271221418165
86.255078468104
86.2198613611006
86.229051047107
86.2144630599987
86.1599922516734
86.1583748330045
86.1610200787356
86.1311872073922
86.0831121819839
86.0193058827307
86.0013423176665
86.0266753453359
86.0102575268619
85.9259275389564
85.8475764995994
85.8172000787168
85.7849609519472
85.7603016082661
85.7245486654751
85.6964808049713
85.661310075958
85.5834026925815
85.5484753685957
85.4793036722416
85.3675044968055
85.2533678280777
85.1959418552676
85.158780757303
85.1108152912837
85.0488463220861
84.9898902274062
84.922043992822
84.8738110931508
84.7570312976395
84.6313490995702
84.5153249535335
84.4252364031667
84.3665986781722
84.3585643054
84.3066525152641
84.2572231217828
84.2236440333661
84.1553872291182
84.0893940579613
84.0541778936339
84.0400411683506
83.9628124871831
83.8206672470783
83.7612666590978
83.7578522268066
83.7143549744389
83.6421009924289
83.5888974159746
83.3357435436379
83.3231170386207
83.3793587277042
83.2655680961592
83.1829103554311
83.1339078772286
83.0806333895708
83.0005101776472
82.8875291612816
82.8154949016692
82.7354878175792
