1798
3999.43349933624
650.420452594757
1
128
4
95.5722750125257
95.5096282038071
95.5398236968257
95.577330231917
95.5648114377931
95.5145023274245
95.5368070113102
95.5626782303488
95.6066662060048
95.6737511623802
95.7332872103506
95.6391637694168
95.5976326766765
95.6033479084374
95.5837815017548
95.5582592490973
95.6248489153503
95.6746308904741
95.7503571091075
95.6931765362279
95.6284869455796
95.6125879735232
95.6813640428972
95.6087471100326
95.4907148748745
95.5519649759576
95.6773838314704
95.6853547264113
95.6554599359034
95.591096638667
95.6137177299708
95.6483419609129
95.7322284227089
95.7033300898852
95.5889845031127
95.5382793221588
95.6813672515726
95.7617385113391
95.7524681189355
95.7218144684239
95.6907342777084
95.6501373055053
95.7080156827806
95.6475767591028
95.6385527062397
95.6990854294457
95.7560985011358
95.7071962855587
95.6494114932525
95.5000902014849
95.5258539992505
95.6162129236804
95.7372280713525
95.7889329875593
95.7893018138454
95.7828975842884
95.7455187544921
95.604809660826
95.6231820267283
95.7115294053547
95.7523149544283
95.6355257214807
95.5698659889606
95.6439627184235
95.7644480481269
95.7683429405283
95.6904214240205
95.5886210514021
95.6530226453696
95.7675485014084
95.79307671515
95.7414667871689
95.7527926486455
95.7736523681075
95.920921742114
95.8189360607956
95.5537637340492
95.4617390113556
95.7408929642186
95.9444102324168
96.0553677608993
95.9794548120153
95.7759624126048
95.5187712361552
95.5072160193391
95.7139965873965
95.8890749344844
95.8495834624236
95.885136602447
95.8890597694487
95.887148112165
95.8357511183409
95.7795392569492
95.7383443378542
95.7999849978785
95.7397651361039
95.7011880301293
95.795889164357
95.9005742421328
95.8654725602073
95.9653653959747
95.9889132824126
96.0193138758433
95.9670826465047
95.849432027471
95.8274890720651
95.9672913135089
95.9948092423534
96.0468255448971
96.0240452026939
96.0334239108815
96.0639510756614
96.0175672196186
95.9443386235033
96.0120925055612
95.997079772013
95.9672346279234
95.9808785962961
95.960292084953
95.9683447563657
96.0983947311023
96.0192394942409
95.9659824099053
96.0607731736835
96.1442589932848
96.1273634637623
95.9949952691022
95.8692075167261
95.955328859537
96.0282362358587
95.982225895306
95.8771383527859
95.9215594697095
95.864281787643
95.8988437302204
96.0017172455852
96.1896063262475
96.1851206168926
96.196142213072
96.1091345829074
95.9657245436843
95.9281722089676
95.971533793445
96.0640215044469
96.0834815509009
95.9743160063619
95.9563778462499
95.9464363192545
96.0392741742249
96.1214674891341
96.1862453443825
96.1665584103932
96.1415866548536
96.1198289879846
96.0978002566152
96.104251499661
96.2422908383595
96.2138360242249
96.1700262204196
96.1969549166034
96.245921324768
96.262477578092
96.2713886574822
96.2084705485118
96.2171521263197
96.1327719931371
96.1230672514763
96.2047054315411
96.3154502492289
96.3428963720669
96.2472640681307
96.1342823205809
96.1590766096067
96.1904703271988
96.1231143689771
96.1061073268537
96.2265991836683
96.1930073349084
96.2689825760711
96.2395256962938
96.2308268304605
96.1937334289283
96.1398832282034
96.0578922214693
96.0107139795831
95.955681197749
96.0077960018044
95.9184022268283
95.7789690306383
95.8036757595029
95.9385079547345
95.9340644446452
95.9067825252533
95.8234122058279
95.7162913870562
95.6757318158057
95.7725468968237
95.7376223715323
95.6250676833086
95.5749711341691
95.6939732265168
95.6060928070877
95.4709552354615
95.3253705293967
95.1451245316304
95.1419347431549
95.3103401813743
95.2776317267552
95.2630466142852
95.2966625778249
95.3006444149421
95.3244983708618
95.3249834665732
95.1564567673832
95.0562966244092
95.035126100989
95.0202783129317
94.8475917219027
94.7009516022039
94.6456330760542
94.7497134311779
94.7909152782246
94.7666252510501
94.6010294499162
94.5242666389666
94.4667790615808
94.5599399001206
94.6999494612469
94.5817529623231
94.3940281520563
94.3558735285595
94.2270359589911
94.1476521130419
94.1326727913313
94.1902245767704
94.1749212990647
94.0905938379472
93.9004232624675
93.8107372458218
93.8295362617539
93.8837927200726
93.7654995130588
93.7194232409894
93.7214440480221
93.6543261926719
93.5194288793508
93.5105483840407
93.4235828420321
93.4232417143665
93.5005120320625
93.4608822197386
93.2395586038877
93.1721704840426
93.2140632584428
93.0861552431893
92.971171225828
93.0811578258172
93.1232294658883
92.9739834566062
92.7173364959643
92.7601901518305
92.7498539532403
92.6096043301869
92.3565296132814
92.1491123502499
92.1946355591757
92.4396064903907
92.6090290113715
92.7116434583376
92.645611517225
92.3635699128982
92.083880016979
92.090669263532
92.204718422413
92.1812454123218
92.0888657960445
92.1762090208461
91.669284343923
91.1516566062639
91.3071394548207
91.8887335891409
92.3452391564277
92.2379048001036
91.6038035229543
91.3319920854491
91.5847492814644
91.6939140949353
91.1964594595693
90.6727430634991
90.9175257207313
91.5100263334403
91.2380558218527
91.0865936998838
91.1514565270682
91.1312848361191
91.3855932148925
91.1533408748218
90.7747133437446
90.7435832390778
90.8040531407461
91.2240179068257
91.0422340042939
90.6656042049797
90.569012329951
90.493431163566
90.8071913751356
90.9508988514364
90.4557655469416
90.191266624067
90.2082207541508
90.3531473408922
90.3341991272449
90.1368569986545
90.1362386833716
90.4020553650432
90.2647256405938
89.9921572441984
90.0003508760044
90.1161332610227
89.9763427062211
89.7336643835033
89.4829735799574
89.5864480012608
89.7450490167236
89.6768911573595
89.6047557462298
89.5825933781346
89.4922587919659
89.5313821206719
89.5551653089493
89.6101475817966
89.4514103174578
89.3459161626918
89.3205291797118
89.1777581349818
89.0121582735951
89.0942916062632
89.1826248285341
89.142667385247
89.0641506486894
89.0366900268178
88.8906927181315
88.7953688220944
88.8023564356917
88.8689300742618
88.8223454371113
88.8347619013042
88.7723869686437
88.6614510532375
88.6365748515176
88.7142449426805
88.7135534510885
88.6533749519784
88.5723638763763
88.5802379217012
88.5584876391865
88.5869743945827
88.6065835719802
88.611780808738
88.4827524696724
88.37361856643
88.3778943300605
88.4839146592524
88.5045373644939
88.5200780550525
88.5213985216863
88.5148069483412
88.3579766645982
88.2649309175692
88.2904997532095
88.3814351364767
88.3868274165969
88.3512503672196
88.2623206706702
88.2851371029446
88.3448158792436
88.325335890147
88.2281616803191
88.2319358898498
88.2870901316995
88.2846504528551
88.1819351598362
88.1648342009038
88.1462015705902
88.2023744374559
88.2238403785322
88.1802360513294
88.1411132517235
88.192083239986
88.2462869905143
88.3002871650268
88.2274109544149
88.1425487664002
88.0672031982668
88.1289296594199
88.1839937801828
88.2111414390283
88.1651581935399
88.1679758130654
88.1599438083097
88.1642519403047
88.1436263095399
88.21101325807
88.3034063119783
88.3705417367605
88.2564338357652
88.17976302571
88.1949434648391
88.2235205075971
88.1532865013361
88.2077418911437
88.2612587009231
88.2890991035321
88.2221100775899
88.2397587449971
88.3378063433633
88.3893792655709
88.3669164058274
88.3213040497302
88.262965779723
88.3277130436824
88.4349541839606
88.4909264447257
88.3345476102736
88.2639278206118
88.3121801803413
88.4025415951031
88.3687911124964
88.2924390991274
88.253181333909
88.3688856253942
88.4773043200654
88.5085481426513
88.4534162758782
88.4781220466778
88.5565089306523
88.5625775833568
88.5103715898784
88.6239937164468
88.6540584960961
88.6693143395463
88.6682610048121
88.7638403179912
88.838789412213
88.7897109547902
88.7115566284373
88.8155482805882
88.9438429687294
88.9526733246199
88.8695986506558
88.9022800091655
88.90270485176
88.9113266217819
89.0092981154843
89.1793764197262
89.1839197433507
89.1852180523243
89.1858276924038
89.1768116977403
89.1981952491494
89.2948223102672
89.3379850735371
89.4018444339049
89.4033697823909
89.3721168944744
89.3715539381216
89.385868600484
89.3387406489243
89.4478474994612
89.4959774384566
89.5357507691111
89.6240907724599
89.654172785183
89.6499960307657
89.6894451448751
89.6649758902791
89.6752316680225
89.709451156651
89.8234967427236
89.8674285269497
89.8569596536524
89.7753743781796
89.785121376479
89.8738911559384
89.9137418146503
89.8857164504717
89.9340536430532
89.9308988066755
89.9243771052978
89.9746600168837
90.0624527509155
90.0544150290182
90.033472976499
90.0809160631659
90.1983968664156
90.2020796625972
90.2576940222945
90.2863418186454
90.2238654650083
90.144672620361
90.2219895717929
90.2980109550715
90.361950837249
90.3414018501606
90.3785773578159
90.4423575315491
90.4546558728031
90.3843342361861
90.4265736155999
90.4798144455554
90.4671580478765
90.4644471421126
90.5393069852536
90.5555385751984
90.6265777301864
90.6970168385293
90.7324854710169
90.6814209816245
90.6660890179068
90.709607151526
90.7593516520414
90.7970347023092
90.7830615420336
90.787604541142
90.8764061894723
90.8841878761423
90.9370022500727
90.9969182819331
91.0569386875569
91.0565656255298
91.0655167979561
91.0004925220148
90.9625244782269
90.9856997144641
91.0810582401301
91.0883248995048
91.0227292415723
90.9995157889936
91.0362753571314
91.0965608310616
91.1857287121784
91.1866877739713
91.1040811317363
91.0320529841166
91.0482336205112
91.0186639235992
91.0106395918692
91.0007624440755
90.9813629151033
90.9543569535252
90.9202990485912
90.8210689267378
90.8210810612801
90.8653491839264
90.8249699027072
90.7399993444942
90.7422280642294
90.7482141911112
90.7988120945913
90.7594353614324
90.7215273078718
90.7698999562385
90.8035546587608
90.7585318789522
90.7107013248796
90.6641664188854
90.6507261997574
90.6404616760505
90.6347912153785
90.5715444397725
90.4999959196593
90.4262957610153
90.461134254404
90.469648210331
90.4727708773354
90.4354975422175
90.3863413569397
90.3950438607956
90.4293220560183
90.4442389689109
90.508267610397
90.5842034046989
90.6388577902021
90.6790555304877
90.7938228045915
90.8068655506322
90.8183003737585
90.8683898245397
90.934946224139
90.9779247456131
91.0027689660122
90.9772312534059
91.0241391329833
91.0829542155719
91.1454682138008
91.1708266599537
91.1636334298474
91.1802177801762
91.231179016836
91.2659667916744
91.2861312285536
91.2446182487693
91.2586970748212
91.2821086634604
91.2949993542367
91.3037603706806
91.3481345055895
91.4120812531578
91.4571462040689
91.4727171712868
91.4841675137204
91.4668702869799
91.4923232736677
91.5053080806403
91.5243302540696
91.5487047734846
91.5597801152869
91.5295212496259
91.5375408804469
91.5890978484125
91.7155819496004
91.7569828207818
91.7851495823872
91.873654947303
91.9401124976174
91.9317455211726
91.9806056875577
91.9742618629414
92.0017720964033
92.1149396481117
92.14471790973
92.1151271408264
92.1788446404341
92.2048370653729
92.2098210549704
92.2419580834728
92.2605457104383
92.2615586113895
92.3169705575847
92.3789530689215
92.4212988510861
92.4165075843875
92.4450420590472
92.4493062377094
92.4137851594259
92.4174550686877
92.4960228957391
92.5631607604952
92.5695000386176
92.5626723194842
92.6206845728986
92.623815306332
92.6023887912988
92.6089092015782
92.6034108885164
92.5937418467958
92.6178289495455
92.6951389941164
92.7397762804933
92.7232067914054
92.7383384872073
92.7201351559462
92.7400001395689
92.7914533808566
92.8114749349977
92.8169637185032
92.8596103989747
92.8729457093272
92.8437235189667
92.7561028430026
92.7291282017961
92.8464844693374
92.9274421496575
92.9455088949953
92.9460965150421
92.9130505451393
92.9180133368766
92.9254335939936
92.9526060987578
92.9819895798062
92.9813300131757
92.9781193572812
92.9759459864291
92.9584156738179
92.9514204591415
92.9815397280289
93.0459351598843
93.0893606327471
93.1407305307532
93.1746705869965
93.161728964241
93.1257733178482
93.1568138863329
93.1540262425034
93.1635091690249
93.2032725477437
93.2111543310326
93.2230648312537
93.2643845301904
93.231275729142
93.1765882628847
93.1644908793427
93.2355547597623
93.2805157727526
93.3076821358111
93.3151779042721
93.2938683143591
93.3278241668635
93.3562251292187
93.338612470538
93.3632235936029
93.3688311821828
93.3726521944955
93.372669839654
93.3594786213974
93.3858016348698
93.4572558002594
93.4274000433622
93.3941007275009
93.4316330729483
93.4444332139214
93.4307724592244
93.4482288425909
93.4561859929794
93.4646761850571
93.4883938679281
93.4987300551736
93.4718035064756
93.4929935879964
93.5417047250096
93.5248746293555
93.5384731137837
93.5778935297508
93.6350246618983
93.6698102627122
93.6856852945254
93.7401672536404
93.7407506494111
93.7387860858353
93.7625855085377
93.7811687306509
93.7714157615786
93.8049829046851
93.8752080724613
93.8887726211646
93.8467447514374
93.8777252151231
93.937320603645
93.9348103438251
93.9457964949909
93.9474098919875
94.0217148359139
94.1214225725812
94.0406980994638
93.9823506277215
94.0784450664751
94.1036541743232
94.0869828455501
94.1373135760493
94.141481396007
94.125799379252
94.12603354339
94.1661579995822
94.2004730975362
94.2172238129727
94.1578840927296
94.1565322864505
94.2235044189423
94.250153848436
94.1851568600091
94.1556768365798
94.2596406026062
94.4106176377703
94.4087619507726
94.2590217346824
94.263918797541
94.3814082718592
94.4259760669174
94.4702603068755
94.4699137641414
94.46830427213
94.4495662345427
94.3483693331084
94.3265384306971
94.4422046796325
94.4837916598794
94.4014277495627
94.4255564213608
94.4162400510835
94.4083537224103
94.531682914516
94.5140215162416
94.4326948397768
94.4427173230061
94.494000785546
94.5304434120762
94.477607326679
94.4906472030028
94.5079060742148
94.5425797711317
94.5360286224286
94.5574580439438
94.5221879893702
94.5151686295007
94.5582462141883
94.5702435303604
94.6314915409569
94.7583636273153
94.7127788313566
94.7088008712612
94.7438681883573
94.7068808484018
94.6604319485202
94.6530520288322
94.6522560369908
94.6741821062803
94.7371592523269
94.7586995159502
94.7471562598965
94.7300829087151
94.7469694873323
94.7011398193679
94.6929042376719
94.7353518485886
94.79553594789
94.8367068755266
94.7760320006633
94.7392422631923
94.7060213696518
94.6495934040388
94.6639768734915
94.6893121150627
94.7608379384299
94.7465495933982
94.7403339942114
94.7625602144753
94.7296121138663
94.7251831697482
94.7929502947385
94.8597809685929
94.8604364342632
94.8706375984699
94.8857620955871
94.9117903231733
94.9192423108247
94.8947110832699
94.9203740348186
94.8584485013543
94.8106641379566
94.8462079810555
94.8604086766987
94.8305358746642
94.7742178320199
94.8221269377523
94.8857625688288
94.8907136834596
94.887178473811
94.8543897323722
94.8104941125878
94.838579119607
94.8132710311498
94.798096613497
94.8617228529972
94.8847883786855
94.8490898410423
94.8596459345849
94.8611092386492
94.8649913771764
94.8425285773985
94.7597361492955
94.7269358940123
94.7721205559367
94.7805377530505
94.7595610053168
94.8358575546454
94.9248533265509
94.9754117385921
95.0159998327718
95.0245805382784
94.9857849169828
94.9729500235219
95.0049817528204
95.0993201359143
95.1239222878732
95.0533552676297
94.9245120919597
94.8047874177526
94.7166591993163
94.7007834400549
94.7631513382965
94.8535341260162
94.882212590283
94.9098106023934
94.9439722779275
94.9582526819847
94.9600889994356
94.9181539658754
94.856048802712
94.8035536364957
94.677884996378
94.6538634787849
94.7405361616327
94.7857227424476
94.8078484880377
94.8414069792743
94.8683550528066
94.8333756872101
94.8379041569557
94.8865032137873
94.8359518442178
94.9113578424484
95.0016461008331
94.9665156545447
94.9493660770152
95.0318737815572
95.0502900419601
95.0930425268989
95.1136143050162
95.1333257855323
95.1450236231536
95.1020197096332
95.091889798089
95.1802070172339
95.2915895311219
95.3909409287584
95.4886742118788
95.4990228221679
95.5206448279495
95.6754015728824
95.7431474730146
95.7160372355254
95.746765954464
95.7937411724891
95.930688888132
95.9813454075904
95.8189734158911
95.7613422914608
96.1617111438212
96.2170262010872
96.0487483413685
96.0370918060835
96.0057210710708
96.0640101860346
96.3348233235055
96.3151446534931
96.1161576029646
96.1635939481639
96.4042336877836
96.4942691974467
96.644480913381
96.7388261298187
96.73353829121
96.7953267693666
96.7736000046991
96.8667014910353
96.9405912211174
96.7739456611399
96.7381735294481
96.8328048379824
96.9359230712653
96.9685099750781
96.9024822340997
96.9445424197605
96.9459604777872
97.0144088213615
97.216866122743
97.3691530679257
97.4069008126934
97.7215146245836
97.5641789740291
97.2825055629228
97.4451393932575
97.6100975351543
97.4965011489006
97.5235872208159
97.8251477673418
98.1181262404081
98.142730517555
98.2717911564457
98.491160565441
98.3464756410861
98.0301638914782
97.8055707695527
98.1736738992727
98.5313716435732
98.5330668962273
98.8186844613796
99.2625941448841
99.2617957091554
99.0421626237001
98.869112892186
99.0988977765573
98.6168741273493
98.0044495760823
98.0645019680278
98.0733567319133
97.9302329199932
98.0018196708426
97.7731695398547
97.3327405788554
97.0682494986275
97.0051454573904
97.13688023829
97.1304009784983
96.9563707328212
96.6554619722956
96.5327806641286
96.5534831835509
96.4243372078875
96.3263136507822
96.3627636565341
96.4079124484627
96.5026088478943
96.4594837529854
96.3498922582165
96.434410464189
96.4273192880181
96.4203810373582
96.5636626287201
96.6095983360048
96.479710606677
96.548500517483
96.6029623842074
96.4800244334259
96.4165964953919
96.5892700086369
96.6301180394859
96.5398341478411
96.5436106522296
96.6254190384942
96.6403318840607
96.7506155682327
96.826713489515
96.7344382777217
96.7560454093828
96.9051259765366
96.9915367061208
96.8522147632046
97.0091261111227
97.1535561410843
97.2582813899369
97.3386971881296
97.1766490080444
97.4096787639925
97.665288993999
97.4334978338202
97.3586582987332
97.5124780723906
97.791620029079
98.0742728459035
98.2427881016411
98.4340606842986
98.6555457806569
98.7957144554509
98.8569924175846
99.0305198089572
99.1861669150774
98.9550413704054
98.6539497804689
98.9592143623814
99.3852812548818
99.1106783182679
98.8188169336699
98.9472200625093
98.8171319312047
98.6755552414698
98.4726321728014
98.4618694101935
98.4575575419116
98.4124348026218
98.7665289050053
98.8167601290013
98.4792553543174
98.2414842450795
98.3612551034707
98.3435387358926
98.0476663842122
97.9973857431801
98.2665343350939
98.4756419902837
98.2889419358244
98.2921621016163
98.2358418316649
98.1748990441164
98.5962392020266
99.0281013004347
98.8647080117158
98.7200159010295
98.4697195639172
98.2696753434858
98.2732747221392
98.2882628078575
98.3049265896874
98.5682646319726
98.4266982112252
98.2594952068343
97.9199043676824
97.5406451106649
97.5441945515992
97.5411977816014
97.5163454998598
97.5430230527897
97.5295176176272
97.4637813967213
97.4682756127264
97.3910431300587
97.2956947007565
97.2921101900238
97.184906483307
97.0245078445942
96.9851225860308
97.0070332173641
97.05449078088
96.9270816621547
96.7284578925695
96.6385562572753
96.7445481775721
96.8980139323511
96.9146262750025
96.911060787575
96.8788393381731
96.7583410853136
96.619987618221
96.5968647927783
96.545002313939
96.5623692454321
96.7039594091716
96.720404294052
96.6695585717607
96.6465420023447
96.5573104290267
96.4792207618507
96.4750899841147
96.5056169907621
96.5939346399273
96.6180551335059
96.5810712943263
96.5357005299182
96.5031023218421
96.5500918143706
96.6614859395241
96.6315673621684
96.5109684040748
96.4459664218253
96.4535771305914
96.5200579683386
96.5252267626693
96.5385202655905
96.5223761664788
96.4744942398444
96.5041668016053
96.5247986246702
96.5371424681366
96.567767425374
96.5211339939291
96.4053548310898
96.398053555157
96.4615960509805
96.5677964523791
96.5908288766884
96.5151476955619
96.4799057255988
96.4692711609295
96.4151685741174
96.4243197656552
96.4501946752792
96.4508275180571
96.4633155439892
96.5016885762213
96.5306537177542
96.5250917414811
96.5417049466938
96.5752997113793
96.5255771255043
96.4730354471474
96.4773784226194
96.492276540853
96.4919882705195
96.4285482082189
96.3450867085568
96.3402330398441
96.3580099541241
96.3684869759399
96.2989058251535
96.2762270721131
96.3009566573589
96.2822524248678
96.23222256714
96.202600749333
96.172316283278
96.1089392074753
96.0599341037985
96.0096282788435
95.948433169363
95.836015946742
95.8188111606586
95.758998673097
95.7277601499451
95.653084395498
95.5801162718994
95.5166464364564
95.4858578446791
95.4039959347674
95.3417917624626
95.2624778721678
95.1301713309967
95.0378559726627
95.0091171878245
94.9884531340537
94.852812162034
94.7252996375223
94.6100453673698
94.4876820080039
94.4264470404567
94.2707451741558
94.1666368170238
94.0842748299722
94.0732792432573
94.0386536282604
93.9061308776394
93.7826754733113
93.6499444738515
93.477308156148
93.2480581994503
93.092267145145
93.0272450131441
93.0179852603609
92.9176910993899
92.7800433870193
92.6127410366882
92.4078268666568
92.2670180247876
92.0177072478365
91.7819831727569
91.6105285836313
91.4692181274565
91.4440872193566
91.2016525202047
91.0120758735403
90.6668944161867
90.3252994592152
90.0110801949626
89.7820019769538
89.5715990804269
89.4751057112652
89.1765822230664
88.7944671594617
88.4821679592752
88.2161254292481
87.9815154362965
87.6732036253102
87.3952517098336
87.1486354518965
86.8073112799048
86.4909424520516
86.2388850968213
85.9672817324455
85.5531917848609
85.1159150199289
84.8869449632284
84.9285660752744
84.8505214267397
84.493605619526
84.2690666588088
84.2334052042237
84.0479340228014
83.7340642474921
83.409439028865
83.188017967334
83.1793638106835
83.2280659023403
83.0647374004728
82.8250806507254
82.6674186487207
82.5373810714959
82.460509111255
82.3806609364877
82.1960104451582
81.9854963338316
81.9338028542787
81.959099449425
81.8448600044832
81.5986064775856
81.4495171496963
81.3073446673796
81.1680378259196
81.0072434241626
80.8874890757866
80.7810908432355
80.6608431925534
80.5256499748963
80.4332394905545
80.3757052880269
80.3337299329562
80.2893445155095
80.2681636273287
80.2214030715083
80.1976142384666
80.1789867999419
80.0734178697292
80.0289513592764
80.2044440789838
80.3384704723483
80.2282492175904
80.2239035841071
80.3796552378519
80.4465253399001
80.3634501664139
80.1039413949899
79.835714635348
80.2773881340368
80.881301456239
81.0461466704587
81.0138156665698
81.0908189138046
81.1916302893804
81.2785525190768
81.2687314891154
81.2550964395678
81.3704059933536
81.9229464275006
82.5479139460129
82.7005031868467
82.7091893892803
82.9380023392666
83.228154487052
83.3237216841349
83.4553197006972
83.6037897930521
83.7478685365189
84.0333053149459
84.3492038642819
84.5535751903678
84.7220544061783
84.8955204276528
84.972406689408
84.9311601899816
84.9052832576385
85.3968241732427
86.0285270745615
86.244370026921
86.1958789096663
86.2003094273048
86.4580856241441
86.8150442813426
86.9801478767694
87.0461648268193
87.2157624342411
87.514094232935
87.757012776738
87.9000146011286
87.9734010125242
88.0107900893079
87.9866133649528
87.882628041693
87.7774796823426
87.7658522761801
87.7804475144592
87.657867970782
87.3297787882178
87.0830311333315
86.9532794489981
86.7768848173714
86.3943790815708
86.1402650259438
86.182627920097
86.2643462263265
86.080019378264
85.8246346402999
85.6479507625278
85.613391148572
85.5763370700299
85.4596453809771
85.3096302271944
85.0994518334473
84.9321826332721
84.9372731488896
84.928518486619
84.6904831412194
84.4240815228077
84.2388394212671
84.0396083083784
83.7736556512269
83.4569308597282
83.1516776763227
83.0125070545603
83.0146588785349
82.8522286112409
82.6096249406204
82.4435182054306
82.3318406615593
82.2155343972341
82.0972077633852
82.0514857801423
82.0035584265001
81.931336033745
81.8890740203305
81.8915368589751
81.9134882141855
81.98792671157
81.9697071779685
81.8950688844507
81.9221553527622
82.0245853330835
82.0855949053767
82.0985293256604
82.10066176226
82.09616750351
82.1216936872245
82.209411009438
82.3515883897773
82.4265325489006
82.5031334994444
82.6379980393002
82.749526378033
82.8752911752432
83.0692181114118
83.2401666392039
83.3648866724326
83.4739852496725
83.5911670460021
83.7125255014733
83.826373730367
83.9316539356291
84.0524319449543
84.1529438715017
84.2044561541135
84.2652728010637
84.3955410794906
84.5366340698682
84.6439042633041
84.726709186549
84.7886117641316
84.8483197736987
84.9204309041141
84.9934267409884
85.0426311400945
85.0954338874151
85.1399180897812
85.1776825829011
85.2441778471611
85.3062482147631
85.345269233505
85.3919186561726
85.4662966141007
85.5132510051489
85.5410930479599
85.5951756262582
85.6774669295391
85.7415379849562
85.7801538072814
85.8236907900313
85.8726958118304
85.9021239665862
85.9259788600953
85.9618633192851
85.9947173211363
86.0005961750886
86.0025236232589
85.9974676436078
85.9757530017202
85.9567750933897
85.9392251905049
85.8919293884931
85.8186844041309
85.759577124302
85.7100921033296
85.6574013928954
85.6010679085332
85.5479050918087
85.5030050264524
85.4559600802454
85.4119562809696
85.3909422061645
85.3731150350631
85.3232697335884
85.2678889858643
85.231808496261
85.2058355732444
85.1881694026965
85.1689171622298
85.1486394226159
85.1468889197001
85.1500452172517
85.1606659655878
85.1814805192006
85.2145639234264
85.2550629934544
85.2961768640575
85.3302517035786
85.3729122274337
85.4210441662245
85.48916362795
85.5772229650936
85.6454776583035
85.6992270666343
85.7713040989417
85.8360683885605
85.8889810165
85.9559922611142
86.0359003184149
86.1210391160795
86.1986151674393
86.2757259044904
86.3579453064947
86.4395313190014
86.5126350957684
86.5754883467687
86.6266212585892
86.6572141143322
86.6684955689136
86.6230753911559
86.548406911759
86.4929104063884
86.4362336921875
86.3664990412044
86.3042747806959
86.2540612860569
86.1905062705158
86.1072752338612
86.0461204988677
85.9850176356447
85.902243932035
85.8151171334363
85.7165026395803
85.6108462275301
85.5232332994013
85.4313507200498
85.3405873048208
85.2402610361753
85.1327132566029
85.0272662525213
84.9020965127385
84.7681613180285
84.6180881082005
84.4450439720094
84.2772531645986
84.0620230508128
83.8149822328831
83.5948627995253
83.4008615445495
83.217181955262
83.0223285175205
82.8477346783442
82.7171466500841
82.5911786812771
82.4659709351981
82.3663912946956
82.2777530022172
82.1635694542233
82.0589433711587
81.9559538407028
81.8157898121729
81.6569985144444
81.498096298253
81.3189115140738
81.1319910551115
80.9450180136241
80.7360843780326
80.5127452938544
80.3127674710119
80.1048327092225
79.8593591206754
79.6190818269334
79.4099615872464
79.2000067256396
79.0083284593179
78.8512999772253
78.6839682739207
78.4905581344653
78.3186688128202
78.1861943426356
78.0747214985898
77.9541277024452
77.8390056115513
77.7195106684389
77.5866686954267
77.4476276279991
77.3137432884321
77.1947699017275
77.0899436105496
76.9944260972215
76.900765150552
76.7918026360796
76.6780304677968
76.5767557033651
76.5132035189399
76.4767222596482
76.4381657982446
76.3904384049713
76.360558706727
76.3672286116608
76.4084859979263
76.448439823553
76.4983882092481
76.5756433607886
76.6760488275425
76.7548545454534
76.8232385264615
76.9421523360282
77.1285952198416
77.3202478569248
77.495249027382
77.6743755803763
77.8829891139895
78.0963408066762
78.3103873362755
78.5355643782273
78.7670737626633
78.9711590860245
79.1451587901635
79.3350757817109
79.576028091011
79.8105494752596
80.0196651751396
80.2264200157286
80.4077054568664
80.5650410235533
80.7344220686622
80.9200251717984
81.1111041628541
81.2686617700074
81.3842742821411
81.5105447920948
81.6800845602511
81.8492608455031
82.0124428334767
82.1783629680083
82.3334027753736
82.4859730783236
82.6423424936063
82.8140756700864
83.0016580262446
83.1373164506938
83.2421633058239
83.3692638381042
83.5036696195256
83.6257975730701
83.7776272168472
83.9431671986386
84.0805298408534
84.2059447761995
84.3363996207406
84.4584032211736
84.5996354172458
84.7390912414179
84.836809493128
84.9430209765955
85.0684119781162
85.1323286641996
85.2005246844455
85.3014893460177
85.3789027127604
85.4308651717471
85.4995467364505
85.5862052945342
85.6357724270018
85.680340248758
85.7763053888986
85.8423811830369
85.905822489348
85.9888988820321
86.0313458596829
86.0364272774785
86.0892918478029
86.1425332188616
86.150632992197
86.1559153646082
86.1803668823415
86.2234780379465
86.2761047828817
86.2911087880043
86.2836334713165
86.2993309435353
86.3022424263021
86.2844220996627
86.3277777645708
86.381502964465
86.3653929503106
86.3262414020608
86.3254917870013
86.3221981355149
86.3045561469173
86.2696096260783
86.2735754801273
86.2961635398737
86.2693472995802
86.2330400244287
86.2264133780424
86.215472358885
86.1829405275414
86.1021062399294
86.0193555971495
85.9591885220854
85.9256323707908
85.8770429281016
85.8159926446709
85.7249072971131
85.6513963980846
85.612065495028
85.5839915500061
85.5437729543469
85.4471515842331
85.363134162255
85.2987096356297
85.2043478909761
85.1147558503328
85.0624946087673
85.0091165981791
84.9398824183113
84.8916287284775
84.8420296042253
84.7630991139829
84.6617092681358
84.5975694294011
84.5347150094949
84.4600187387228
84.4310842589643
84.408497942673
84.3324560060079
84.2774701818502
84.2193017951225
84.1618784944721
84.1258684245958
84.0829543594418
84.032051051449
84.023265625626
84.0200730779194
83.9787521753113
83.8924807523699
83.8173702003985
83.7989197876376
83.8359919015801
83.7872065176416
83.7325940222697
83.7251434576892
83.6832368619669
83.6044012980128
83.5552975396653
83.5019398087394
83.4705237283317
83.4359096663769
83.3723683259689
83.3316298697353
83.2737266170778
83.1901739431722
83.1587757477964
83.1052562207438
83.1002837879621
83.0702545973958
82.9721629824335
82.9006141251165
82.8800199859437
82.8202045689272
82.718320830094
82.601867998657
82.5390649293734
82.4715506916664
82.3675888022311
82.2694877180345
82.2165479916177
82.1324122949051
82.0502570418207
81.9756241802395
81.8531517991529
81.7455770439926
81.6728053609284
81.5401952057063
81.3815897833501
81.3074251517923
81.2559581381713
81.1010244462563
80.9795170764306
80.9131020886649
80.8375031740973
80.7748471931268
80.7599592349576
80.7287439085062
80.6687934783675
80.5356509066173
80.4505160650578
80.3670049260213
80.2689727750117
80.1599158520278
80.0882441605228
80.0041727724578
79.8417275682606
79.6064762094074
79.7485577628769
79.8232901578717
79.534693711806
79.3846985710441
79.2667558704765
79.1710212982618
79.1622355041772
79.1028244592102
78.9469248612992
78.7789459624503
