1798
3999.43349933624
650.420452594757
1
128
4
93.6865114126342
93.789234745586
93.6987604550696
93.565828725791
93.6102930272977
93.6769740512396
93.6942790078327
93.643038495952
93.6721677208555
93.69831274086
93.7269769702167
93.6656059999035
93.6124407988718
93.6770878517605
93.6695964630411
93.6249641104909
93.6699805778233
93.668989950654
93.6078352549188
93.6326705615886
93.6784292199954
93.7272061994675
93.7924063607574
93.7676957612003
93.7350625093345
93.6471900154754
93.5972600724302
93.6394045550602
93.6818966930558
93.6721707166504
93.6838201195785
93.724880225831
93.7481568276185
93.6755007101927
93.679103198257
93.6662514183702
93.7130661013058
93.8057521356162
93.7749912292094
93.6943905931401
93.6498562027713
93.7082033553332
93.7938382670248
93.7401408807657
93.7851579430793
93.8323028336105
93.8790767883246
93.9230188571067
93.8787444904147
93.8067778410562
93.6566291766503
93.4746132251024
93.6788336714573
93.9169729224798
93.867169327943
93.7354342183078
93.6326024342542
93.6881617142382
93.8462519357983
93.8748933483264
93.7681804754457
93.8039374423438
93.8922411958749
93.9021105500385
93.9248496791234
94.0144040511287
94.0593677451108
93.8520531342711
93.6304639964174
93.7313156197822
93.8645357437078
93.8074121185366
93.960051768272
94.1716056018038
94.2338097585382
93.9761722888865
93.6046061840223
93.5428246651053
93.7888689447532
94.0906749266609
94.1624970178215
93.9145895301453
94.1220898826168
94.1554670821777
94.0295243191578
93.6363813891289
93.4700935521235
93.9675905660542
94.2899873304912
94.2337164379057
94.3574207100508
94.1573486455749
94.0914704511377
93.8989261415121
93.5608841230779
93.8473672708738
94.0452602181087
93.8649678944099
93.7952899752954
93.8308049088521
94.0012391666776
94.1482385301992
94.005288415049
93.7751348181594
93.6030619640043
93.8063464733644
93.9340927800901
93.8241878359133
94.1536379883205
94.1240929622419
93.9099045564809
94.0378434114723
94.1729052262985
94.3070352006916
94.2358935672827
94.162369228811
94.190384411565
94.0954700209893
94.0564947456911
94.2982784534976
94.3871602522901
94.2527202201943
94.2019739208005
94.1197946264703
94.1508505110557
94.2603711496098
94.33678748501
94.1766039679421
94.1145290875287
94.1138684233089
94.1504440955741
94.1011068279005
94.0054646120676
94.0697489533162
94.23046089335
94.2461627614856
94.3477205882071
94.5836035437979
94.5347632566156
94.2200212330052
94.1081022172757
94.1378881277236
94.2405870242964
94.4292129946098
94.4739451924332
94.2511680235335
94.1339966920969
94.2879315365036
94.4210272156708
94.5477117630979
94.585754791568
94.5560596592966
94.5372134967321
94.3630107012013
94.2711044620109
94.4021158547163
94.5693579182087
94.5113511885961
94.3907453956521
94.4296508306118
94.6001230765321
94.713407927392
94.734414984783
94.6756066540179
94.5563421165455
94.4332543368238
94.4082614297347
94.5049806922617
94.6462786052716
94.6893963185247
94.5703836357939
94.3836353445628
94.2281222531839
94.1783639362705
94.3474893522757
94.3968837557167
94.4181116538043
94.4155700652116
94.4285775473119
94.402927347567
94.2793364606335
94.1564331616173
94.1799221447993
94.1405709909651
94.0848313847236
94.0564694703781
94.0103728214916
93.9308421592555
93.999710859974
94.0844768110633
94.0052346233744
93.7655263838268
93.6436495261415
93.5848553769799
93.6031830778794
93.6457093024602
93.4869060471021
93.3659142832556
93.3660602632188
93.3464366294633
93.2934058712708
93.1473094819313
92.9993750845199
92.9334971777725
92.859710654331
92.7543432432381
92.670789019637
92.6023593313211
92.5453491289181
92.4749761836165
92.3569717675638
92.2536837960303
92.2908893979057
92.2366496603348
92.1363757465148
92.0825125806684
92.1335412848318
91.9682512719509
91.8325986953868
91.7002486453144
91.5833722324228
91.5469291322302
91.5393536746169
91.4588936563251
91.3177016632307
91.159404438017
91.1042319913093
91.0800131416592
91.0150814343515
90.9517970452423
90.7809199849726
90.5133864796696
90.5030290793527
90.4786886828453
90.3249973349931
90.2906218446193
90.3052646110078
90.1398843083552
90.0446237308801
89.9027425054086
89.8148264487147
89.7291573686984
89.6655186068004
89.6358871598393
89.6470121059301
89.5833010590243
89.3705671591677
89.1430344078012
89.1370704888089
89.1667116532313
89.0649697012923
88.9848669547639
88.8545865082553
88.7035011263882
88.5919800644141
88.5308676463877
88.4841702128551
88.3538016909769
88.281195718493
88.1476014852744
88.0849335904273
88.020648870231
87.9646877055163
87.8509073763607
87.6887790139759
87.5540284209671
87.446235153761
87.3727900590527
87.3054704783056
87.1752421262852
87.0950952787299
87.0781081170049
86.9938088536641
86.8683624328838
86.8230194152015
86.7492184348215
86.7048447328669
86.5068240837656
86.3874674768421
86.3388836088007
86.2299281568291
85.9790811862699
85.89290282732
85.8474302756442
85.8173695617309
85.7317972996342
85.592314694625
85.5806593234991
85.5694266203315
85.3845887813175
85.2060714643438
85.0630103039355
84.9886416030023
84.942302820152
84.928463197383
84.8579405805765
84.7289983311473
84.5992698322188
84.57393132609
84.4147167153843
84.3579972688943
84.3495307093686
84.2662936134379
84.1110498141876
84.028606526371
83.9460119335568
83.9222532923719
83.8678093685907
83.7568794034257
83.6533015408546
83.5922547819752
83.4458141255953
83.3414550711833
83.261759225508
83.260711371701
83.1908455431348
83.0153431353976
82.9414364350943
82.9930306296726
82.9116288427178
82.7419220081761
82.6612401435337
82.6358197049645
82.4930323535191
82.3877542925488
82.3400158288049
82.3554547148119
82.3063711161564
82.2135541540331
82.0590068845961
82.021572863885
81.9927151222954
81.9767729070128
81.9131461890898
81.8366094468763
81.8174238334946
81.8256398569654
81.6888758798881
81.5348237775323
81.4587680917883
81.4605382002929
81.4793801136303
81.4972357377493
81.3963475417324
81.3701679255363
81.3119500484036
81.1877495550578
81.0425248424849
80.9941541330079
81.0255445672353
81.0845730603224
81.0640363706976
80.9646702839341
80.8537083312539
80.8729434290257
80.8826775028105
80.8434280289181
80.8347858476388
80.7870705631466
80.6780009942863
80.6922252273046
80.6685631581866
80.6533644665748
80.6380276269164
80.6340133937021
80.5300284033418
80.4544051209152
80.4629932565461
80.4548705349684
80.4519798448508
80.4760422032116
80.4695047616093
80.5213723080586
80.4579832075211
80.3851697226256
80.2699028834003
80.2291219343746
80.2015643017302
80.2565188365899
80.2488341050711
80.2005008533263
80.1380310273755
80.0987775350809
80.1183900457277
80.1309228841372
80.0321012856446
80.0023322298343
80.0849216842494
80.1523007744213
80.1047867731005
80.1111352608371
80.1589694603618
80.1289560458813
80.0710809492778
80.0447977170809
79.973977231672
79.989910798605
79.9875828260852
79.9501222349338
79.9719865501048
80.0478006031711
80.0564519241129
80.0486913513163
80.0385175387772
80.125608047357
80.0902814438251
80.0853110810472
80.0773111243199
80.0541843473367
80.0609962777032
80.1919191947181
80.1996231741457
80.2029555894788
80.1796332751603
80.1522257455138
80.2077045428188
80.2305263469494
80.1604032939107
80.189374441686
80.2711953464861
80.3195295324681
80.2628727213134
80.2417649291867
80.2825356970096
80.4290038362264
80.5122334125162
80.4778837149693
80.4394468176957
80.5214593254454
80.5900407088403
80.6351371079082
80.6595235644449
80.5752037491973
80.5034854981297
80.6937864716141
80.8511163038519
80.887798737934
80.927488736964
80.9172502471286
80.9371336474353
80.9857022403082
80.9479103301374
81.0257958529522
81.1170335108215
81.1580503882114
81.2709871194716
81.3581732135363
81.3458858532214
81.3939985155795
81.409267800978
81.5368105932667
81.633611988774
81.6207085032271
81.6880640762611
81.7981635065703
81.8366036606441
81.8854003787584
81.9325597363868
81.9699788230093
82.0177843351043
82.1774711959891
82.2674360894105
82.2739701211549
82.3023259358639
82.3437335681534
82.3664317329864
82.4044202928796
82.4675119018429
82.5672999548185
82.6467420414231
82.6904954384931
82.7031460260416
82.7867118885084
82.8760113553855
82.9419378046088
82.9568440759802
83.0199522564135
83.1501390872949
83.2046433313398
83.1474216842491
83.1292144477036
83.1495221034601
83.2114985384507
83.3205411362714
83.3897543808531
83.3788430641825
83.3915843279849
83.4431326579323
83.4616062309657
83.5102761420465
83.6036306977128
83.5626000342738
83.6683516900774
83.8062412968298
83.8206810765644
83.8423558513983
83.9034350305008
83.9266150040985
83.9237708582251
83.9145961002713
83.9249979159471
83.976302099143
84.0571721961987
84.0936549875695
84.1636659006564
84.213086887126
84.2395893635684
84.2192090239983
84.2309196990173
84.3737497123471
84.4729278576947
84.5141715815106
84.639674294842
84.7174682221597
84.744894014737
84.7147514353069
84.7699983971683
84.8509186508941
84.9026595738566
84.9601589353932
85.0387556158374
85.0132333859404
84.9884110680481
85.078129745034
85.1836515363002
85.2529592145736
85.3758697370828
85.4360177776256
85.4377432863763
85.4697316883932
85.5438445877279
85.5438277818376
85.543603110831
85.5579709261447
85.5256671929858
85.5579008401496
85.692852395436
85.7343459932373
85.6806536915661
85.6801860792863
85.68699501465
85.6731143188697
85.6603380529747
85.6506370993994
85.6126439374484
85.6085482755651
85.6628954870779
85.6773473530077
85.6674782976661
85.6449856084141
85.5910351276534
85.546044033213
85.5781163549397
85.5198153189845
85.3880684465037
85.3477323610012
85.4226859196368
85.4374954246501
85.3652219501391
85.3845435305375
85.387114960758
85.3197066668603
85.3558558499134
85.4433345428375
85.4604241530497
85.3672960240266
85.272258246265
85.277278955392
85.2594188692311
85.1589914654174
85.1301947953411
85.0878045024985
85.0178503324645
85.0152512916569
85.1052522788714
85.1595605713271
85.110578443895
84.9922313830934
84.9754551771772
85.0959899875826
85.1991824334907
85.2749418217681
85.3495300225376
85.4150305419911
85.4916761775483
85.5739795294528
85.6191997821475
85.6515950988738
85.6938334927743
85.7845233716326
85.8568987230463
85.8567352545466
85.9238410989188
85.9983357004595
86.0455999522542
86.1298824181317
86.142142438441
86.0896299582673
86.1309174636191
86.197792005668
86.2770804431864
86.3128071149006
86.2818851263977
86.3199530295875
86.3997754485541
86.4551415568035
86.457008822324
86.4539824917661
86.5123152897694
86.6002972572218
86.6751099225068
86.7269584974201
86.7208559461642
86.6955104603008
86.7510959416317
86.7868815280535
86.8076389138104
86.8498568578644
86.8449339024824
86.9022590685989
86.9814429546001
87.0452976018832
87.1771110269186
87.2509352386051
87.2773975512593
87.3130106905143
87.3671550646314
87.4320197659253
87.4713674765422
87.5115355715085
87.5895788973891
87.645802363852
87.6975109077013
87.7692162621511
87.8006129047669
87.7975963694886
87.8001218559243
87.8371771478157
87.904174685249
87.9845932862969
88.0392824438095
88.0065330103335
87.9906835154755
88.0646278066408
88.1855678449318
88.2340327815933
88.198948306919
88.2151521141774
88.2833017514909
88.3342822095056
88.3480449754899
88.3947207810726
88.4203932421804
88.4204163616396
88.4308552569226
88.4419192077409
88.4981620570973
88.5516238840317
88.5834928969025
88.6197582334475
88.6169941923186
88.5913100088654
88.6288236246645
88.6822345596388
88.6902010754819
88.6835309815749
88.7117973912389
88.7690959442268
88.8066488865907
88.8457546938061
88.8391841014903
88.8168630150546
88.8595489173707
88.8630211866109
88.9076891085818
88.9474558127944
88.9064152320386
88.9100358749863
88.976550085101
89.0310674135608
89.0384696859572
89.0753439256638
89.1079968457102
89.0996972397491
89.0833634857201
89.0974544797301
89.1538652916777
89.2179372993486
89.2297710762263
89.2120747797749
89.219986994964
89.2180478545912
89.2245718099309
89.2570745436191
89.2813529252532
89.3242279845037
89.3638688691987
89.3977764664637
89.4345044467798
89.457847340797
89.4657095733851
89.4856333928506
89.5109267454303
89.5244030766643
89.5347166826716
89.526974442798
89.540568257184
89.559340228556
89.5614023176477
89.5591992401151
89.5634441123516
89.5676641093738
89.5917572198017
89.640465646942
89.6680735595888
89.6967664401494
89.7367703331363
89.7451387509209
89.740267381695
89.7224635550584
89.7153284461641
89.7572194479677
89.7938243866017
89.7963604166231
89.8008560829775
89.8458344348042
89.9044299891805
89.9284241244441
89.9446879302953
89.9790081561128
90.002367218006
89.9800582286776
89.9848775736383
90.0776044155631
90.1574328934114
90.170781118497
90.1577348768728
90.2041484881772
90.2834095232105
90.2706264873196
90.220721222611
90.2612774959623
90.30898976055
90.367840001401
90.4635929214223
90.4547046165333
90.4185007415835
90.5077342693902
90.5283659481437
90.4896161442962
90.5113437834089
90.6087616480843
90.6373085075416
90.6051703911839
90.6347710640302
90.7001916087455
90.7829176240191
90.7750201288816
90.7662276525336
90.8143286585071
90.8080687047649
90.7695892215447
90.8107917033742
90.9022993955387
90.9631452845788
90.9714673308494
90.9127783312922
90.9244381293662
91.0090231602228
91.069824736026
91.1189796657187
91.1713775899416
91.207635290745
91.1641707431844
91.096477118036
91.0832528900682
91.1077513628954
91.1680547292181
91.148186704089
91.1577712693896
91.2120664379936
91.186844447466
91.2122747405054
91.2231721925301
91.2173351499519
91.3424819611825
91.3903760300397
91.2876192534216
91.2143346416513
91.2548828716066
91.3775199195884
91.4449615674024
91.362160200114
91.3047729944305
91.295941152043
91.3012314061441
91.3461314875785
91.4105560924718
91.4868052041251
91.5650541896263
91.5381609464255
91.4736734666033
91.4555329026359
91.4522305500309
91.4201087743271
91.4362442019638
91.515728991681
91.5456437457988
91.4481671365078
91.4386710617647
91.5360683817541
91.5754601374169
91.5614973899216
91.5809789788586
91.6324030804673
91.6595576746312
91.6589612810829
91.6860172600375
91.6302843175552
91.5736215199325
91.6598081753233
91.6849798103023
91.62597302541
91.6330757560999
91.6447917045952
91.6306372127061
91.6655506723837
91.6930514525501
91.6815261460003
91.685050217094
91.6671982431137
91.6867212112779
91.7177082834071
91.7717111239291
91.8627079002258
91.8652861561875
91.755181709788
91.7029406362361
91.7219007147466
91.7045653728119
91.7270395705468
91.8337729134543
91.8625753724417
91.806310927708
91.8133960642409
91.8564923035464
91.8262646298219
91.8304707428344
91.8369917023651
91.8057804210398
91.7926333551455
91.8040431334623
91.8517710051203
91.8245168993046
91.7586087826708
91.7770750337774
91.8414180036489
91.8389726455235
91.8088732367345
91.789347168303
91.7571662779743
91.8005941580464
91.8313860537604
91.7720940107855
91.7844060910817
91.8434874081923
91.8325824478463
91.7951602160336
91.7492917401254
91.7259311717925
91.7333124461873
91.7272619966015
91.6689118100368
91.6802230350178
91.7442406865119
91.8321997542609
91.9140458104276
91.9002393850991
91.9154730366084
91.9460701318396
91.926590874119
91.9519853435517
91.9916443904777
92.001587402171
92.0324521033029
91.9754827326228
91.7763394980511
91.6300443151677
91.6570406894223
91.7411558027259
91.7498383227468
91.7729236009405
91.8199322207687
91.8181200669112
91.7696858168822
91.7765271913813
91.8458991199835
91.8689962152163
91.78206319647
91.6490756876666
91.5899705924648
91.6504432570161
91.7551411953518
91.8773837091795
91.9296058015001
91.9078573457665
91.9148145132145
91.9328557200056
91.9467374784825
91.9836004136887
91.9804114553228
92.0076872094868
92.0226467897443
92.0467083494025
92.1794566343446
92.2592353571238
92.1672734547613
92.132542398495
92.2472253059948
92.2801924924406
92.2623842986565
92.3620718543022
92.4141464530666
92.4048365602399
92.4524966758683
92.6393253444365
92.9038193378909
92.8976632080667
92.7640836217947
92.8443423782668
93.00444648178
93.1147106893287
93.073430929663
92.9603657632225
93.0431760792955
93.3099733260914
93.3891948860065
93.3380796159921
93.3688141069702
93.4545002342472
93.5638777538999
93.5585825608146
93.3168780158765
93.270478588363
93.4939161808483
93.7373593404797
94.0442734493897
94.091004976547
93.8435095544664
93.8684098826818
93.9646816974538
93.9739197864222
94.1819784900026
94.476593461868
94.4603767648798
94.2367161417575
94.1621009028885
94.1828855754495
94.227461072932
94.267095896792
94.4977385405566
94.8913061574752
94.8410745708258
94.7252232401349
94.704058512649
94.5730505278993
94.6233593484501
94.8241699839238
94.8455284740069
95.034237934035
95.365023260606
95.5353742244257
95.5526238941731
95.4746956171102
95.3055143305236
95.316917630953
95.7334742593408
96.1191617301072
96.1838457632994
96.1980589324523
96.2687105786324
96.3112442168487
96.3241657635549
96.4120252639749
96.3593345690067
96.4875490787325
96.8279796436808
97.0828101034698
97.1168792096041
97.0999086743357
96.7796058998613
96.3868324015943
96.3459524332401
96.0405975371579
95.5597752431773
95.3756861345672
95.156344329442
95.0193264585154
95.0445246939324
94.9901000642837
94.7064798904637
94.5558599400696
94.5057482597586
94.3095375611339
94.1688167124148
94.1072825738119
93.9243387936435
93.7991331785456
93.86646396
93.8126940222126
93.6105444762875
93.531573570263
93.6777707015206
93.8192900365637
93.8934124155242
93.997456866831
93.9175178472215
93.7025948613949
93.7631976198807
94.0682918808911
94.0804858795695
93.8711710788191
93.8886785167779
94.0452404419469
94.0368535052168
94.0327860412596
93.9641215175785
93.8664251696273
93.9349115026006
94.0518675770076
94.1594190565281
94.2146226296996
94.2721984516976
94.3478196800415
94.3752880662586
94.3522866365363
94.5275742356087
94.7169790114689
94.5936307629753
94.6025438910349
94.7913610583612
94.8579940672261
94.8227247675595
94.8306833866797
94.9925439631644
95.4558030075555
95.7540984134227
95.8259054647887
96.0821326307777
96.1953002156757
96.0863686699944
96.2587078321495
96.6936750971146
96.9490011006963
97.139836343156
97.2237982055436
96.9594622068816
97.0472552806244
97.4761185799894
97.3657845688553
96.9787231516178
96.907150394729
96.8503147218946
96.7997230358995
96.8997485781424
96.8964640555339
96.7161945124425
96.8381913012359
96.9990771044099
96.9779992606662
96.8493320208709
96.4069466503297
96.1876642359328
96.3166440043756
96.245774454026
96.132235328838
96.1463964885406
96.2096404363886
96.4408202232883
96.5729904282907
96.4187059733504
96.4367473158178
96.6881363547054
96.7245109021076
96.651666486766
96.7097751250351
96.9505236608822
97.2981543630607
97.057798730988
96.8951622521092
97.3271458493877
97.0778167712003
96.2990807334011
95.9980492851496
95.9992209184515
95.906787590164
95.7570939849317
95.5470501647278
95.4467337419382
95.6911671279792
95.7419727404474
95.3247872974905
95.1107914670899
95.2274234318805
95.2386758098943
95.2189798967858
95.0659825600994
94.8567533074508
94.8283128391364
94.7619397000917
94.6623632982329
94.7660675504378
94.9647804692746
94.9035489021024
94.6613070416925
94.6024754045412
94.6207281536995
94.5696562707549
94.557313779508
94.55790610737
94.4624344474028
94.3320360778003
94.3267982233209
94.3339197629922
94.3715115126524
94.4207875060588
94.3488506274855
94.3583994764237
94.3603087192252
94.2843217438664
94.2621566570127
94.2580271645527
94.2820188316782
94.2705494974889
94.1963874518476
94.2587774861819
94.3058684121384
94.2691560167504
94.3124823390012
94.2987346353552
94.1925821506278
94.1840003026824
94.2104230492353
94.2141317217543
94.2886663482784
94.2912439511438
94.1961183509928
94.2020971322261
94.2534045758238
94.2866860680601
94.2784922271766
94.2185457671886
94.2005047708792
94.2215808202702
94.2419789371648
94.1890193129009
94.1504704243329
94.2981690370833
94.3679011269617
94.2903469467816
94.2744803404786
94.3336386895223
94.3073719624109
94.2027712977158
94.2337809960317
94.3289721986036
94.3064654889315
94.2848047727707
94.3150929459327
94.3066309579976
94.3010833526725
94.298337554551
94.2946363308794
94.3050513917633
94.313154195423
94.3265292674851
94.3415406267749
94.3274756631219
94.2484159231985
94.1714789161635
94.2376059058583
94.3128392911147
94.2747642484726
94.1897265792903
94.1742596562883
94.2598089542038
94.26928571205
94.1654027772895
94.084030020797
94.0616204123633
94.0509173368432
94.0418631554795
94.0267143464676
93.9081145489004
93.7508848965975
93.6997731600958
93.7443672800096
93.6982135648499
93.6590820826102
93.5819921067735
93.4604899056872
93.4045900818423
93.3641357736904
93.2927145308181
93.2014197799609
93.05387012817
92.8938332564842
92.8225491357032
92.7953450191849
92.6938020004264
92.5319614770972
92.3837660242152
92.2594935561155
92.1424310914159
91.9512214612595
91.7317454326889
91.7523780218217
91.7412767864631
91.5704954604759
91.3944819203441
91.2340875122594
91.1032552039237
90.926646626587
90.6707707691112
90.4876056500336
90.5621235087357
90.5709317822827
90.416032643509
90.2139986500162
90.0004733930105
89.7955032785079
89.5687815175811
89.2702230731821
88.9189086353854
88.6834700504939
88.509222274952
88.2104276441582
87.9580116322383
87.6163533992496
87.1612068509202
86.6825637514701
86.2035538190303
85.7336559477029
85.5097910840048
85.2384696195573
84.7436688669477
84.2096897056556
83.6861355449555
83.2739349691802
82.841734553615
82.3860220148519
81.9918288881771
81.5538252305399
81.0120716078013
80.5794353938627
80.2435174320895
79.7789295357003
79.1628786302441
78.5364743866195
78.2274688479704
78.2756693065607
77.9233952825884
77.3981078056062
77.1822631859563
77.0527514778522
76.7202461192829
76.318282717243
75.9158890883591
75.6565413189281
75.7186236057543
75.7134544908511
75.48280074759
75.2435839182166
75.0987151440843
75.0024191712797
74.9704538650341
74.9840051530423
74.7998237904865
74.5574927684517
74.5929968121712
74.6571587024098
74.4939446619153
74.3048416595829
74.1482332986959
74.0254721235239
73.8834875949603
73.7293659345703
73.5944429893505
73.4826250621956
73.3533611073935
73.243427240168
73.1936775021691
73.1557244752996
73.0907575256426
73.0439425530338
73.0324178990649
73.070341833713
73.0808664612008
73.0204874882049
72.8821505020358
72.876342640421
73.1932139049854
73.2960793753848
73.1301796131886
73.1201040230738
73.2803880601365
73.2974858395725
73.1961373159113
72.8551144870991
72.4953292668217
73.0641232492686
73.5966544325763
73.6053333442844
73.5795090429088
73.5541409909364
73.6016695161912
73.6154719380131
73.5559650988161
73.5621566021108
73.6875378347916
74.3433101809624
75.004027281339
75.049676247874
75.0597670467124
75.489489825066
75.7971089731626
75.9134032732297
76.1109499425301
76.3517015220174
76.4908872132528
76.8941666062342
77.3392676953683
77.5113951547085
77.7453265270253
77.8964779583988
77.9517092000152
77.8874228139745
77.8731006574861
78.6809553001184
79.5039167787512
79.6101646576447
79.5098992893689
79.5978244492368
80.0279316996919
80.5639400946564
80.7735333172247
80.8219003704358
81.1594361208595
81.6350322082146
82.0008654523573
82.173646482678
82.2738435962689
82.408711939445
82.4265723791978
82.3082657105968
82.191349451807
82.1694026582742
82.1781725334063
81.8921533205968
81.4477592093621
81.1265347528571
81.0094407236405
80.733098774034
80.2279161837286
79.9060280913392
80.1120875815581
80.1176600920057
79.8094899056979
79.5240439368559
79.3472774733631
79.3424844596184
79.327147522042
79.2033003121232
79.0180739582509
78.7731085253601
78.5696312067528
78.637036920861
78.5505016495733
78.2385265705534
77.924775447399
77.6667100859047
77.337696945433
76.9653188013807
76.5975223087447
76.1793852554749
76.0108349345658
75.9852838628236
75.7753575648578
75.5126756657792
75.3209994455141
75.2067870948017
75.0713694065256
74.9812785195765
75.0052783298732
74.984916792863
74.8868449391056
74.9120210254188
74.9576231365167
75.0605813394185
75.1913211399684
75.1561953684192
75.0867148199364
75.1810155879612
75.3180878217516
75.3521203435315
75.378356896012
75.4213912898397
75.4535182444373
75.4884428874258
75.6287562834139
75.811490965338
75.9090987895937
76.0241918369721
76.1653007561535
76.268837047333
76.4673636086983
76.7705580995911
76.9892563942305
77.1199470402212
77.2579237819017
77.4360555018966
77.586867894363
77.7284835085585
77.8907500572109
78.0411677555719
78.1521600900231
78.2240011657682
78.3190509190661
78.5072759860683
78.682087317031
78.775208939113
78.8217754630518
78.8922121690423
78.9831605844166
79.0727875429617
79.1470003666046
79.2026718358662
79.2555890396422
79.3082587312161
79.3794620068274
79.4532031115717
79.5180519889092
79.6058953146445
79.7023040195567
79.7838663817619
79.8540191401545
79.9400756113899
80.0160884501092
80.0807261839869
80.1557767006051
80.2365531296186
80.3125496272879
80.3762269760344
80.4416478694218
80.4941355282477
80.5181171812949
80.5359163046448
80.5546160256809
80.571921119868
80.5581322339071
80.5172270620002
80.4644385802032
80.4025277530472
80.3168751418962
80.229884423492
80.1353365770983
80.0374765968847
79.9270837780743
79.8094620668466
79.7152648732847
79.6370804269894
79.5467303255647
79.4693195504424
79.3891193028988
79.3059405052359
79.2179686444778
79.1430064684982
79.0785035424996
79.0081063632539
78.95114387813
78.9005952478673
78.85941001627
78.836105612329
78.8344995925414
78.8544377961906
78.8616405539193
78.8939518930034
78.9467791166028
78.992387455864
79.0542850627291
79.1260802506649
79.1958100662723
79.2821418280072
79.382601752775
79.4684361778816
79.5632981453862
79.6673535511399
79.7793397778774
79.8927876300797
79.995731722538
80.0851784780823
80.1711571722303
80.2904211080257
80.445345326043
80.5966947727152
80.7153354702248
80.7972764444501
80.8768758809137
80.9346001872546
80.9388116038465
80.9102217431332
80.852400366796
80.7919300279602
80.7422945765607
80.6611908827268
80.537338396108
80.4368445714377
80.3624629306126
80.2836278039592
80.1957750521457
80.0920740402178
79.9908016349324
79.8706643368396
79.735929888009
79.6075019573599
79.4666495660978
79.3283015460452
79.2156537147106
79.0979649421305
78.9842860077901
78.870161989901
78.7288438724064
78.5864418343616
78.4140524777549
78.2000399754601
77.9878600438867
77.7345859672051
77.4104246853472
77.073561858597
76.720939019278
76.3644877756485
76.0661601180789
75.8161524587315
75.597218363984
75.4159879933116
75.2726624345396
75.1621049993426
75.0658139653975
74.9880189867471
74.8927722930156
74.7848101194865
74.6522635680442
74.5236580338151
74.3749485883366
74.1882679752818
73.9760025969294
73.7460237190724
73.4801716557091
73.2240919333411
72.9634953348568
72.6516655695157
72.3100595445529
71.9815907010803
71.6415514581726
71.3190537975038
71.0178597582199
70.7379727143273
70.4444674657207
70.1604244170125
69.9081172041812
69.6842748518927
69.4654357571119
69.2781372388127
69.0953478771954
68.9190377379821
68.7595321740795
68.6070887992529
68.4482402857051
68.2985747960622
68.1134060829188
67.91910225108
67.7633254638327
67.5992268566028
67.408764084843
67.2440447236385
67.0908246430002
66.9508633622766
66.8216445041057
66.7048943633858
66.6259668124253
66.5734400948545
66.5397043857911
66.5821386486079
66.6465845986315
66.7048025509229
66.785899783757
66.8932506621016
67.0246648351726
67.1880552557596
67.3925338147188
67.638305342305
67.8920034685126
68.1811507275877
68.5045875129803
68.8463862660135
69.1990487630268
69.564113621075
69.9147408184049
70.2627485573135
70.5890211895337
70.9143454997203
71.2226529914403
71.5172637170299
71.8106060055741
72.0973261639975
72.3698014308699
72.638042043825
72.8509468005911
73.0597665283194
73.2815802349052
73.4365079836215
73.5782252140679
73.7546750131122
73.8975070881031
74.0639645685393
74.2542453379532
74.4568264862478
74.6707992990595
74.8750693100015
75.0996362393943
75.339650907385
75.591973591106
75.8300267522879
76.0469196453396
76.247859898561
76.425636765933
76.6475935241195
76.8769562487407
77.084534062147
77.2761118803584
77.4838777178501
77.6881649147551
77.9029130551617
78.1068667979224
78.3093488931801
78.481113652474
78.6547999335696
78.8165990235127
78.9576103686522
79.0811213304276
79.2014213063094
79.3007703584998
79.4095648149199
79.5104395955738
79.6010147595423
79.6826284754083
79.8037638386052
79.8998108607181
79.9849022683422
80.1340203721489
80.2833892480182
80.3646509382944
80.4385040729957
80.4853621360348
80.5459008832825
80.5870200325753
80.624710383214
80.6987383594073
80.7320807730238
80.7512685225733
80.8131908433825
80.8669998815622
80.8983047764123
80.9291061560721
80.9259755400827
80.9260242339282
80.9463227535526
80.9199193463838
80.8516804428153
80.886099982344
80.9540345690851
80.9258216105235
80.883607460474
80.8666133124606
80.8594766009964
80.8126166328897
80.7585070404774
80.7253472307663
80.6975633457173
80.6464456620908
80.5886724153362
80.5232032961416
80.4401144859884
80.3116559085846
80.1845556698638
80.0816223280831
79.9765784447439
79.8787518023801
79.8117842706766
79.735594813045
79.6778044862086
79.5976303875971
79.5238614212839
79.4436328653275
79.318151308923
79.1868640731568
79.1141235157785
79.0331255460105
78.9034943387872
78.7559358483061
78.6453189949571
78.5263643408864
78.4222791067444
78.3480285290369
78.2566795827011
78.1937629904034
78.1219363915791
78.0175180077565
77.9426917719756
77.8359503550458
77.7371807554018
77.6742157709323
77.6017729545903
77.4924587278481
77.3918029927343
77.2874281884435
77.2087431081545
77.127944945001
77.0458484704542
76.9809658428981
76.9403645811833
76.9116515841386
76.8694482959296
76.7747567907391
76.6923024632744
76.5900813344698
76.5081806953861
76.424739326052
76.3669230770138
76.2548964161884
76.1250656896188
76.0274324905829
75.9150498074046
75.8226411715374
75.7464066713174
75.6492881673477
75.5359252215062
75.4146659494583
75.3281899797062
75.2553741669115
75.13148363293
74.9733328396604
74.8638245508425
74.7305527280271
74.6465192354847
74.5616900048343
74.4312242009768
74.2918891370377
74.1442569231597
73.9626156739966
73.8437463490783
73.7337130732012
73.6173024480732
73.462413314914
73.3646028545246
73.2178971028734
73.0415443226464
72.8601405292669
72.6667567287852
72.4595252974989
72.2972978126112
72.1267700723689
72.0239306351213
71.9405223112384
71.8482836338889
71.7138654883198
71.5938665134148
71.4874647662074
71.3916835423656
71.2487255895366
71.0926630352051
70.9068372725038
70.810056810274
70.7126115871026
70.6169051681999
70.4579592556095
70.2659749617196
69.9976843942408
70.142226923628
70.1110265801241
69.7745717906667
69.6148756768745
69.5431263264478
69.4072180216737
69.24850577957
69.1102015055208
69.0143740307676
68.8540217117488
