1798
3999.43349933624
650.420452594757
1
128
4
91.2367524930739
91.1985080071214
91.1694543277756
91.25163780003
91.2698204114538
91.2344096455412
91.195934168849
91.3379430549347
91.3616102162557
91.3356733769896
91.3460178140789
91.40132380638
91.4139507718814
91.4776264093446
91.4659383421016
91.3607361406853
91.2617785681749
91.2983428601008
91.3719252236435
91.4219280694564
91.3920308781071
91.3961358425377
91.3459523615769
91.3725004424614
91.4263046420748
91.4974769012962
91.5301507847559
91.5367098479981
91.5343305518681
91.5093223399871
91.4442535749556
91.422273087153
91.3947702573427
91.4397352618903
91.4467993425734
91.5467280903505
91.5276566337868
91.4689469823968
91.5386178750875
91.5906591759918
91.5263377863976
91.5354260416535
91.5440900147435
91.5129112875775
91.4668746540579
91.5054397297835
91.4990063683684
91.5080487563542
91.597323349675
91.6696831143296
91.6395369170471
91.6416613847133
91.5728010756342
91.576632388631
91.5358217027543
91.5988312912944
91.6669345891553
91.7620873482536
91.6225540611984
91.5911806880599
91.7810851378543
91.7220498924682
91.6164108743803
91.8239042406607
91.8056835999587
91.705977659198
91.7652111964514
91.7604381815545
91.7317023311679
91.7818586143848
91.5936286647701
91.6893830948364
91.7462000458267
91.7097969575964
91.6293529359053
91.6876032264371
91.8245295829232
91.9736264519375
91.7765582916222
91.5695144037742
91.6106818832602
91.8028496447663
91.9617404270946
92.0355477309746
91.8924145935517
91.7037337094874
91.6903531450922
91.8112337448217
91.8294237390841
91.90375181521
91.8629972722753
91.8693966982532
91.8762790728693
91.8001259275558
91.905116942438
92.033638850459
91.7721698968873
91.7962685339384
92.0190478763612
92.0666366369233
92.0161300286547
91.9948383084523
92.0577914661209
91.999544295917
91.850539753455
92.0517236204472
92.0343296679138
91.9005666197955
91.9437656441235
91.926278798169
91.9257168422646
92.0139660647686
91.9873697394274
92.0204292142205
92.0421896152351
91.9375665652102
91.9751327554214
92.1951070355761
92.1937352897217
92.0717481812892
92.0416753962238
92.14837367355
92.2193514874869
92.1999580823579
92.1278951882934
92.1028591351245
92.0834557957699
92.184582448487
92.2138237288992
92.0992103173631
92.0151337311827
92.1899103368027
92.3285008160137
92.2279324529504
91.9200774400712
91.9504534825362
92.14467430588
92.189235868832
92.2696171199484
92.3350491031669
92.3202481603814
92.3649831453127
92.2078595809105
92.1044182021285
92.1039886698267
92.2551913966678
92.275511129318
92.2617835403339
92.4085663314974
92.3853755803369
92.2378870417821
92.3712660352734
92.4713032702107
92.5522888095053
92.3934511970213
92.2010610598822
92.1973594733671
92.3268511615821
92.4262423078202
92.5100761327702
92.4557784306753
92.4213603304863
92.4112880408583
92.4054289472449
92.4485785882283
92.5975354640263
92.5445952706678
92.3847393352109
92.3465757611985
92.449130762183
92.4207310135668
92.4766402475769
92.5188346330288
92.5057361216138
92.2967380956278
92.2367582195029
92.3487577815211
92.2224502853077
92.0853452047565
92.2267711426016
92.2549797599718
92.3177858804045
92.2423475651496
92.1028124143825
91.8879888794562
91.7979041085912
91.9695536756393
92.158521727243
91.9717151694001
91.734612254688
91.6222485187013
91.6095090455051
91.6928459694147
91.7323670202171
91.6561054013636
91.6228128407442
91.497643288357
91.5121792074936
91.5370180483523
91.262661787824
91.0080034323408
90.9737478068778
90.9853342581124
91.039805030056
90.916714622134
90.771532325136
90.7315827369802
90.8613981402905
90.8079131229325
90.6860089626257
90.4894852581807
90.4465423316803
90.4616236525045
90.4554558214919
90.2690070044893
90.1920459906484
90.2154040707684
90.1460187925717
89.9669791221864
89.8789614068848
89.7981914973586
89.6647320167819
89.5332382662707
89.476955319489
89.4350678941301
89.456403024867
89.3761236534689
89.3065063915639
89.2241155697454
89.1771289101703
89.1417086084008
89.0088983921275
88.7323738530649
88.6137277254651
88.5242020951026
88.5659700523391
88.5537563176839
88.4674597919564
88.3699181993968
88.3962064735975
88.3289449456538
88.1118638238902
87.9236073536177
87.9020535571605
87.8054893747681
87.7047220895417
87.6640755639635
87.6405192882688
87.4868913908506
87.4347998714554
87.3391564063218
87.2668056311645
87.1348054123271
87.0260926871068
86.9259433477966
86.8691361729506
86.799971712918
86.7809190796238
86.6666809504209
86.5625945846908
86.4825376888225
86.4796818049076
86.3557955245471
86.1281905850749
86.0185862232681
86.0974851430993
86.0599386620945
86.0400013666087
85.8794963867989
85.6897072585972
85.6798512206013
85.7260869240106
85.5919942922645
85.5149564796716
85.4334738278838
85.3079290073908
85.1936509042321
85.1450125155546
84.9633489007517
84.7857455795239
84.679986168179
84.7259456662733
84.6771982223376
84.5911740918919
84.5652412806739
84.4902180644934
84.3636429592663
84.3669909362895
84.2561320989396
84.1550201279294
84.0798251250317
84.0711041943202
84.0219299735358
83.9450774761552
83.827197872066
83.7971605267569
83.7067344247833
83.5528557758424
83.4772309381378
83.4859169153735
83.3492283006285
83.2241965984673
83.1850023207438
83.1494541637963
82.9759643486005
82.8619851058601
82.8116243685052
82.883437683029
82.8676321710713
82.8090255325738
82.655444569036
82.5777457944331
82.4229713992403
82.3361742710629
82.2184434227544
82.1750027237109
82.1782672589167
82.1484489416281
82.0505623325571
81.996248524122
81.8906824606644
81.8303505710311
81.7607811402702
81.7397093384152
81.6211058428198
81.5724563408491
81.5191157443955
81.4559246540442
81.4418220371051
81.4453955239067
81.3370890786456
81.301179601967
81.2941642394702
81.1851253812371
81.1376515853964
81.2149434525605
81.1059874649059
81.0749345779855
81.0709062877169
80.973542014496
80.8714829077108
80.8694374130762
80.7547699264131
80.6947556151086
80.6237460747818
80.6014436271094
80.5379306586923
80.4583202249202
80.3625682854836
80.4118375125408
80.4275674048083
80.4126310955187
80.3866275514013
80.336413106373
80.268297689982
80.3369179375544
80.3003444148826
80.2745678911715
80.2113442055529
80.1653215286442
80.1274075391405
80.1279021769569
80.0843991698691
80.1220812443032
80.0788798368878
80.0283577059156
79.9453989567943
79.8616515013233
79.8053988915193
79.8595831174222
79.8621914001468
79.9681714640125
80.0206609214247
79.9312219493088
79.8699608856342
79.8927514282427
79.7205747321186
79.7163164368506
79.714378359017
79.6913216976717
79.6570620788692
79.5756502245548
79.5253511794186
79.6219998302378
79.6074911452976
79.5523795705684
79.5254472688047
79.5481429844442
79.6056668727181
79.7467109643115
79.7091890700132
79.6842062549278
79.6744407498988
79.6364581200271
79.5589590869023
79.5619721135389
79.5064831105213
79.5308660963183
79.5936495113158
79.6431284708751
79.5101734597664
79.4704244009085
79.5993834385224
79.7418080149437
79.740711621698
79.7045413874087
79.6389350503123
79.727644996575
79.801953397124
79.8166210232277
79.7964416974282
79.8432280124573
79.7912957487868
79.786860244638
79.779111103503
79.8427436398078
79.8414903701826
79.8383154253578
79.8194120001531
79.8920082703619
79.9956726142055
80.0141075272568
79.9133755562048
79.9750413281022
80.0101970500096
79.9858846009909
80.0038666911393
80.1544482022403
80.1629143509539
80.1848983863918
80.2406295433406
80.3119147891807
80.3060110440975
80.3097377505416
80.3599409902689
80.4623354482887
80.4287624871913
80.4887412325421
80.5665619847701
80.5833937348889
80.5738694903542
80.6599930882313
80.7747303588932
80.8362752166491
80.7654323592923
80.8110228162043
80.897291570267
80.9800758135726
81.0081315862886
81.0732926406371
81.078708447131
81.2013768529129
81.2940846710198
81.3822475143884
81.4885308861227
81.5536773095277
81.5657633066107
81.5988231929866
81.6499809657267
81.7114811537445
81.6889859379248
81.7640855827697
81.7734232756794
81.8039368079856
81.9289592679512
82.056893237315
82.0337588497485
82.0755520583628
82.0903223619304
82.1217165736403
82.1739271523476
82.3308255388424
82.4210619162089
82.4809635294292
82.5368390760289
82.6382774299571
82.583214581664
82.5431146806337
82.5114456748535
82.5630016179332
82.6230682262172
82.7425659017693
82.8274742302662
82.822651892953
82.8095638497083
82.8208604024127
82.8222826595253
82.9278059381021
83.0626389162177
83.0995865548052
83.0924403553903
83.1995854029439
83.1938607340525
83.1686043371506
83.1917038887274
83.2668757293778
83.2528772526613
83.237465535021
83.2579246153911
83.2980307551917
83.3942321251389
83.5345589783283
83.5088460654911
83.4752622639634
83.4718987807861
83.5165349564011
83.5671918536485
83.6626919054742
83.7196023744273
83.7985378656433
83.8391018605522
83.873462575525
83.9481434295365
84.0329675060866
84.0570857867118
84.1434618653694
84.1601230046487
84.1646738843101
84.1827036255683
84.2280817560338
84.3067656128192
84.3324759278442
84.3205644083659
84.3851529530607
84.4758526878035
84.5563739172387
84.5796410329309
84.685646366696
84.7311850867059
84.7615315316641
84.7252359459102
84.7156551912779
84.7442884483542
84.7610187996768
84.7729368498975
84.8198075247179
84.8254732344869
84.7677875238895
84.7856440476417
84.870094113006
84.9242898399869
84.8672332182594
84.7580949855709
84.780336526181
84.7660209629479
84.7651928361834
84.6921142997487
84.6254880373097
84.5714389695445
84.5948653843098
84.5798924633373
84.48947099823
84.3450616141221
84.2462024950062
84.2345136402365
84.3050667770742
84.2559840869468
84.2349737736501
84.1937910783298
84.1126834905104
84.035471982309
84.1204307766279
84.1597040683955
84.084064155568
83.9884834428329
83.9805122571566
83.9603107711311
83.8869183038068
83.7464694474854
83.6781263027488
83.5944922720919
83.4672536201365
83.4186609857984
83.459270462444
83.3889030755198
83.3716194410874
83.4180962135207
83.4274664820212
83.4213580166614
83.491933656643
83.5886919066089
83.6742841573244
83.7632855819569
83.8786114141489
83.9520660573082
84.056008429811
84.140662674502
84.237037948295
84.2945958353116
84.3780301951946
84.4745833334945
84.5310469853867
84.5495390317456
84.575895247715
84.6018114069206
84.6550968612544
84.720273983226
84.7850707356235
84.8177149808203
84.8734332513475
84.8696611107156
84.8618967502272
84.904880827792
84.9678375640757
85.0114488298807
84.9857909183796
84.9236666819527
85.0093678788824
85.1156876276996
85.1801710796127
85.2237989402117
85.294123039956
85.3143909266814
85.2928177741429
85.2742089846842
85.3441465693861
85.3828309894261
85.4238447752248
85.5556900297567
85.6468784943731
85.7390616283294
85.8297511395446
85.8823155855113
85.9986652597578
86.0865590314287
86.1349268634981
86.157287022953
86.2704922708624
86.3590332610518
86.412824248334
86.4228312527983
86.4782878340909
86.5776881079626
86.6474886655803
86.6524516506987
86.7292705090512
86.804321092273
86.837561669147
86.8513170729519
86.8982271277253
86.9378117129018
86.9167241964373
86.9033918799524
86.9407097677197
87.0173403250244
87.094458271535
87.1439233679986
87.1819878727724
87.2109034996114
87.298062965961
87.3252865071516
87.3215536619934
87.3759587961822
87.3808309929915
87.3315939338021
87.3726513320223
87.4546444646047
87.4995851270255
87.5161123855519
87.5899177932237
87.6358189532537
87.6150199822789
87.583463278092
87.6295511973449
87.699962785271
87.7214873892308
87.6698133928007
87.6610645693927
87.6953767881397
87.7661841964057
87.8061773839117
87.8198862516614
87.8738545537484
87.9145837686305
87.9079839675341
87.9011994516166
87.8949281223222
87.9318205284626
87.9694221345093
88.0052854285129
88.0390459749013
88.0559795808062
88.0700777235523
88.1506575419573
88.1727463348146
88.1816891155459
88.2030027714046
88.1960140241701
88.2186082097579
88.2680063580481
88.2812890996063
88.3029429082211
88.313976525456
88.3125397090787
88.3163465829493
88.3326800097337
88.3698629385805
88.4135627777905
88.4722997016441
88.4985363974967
88.4976290435326
88.5505075642286
88.5630673899447
88.5453773952516
88.5410016302575
88.5767294134267
88.588093657397
88.621734256008
88.6418447529646
88.689426348758
88.7275935455888
88.7270070903795
88.7414318192785
88.76023427831
88.736606188128
88.7343965757015
88.7389999259226
88.7314881485082
88.7627932106189
88.8291578943971
88.8093492343713
88.7694700698834
88.7935539304145
88.8491421026765
88.8520375926086
88.8171710769013
88.8462736964591
88.9182334121246
88.9520896739273
88.9488414177858
88.9684480382429
89.0101081322697
89.0630528530582
89.0983593431077
89.1221900548826
89.1725047110465
89.1629730075452
89.1751506252087
89.227743528843
89.2808073190401
89.3176411838903
89.35132356406
89.3598436486782
89.3617567647064
89.3847491075709
89.4953814394206
89.5649691194923
89.5836684512863
89.5938298735942
89.6367001489051
89.6601552010485
89.6829748649246
89.7117543676303
89.7389537127368
89.7358707809721
89.7837934102757
89.7952414420101
89.8348568764223
89.8936181832837
89.948985305074
89.9740764867922
89.9838679204427
89.942476123125
89.925087194885
89.9726063520813
90.0287590105892
90.04013531282
90.0797186042754
90.1601340202122
90.2389503429041
90.3251256345584
90.2921611990421
90.2155954348806
90.1348019034891
90.1377317129191
90.1765093178165
90.2100177127603
90.24748571386
90.2590754472292
90.3192799374603
90.3313046364542
90.2977243626557
90.2812398955637
90.3705508177591
90.4301855939327
90.4220878802634
90.4323932757681
90.505473292963
90.5205547105954
90.5221022061777
90.5697901297765
90.5935852339715
90.5807476051176
90.5907233773126
90.547863200733
90.5551948334802
90.5945253619942
90.5557171059793
90.4959213163518
90.5865178798874
90.7828910595194
90.7558478274502
90.6265341521709
90.6101182328914
90.6938477787621
90.7628783974114
90.7174138388611
90.7341341950009
90.7918475785621
90.7884967489796
90.793710408834
90.802928812714
90.7551079999269
90.7454900547872
90.8166001588822
90.8386203504087
90.8256400766491
90.8523969727115
90.8664352237423
90.8345188135458
90.8242209353116
90.85796976842
90.8642592739863
90.8859760372435
90.9379874878258
90.9579407063739
90.9167854725809
90.9340033464076
90.9363015926647
90.9125437853156
90.8388179744392
90.8359144840124
90.8719509072455
90.9034658045821
90.9368379960629
91.0634694316703
91.0914806963667
91.0243585530124
91.0256095722082
91.0944747346689
91.1182387259029
91.1136916299818
91.0915154494025
91.0327674743929
91.0370990775123
91.1517345533166
91.1881665026391
91.1004453808457
91.0821707654482
91.1337473679765
91.1092176569742
91.1697154060098
91.2566706507071
91.2481174855015
91.1894601813368
91.2090412805231
91.2828593065225
91.2316505338432
91.2038761857323
91.1716486549854
91.1759096848553
91.2164415343801
91.1878141486104
91.1560660351864
91.2287062450551
91.2952791172709
91.3155049128858
91.2821303255951
91.2150502496515
91.2364938367081
91.2942470999658
91.2731522483088
91.2382499355617
91.2715313275645
91.338458001549
91.3279595051087
91.4259873447936
91.4560747291946
91.4086724764275
91.4247371482174
91.3884527246258
91.387160733028
91.4610933547738
91.5152308005755
91.4336238864049
91.3612609783686
91.3173242189136
91.2970269533032
91.3686844788172
91.3628652813851
91.3176477742398
91.3331737403596
91.2928472840896
91.2845524376146
91.3615917591169
91.4360285291801
91.4063571436784
91.3273439796978
91.1326742571971
90.9863611526534
91.0492637034473
91.1179363122149
91.1780777710606
91.2111337373423
91.2208503975866
91.2773628854379
91.3453634346756
91.3646116137689
91.4266004565485
91.4316454195371
91.3955727969847
91.3951657626043
91.4736194423549
91.5337679809453
91.4517643815074
91.3919305249021
91.524628699275
91.4996501711463
91.3218402170232
91.4580322719581
91.6112927711043
91.6999654985001
91.7611066301985
91.7791707687249
91.8112277158018
91.8936893880056
92.0547885959227
92.2243845218268
92.2457925234709
92.2426861260316
92.3057439080753
92.3420795611811
92.3133736669755
92.3539811377715
92.3946667121005
92.4413385788532
92.4953284192941
92.4815394019213
92.6186084179367
92.9275757852888
92.9864816722432
92.7727220817898
92.6968585283056
92.9405912548449
92.9513644752956
92.8980049214672
93.0201109660936
92.9854210048234
93.0122585433791
93.1990795777438
93.3643368475224
93.5579131064258
93.5953447390073
93.4688089331068
93.3129788729628
93.5075061594967
93.7473576414301
93.5271396905269
93.3183885010896
93.4901382021973
93.6239267221088
93.4769919606501
93.5986521156585
93.9814842460739
93.9970246104504
93.8410574708058
93.6770163768093
93.6851895301546
93.9556233184836
94.0759260105266
94.307777848131
94.6196719910688
94.6263456497948
94.5733305296621
94.5219935959567
94.6322686533476
95.0065070566626
95.1099117841731
95.0346883317797
94.7976325114284
94.6443567528732
94.8647408743681
95.0416580109992
94.8972244417107
95.1164996521059
95.5689159811978
95.4962261778693
95.996340279803
96.7283229395204
96.324525669786
95.5982427944884
95.4283624808598
95.3359563042363
94.8743549229129
94.8803310292523
94.8994098518533
94.669039237583
94.5755843283337
94.6058197998763
94.4729702847807
94.4698345593756
94.5807219384632
94.2971622613079
94.0217416283434
93.9554958982739
93.8529386822308
93.6005601657453
93.3134327191158
93.1161655723512
93.1690458180893
93.2751336417242
93.2440298084054
93.1140795367471
93.0899470544763
93.1132380437009
93.2466578060841
93.4616915481345
93.5342905918525
93.5487991935517
93.4313067477557
93.3168722943077
93.3792585633708
93.5334759159972
93.5585296118868
93.5489577877082
93.4323805769888
93.3969286729131
93.4346786650866
93.4867167108389
93.4435979795978
93.5578073781153
93.7559163269802
93.9108044308697
94.0097061551231
93.98829256457
93.7713226244728
93.8036516977301
93.9929405869779
94.2586493826156
94.2985431801489
94.2164875614487
94.3912407208175
94.5639945460605
94.6151290634888
94.6485797145371
94.6421363651042
94.7238845233999
95.0052378770602
95.2777847775779
95.2662012222392
95.3427164620135
95.6351421954274
95.7791854573581
95.8130616413249
96.19511781229
96.0948198426785
95.8562224294566
95.8958659487905
96.2714292862468
96.4825124361045
96.3823308016679
96.1752982571332
95.8332567769339
95.841448487467
96.205371102139
96.4638536314576
96.2451314951241
96.0333936629812
96.1834272910012
95.9906226997785
95.7060301224765
95.7914820659426
95.9654878346049
95.7607483473481
95.6178333559931
95.4867062771038
95.6393878241599
95.640645774464
95.3542276972969
95.4528012321939
95.5807822670607
95.6059061837444
95.7818632231816
95.7074392284075
95.7006715294864
95.9688199558951
96.0871180626229
96.1809207333334
96.1357766666599
95.787392924266
95.9079888799294
95.8327513743124
95.5685181729525
95.4711782663556
95.6648987503942
95.7860489661515
95.3906460037787
95.0748430294002
94.9282104781489
94.8357918558772
95.0437244832764
95.103172755015
94.893662412721
94.7597651005106
94.5697119020308
94.4501111842208
94.3927816451711
94.4033694528538
94.5953798106169
94.6317313239976
94.5188217630574
94.4457034477897
94.4344970327134
94.3228780113154
94.2915483628338
94.2035011540566
94.1225320227138
94.1399976370182
94.2837595260831
94.2610352018421
94.0257644660076
93.9619038575378
94.0905888287215
94.1214587593397
93.9980825863704
94.0187147036412
94.0774104833706
93.9927965468949
93.9228191613311
93.8847695545318
93.9319767853051
94.0373488927417
94.114430579457
93.970227550579
93.953980720757
94.0534325779735
94.0336052004622
93.9303132405722
93.8665276568085
93.8493773968637
93.8549564826319
93.848060020454
93.9082064931264
93.9920085893349
94.0428107782101
94.0120827074309
93.9856876453049
93.9210577397009
93.8343807523772
93.8097666840473
93.9096966692696
93.9644813335244
93.9442826453751
93.930262516427
93.987600612445
93.8916283526729
93.8530581279313
94.0109290281035
94.0425781225211
94.009278440285
93.9948437137694
93.9332987871664
93.9523792300508
93.9670219344066
94.033661853298
94.0112622466428
93.9387704301612
93.9802379551521
93.9970700183939
93.9700973275738
94.0262588231601
94.0612090916377
94.0350427295308
94.0177959945919
93.9882905809661
93.9559926682161
93.9819295051128
93.9876981985372
93.9774932442612
93.9513663375292
93.9638056154297
94.0003501477128
93.9733067321304
93.8701398115302
93.8462860222294
93.91728193488
93.9622475880895
93.9239432676795
93.9026517426907
93.8782861945677
93.8081040630157
93.7949250844487
93.7756632843776
93.7060709423788
93.6757537368687
93.6705858540373
93.6268009875685
93.5704072353637
93.5425244231279
93.437261063274
93.3439651379234
93.2882186438778
93.1648246442452
93.0737573573212
93.0033300234954
92.8710939370271
92.7683254438817
92.6724634219989
92.5167021254648
92.367384121653
92.2538181999962
92.1023646580519
91.9477455912846
91.8010300675831
91.6409703468564
91.4574682797007
91.3605424879152
91.238301007305
91.0841902833711
90.9090877999013
90.7412906647474
90.5987803774308
90.4755055180744
90.2965066956962
90.1467945952488
90.0317461264891
89.9030134302643
89.6927568322621
89.4894423808417
89.2524260394715
89.018131425581
88.7933966296562
88.5339596112081
88.217180277456
87.9094917899824
87.5960054553917
87.3281794108795
86.9082730924769
86.4547577251871
86.0317351202243
85.6284506430637
85.1355795314735
84.7148839639834
84.3805336290123
83.9421724042844
83.4275092492442
82.9441018267269
82.4987411428017
82.0309299735748
81.4931461277656
81.0310379524833
80.6704078101027
80.2148532123439
79.6696562547506
79.2182220540104
78.8104020146409
78.3791320032195
77.8752898873788
77.3230142828213
77.0739682038077
76.9864389494148
76.6043070718946
76.2437290090208
76.082299140615
75.8667975291512
75.5535304083843
75.2316595434653
74.8694970644968
74.6974502744546
74.7895073507578
74.7281341914583
74.5339449197745
74.3785444251509
74.2927220102131
74.1821843937143
74.20460217163
74.2381793718705
74.031601693456
73.8556491409333
73.9955293425214
74.0574746249422
73.9188202482287
73.7493375469208
73.6664702059525
73.6316897033043
73.5226798462505
73.3920390227853
73.2925163229213
73.2189592265401
73.1298260682286
73.0753703160763
73.070410064725
73.0586791852208
73.0484158995982
73.0993044661791
73.1083401732805
73.1376395205219
73.1800826532214
73.1829853907593
73.0261991650599
73.0820600107811
73.4647345161438
73.434656095782
73.1903444927095
73.283463122909
73.4247699444497
73.4145051273316
73.3574093470709
72.9802846106189
72.4891408934724
73.2886319776596
73.6849536595674
73.6682873027791
73.5765708681361
73.470095788363
73.5300488212051
73.4966539013755
73.4032580013371
73.3865201602037
73.4597127576909
74.3274957510996
74.9398260933327
74.7646034404797
74.7309450405833
75.2093096597272
75.382203674386
75.3935868974394
75.596397272632
75.8705863374562
75.9283341990242
76.4553259071101
76.7652585808198
76.8595143722619
77.1546811376321
77.2847039216623
77.3516921608625
77.2179578990387
77.0873478555639
78.2593201493499
79.0023951773617
78.9928483520382
78.8970185939136
78.9702650494052
79.4401533211319
80.0141042807622
80.1107972857973
80.1013178215655
80.558207985925
81.1337409805373
81.4791833497185
81.5861271658825
81.6850207992562
81.8188966897439
81.7926056933016
81.6729033106211
81.5172162603633
81.5082963306314
81.518390617925
81.1666296972946
80.6627276711546
80.3414055238318
80.2296285735162
79.8844748222036
79.3481611829994
79.0420377085473
79.3147679901011
79.2684751882274
79.0268850542627
78.7525349650232
78.6356100086573
78.6584972360308
78.5955823021461
78.529926169671
78.4501531066288
78.192410778406
78.0827920406795
78.2724749579626
78.1549227281141
77.8506030095038
77.5905954978629
77.3562407534107
77.0088736043423
76.7037891472277
76.3659432408385
75.9568332002747
75.8518969834929
75.7908723892477
75.5554152995504
75.2844391398807
75.0974271379941
74.9644875807731
74.8083305568743
74.75581662327
74.7987362527828
74.6988835342023
74.632786436959
74.720008131824
74.7782254202432
74.9960621670312
75.1183878571261
75.0285168498418
74.9298911190065
75.0565299593489
75.229579820007
75.2564784141541
75.2652624334411
75.3176616828025
75.3329458832455
75.326225168826
75.5263641656246
75.7035647778841
75.7733959167688
75.9487297887104
76.0951061412844
76.1493024996653
76.3856467454718
76.7231172843009
76.8968109644908
77.0075574391053
77.1368841256896
77.2923238341394
77.4163200015092
77.540860501892
77.7097039411824
77.8372304715292
77.9401810679204
77.9717280647916
78.0435185217662
78.2477572958855
78.430716159804
78.5160259121271
78.546204537713
78.5880052573091
78.6510602819608
78.7283959062504
78.7812066925629
78.8041911748404
78.8193058044606
78.8624651167151
78.9245826212969
78.9716669403752
79.0005819327912
79.0595298194919
79.1225464008731
79.1657476304201
79.2375943539618
79.3106729786275
79.3628071966858
79.4418847136363
79.5079670361967
79.5762483941045
79.6632382513559
79.7143523027542
79.7663815602541
79.8207286613662
79.8592711976147
79.8771482902559
79.8789446718174
79.8798073208055
79.8522439019724
79.7978186388272
79.7500075438653
79.7053453502018
79.6295840347058
79.5157176216453
79.3912736836967
79.283254041538
79.1792239236
79.0544988218259
78.9333117039158
78.8519555216409
78.7677541966933
78.6824344822947
78.5888061462847
78.4744425690349
78.3585336274189
78.2673667446856
78.1837140712304
78.0797487506235
78.0026598068162
77.953747558969
77.9009745190336
77.8724724393308
77.8708402633897
77.8670272198875
77.8661746852808
77.8960258110661
77.9448675976425
78.0012555323546
78.076094358906
78.1604652833179
78.2587105501554
78.3633049393092
78.4775314750165
78.5818330353019
78.6771451292839
78.7832309669399
78.9102433750564
79.0664377590136
79.2114729346192
79.3185218196796
79.4469022631267
79.6159761836529
79.766020848063
79.9219306460726
80.0665533466692
80.184882365336
80.2959462954485
80.3934469281735
80.4168465080414
80.3729097112625
80.3282359213196
80.279071836012
80.1764280666545
80.073075791016
80.0116302178841
79.9195227498506
79.8063820555728
79.7299838498683
79.603635497129
79.477875630594
79.4125851795959
79.2719590477274
79.0850516117298
78.917085669437
78.7925881826597
78.6544950054405
78.4805829316119
78.3330185776783
78.1876816014397
78.0311414311547
77.8748214025351
77.6777389579989
77.449010802247
77.2251538430819
76.9966696143356
76.7265804557597
76.3799402427344
76.007702594614
75.6412291615296
75.2856814265842
74.9730193739579
74.6992525459944
74.4508046769778
74.245015771265
74.0810514722456
73.9588415502826
73.8522494468636
73.7348630443368
73.5992231331188
73.4639135016847
73.3375311678325
73.185602393361
72.9758440856602
72.7181966384271
72.4735626786296
72.2411434410533
71.9744481209801
71.6862889054273
71.3776925768338
71.0521544320401
70.7066636033828
70.3720146603124
70.056337470113
69.7403293123335
69.4193723628286
69.1009177364168
68.7909249300723
68.5051681019381
68.2412578197521
67.9685962470507
67.7158351436683
67.5049759995336
67.2841379753303
67.078700658396
66.8818813521978
66.6851781578677
66.4931113064446
66.3062626706688
66.115014586628
65.9516021847187
65.7765949529676
65.5906244846335
65.4166971916702
65.2428886627079
65.0904163378151
64.9650231200317
64.8453431094346
64.7398755715738
64.6590997698129
64.5962971969119
64.5360359132265
64.5080938337455
64.5323774641296
64.6060491774709
64.6764813744891
64.7510630114351
64.8539203970418
64.9755736700001
65.1543471091915
65.3604393818279
65.6072991996984
65.8999387005908
66.1744493231145
66.4828255467967
66.8010652943415
67.139919335632
67.4840842356286
67.8137389507803
68.1187971905531
68.4247687142496
68.7338444878273
69.0356297969965
69.3272914011878
69.6131836042659
69.8795620731393
70.1203953255822
70.3362280068289
70.5591074999493
70.7690926835325
70.9439118168923
71.0910885401496
71.2486948411715
71.4223030101833
71.6088051379325
71.8136305683574
72.0305260551028
72.2740532126024
72.5140268711464
72.7480946448823
73.0172295421897
73.2699568717809
73.4992903063789
73.7282239676388
73.9659965255053
74.2009226775328
74.4431918713989
74.6778785954465
74.9062115552366
75.178762831249
75.4570480392953
75.6695649802993
75.8491081618704
76.0476148620696
76.2612984516511
76.459714776833
76.6599818172991
76.8220978591648
76.9592330895478
77.0524591262395
77.1478371565812
77.2733982002976
77.3994783035633
77.5126262299477
77.6217580048033
77.7125170589097
77.8317763807102
77.943060854453
78.0574700275444
78.2058358267002
78.3528141622197
78.4331806600215
78.5091377032243
78.5711572252185
78.6302195417533
78.7097538027322
78.75822423642
78.8155529028364
78.8720997118831
78.9238826173717
78.9729948506911
78.9869222898803
79.0200578616044
79.0892704156969
79.1180906227909
79.1443936936666
79.1935302889861
79.2293061035498
79.2384370792874
79.2391227967805
79.2571674776947
79.2672545793663
79.2586757591648
79.2328815412651
79.197999936206
79.2034373343697
79.239446046245
79.2235971544308
79.1834533697701
79.1434216474477
79.1069851356369
79.0476176760116
78.9613180495447
78.8861841594664
78.8160919614113
78.7102391672139
78.6096015335951
78.5493546390608
78.5363115458929
78.4968190064495
78.4495466085249
78.4044502796238
78.3482255850008
78.2877265448721
78.2276046031962
78.1743690486166
78.1288777752001
78.005875092312
77.8852777118916
77.8012906820467
77.7226735007837
77.6452521529019
77.5921810724216
77.5242703451893
77.480245610061
77.4106908774084
77.3595231991806
77.3474729661286
77.3141323939358
77.2796628087685
77.2135444201185
77.1116010865558
77.0107692596614
76.9724824987656
76.9348262600548
76.8581199016027
76.7882058435792
76.6947384914285
76.6568469536555
76.6675798757238
76.6440352322267
76.5975124687126
76.5852494283852
76.5251954656303
76.4565759043317
76.4141881567247
76.3524337458513
76.2615723283873
76.2160957461287
76.1507053052249
76.0624070291447
75.9934514880491
75.9165940472914
75.8525748187482
75.7956890361426
75.7331341100237
75.6534133207778
75.5375853172574
75.4708140409119
75.4068308693532
75.3531281818714
75.2833160260676
75.1678372165918
75.0718841134593
75.0346637356291
74.9239722929775
74.7437459639057
74.5825830318917
74.5245395536891
74.4288620167338
74.2800353583883
74.1650942437417
74.0836989919558
73.9918712931958
73.8686762158809
73.7035502013583
73.5664812189908
73.4162726240054
73.2428689864444
73.0743604540064
72.9536748905641
72.8044567372727
72.7001153267097
72.5779561340979
72.5061872208792
72.444034246595
72.322580974603
72.2083477016748
72.1571963932209
72.0489501070353
71.9280005197152
71.8389697037084
71.734753868075
71.626226143337
71.5380631357203
71.4495798611904
71.2881242675028
71.0423456457579
71.1784437336576
71.12507484365
70.8741921960222
70.7910940476737
70.7350963942595
70.5783460498121
70.4514219694159
70.2992649225598
70.1968379106474
70.1043152117818
