1798
3999.43349933624
650.420452594757
1
128
4
96.0026589537643
96.0135224176042
95.9177435012534
95.8735284490118
95.9426571778377
96.0027486089672
95.9472220293197
95.9240705149732
95.9541928138609
96.051336243952
96.0843546101292
96.072000939668
96.1282881630367
96.1847700790582
96.1858302144825
96.1698368104104
96.0236920751554
95.9671253916944
95.9763073690446
95.8953899838165
95.8630753299783
96.0164444419747
96.0861802205842
96.0443128042591
96.0605188856467
96.0776282806845
96.0423636033772
96.0160507484068
96.0214687978146
96.0750917098644
96.1104256714864
96.1671547299652
96.1636051064111
96.0135370839721
95.9276744786434
96.0122737268051
95.9866982010465
95.9722486718483
96.0248473562744
96.0917611992082
96.1162078332838
96.0809990557753
96.0537868482122
96.1117931214206
96.0649061281566
95.9798444117044
96.0666447536238
96.144418683333
96.0883974704071
96.0855331037581
96.0939646725128
96.0398142882084
96.0280217945616
96.0602189664535
95.946920060746
95.9550223006562
96.0712530729894
96.038917217837
96.0014102384629
96.0679543923259
96.0954584989888
96.0856047111861
96.131249096848
96.1938240731671
96.1579359482043
96.1480763892616
96.0855156781048
96.0221594511667
96.0878960149374
96.0913869702182
96.0489137435613
96.1376732248247
96.1156725138102
95.9947851501728
96.0234258039779
96.115200340337
96.1145864273982
96.1675975782094
96.1530489334815
96.0904930158827
96.1317689776842
96.2693441918873
96.3045161252214
96.1934408190583
96.1238259582067
96.1893644382595
96.0862906754937
95.9946955151927
96.127261624702
96.2485155827999
96.2081431242381
96.1993186726918
96.1318918878727
96.0733662759455
96.1525201336644
96.2500544942517
96.2451871511665
96.2223680259732
96.2252581055741
96.2125752340812
96.2173047780609
96.2662781698707
96.1657093344719
96.0746974627865
96.1690373561528
96.2326869969085
96.1988590534389
96.2509292339858
96.3283812523555
96.271390885817
96.2080881769681
96.2890680493694
96.3094999341235
96.275688542069
96.2212443036531
96.1831361266198
96.1368186166519
96.1108033760062
96.1964081378697
96.2987997901546
96.2421991153916
96.2192373145753
96.2486065116798
96.228111495128
96.1809712571139
96.2407786434983
96.2979058055925
96.2814442546093
96.2378405257927
96.36979827999
96.3757699734588
96.2603467340673
96.2721460595205
96.2757233833739
96.2644661877594
96.323259620993
96.232413863551
96.1427804575362
96.2406534249385
96.3247467678769
96.3341559854616
96.2324087073306
96.1734124737203
96.3504338053121
96.5112228620617
96.4938868091173
96.4138092574105
96.3864954183318
96.3389565871207
96.4272868689297
96.4485622372907
96.3349511818364
96.3226796000159
96.3662073232741
96.3092853808178
96.3258451417272
96.3891524509339
96.3947474190682
96.3940543552849
96.4263900277376
96.4283255791273
96.5087732984842
96.5265359176383
96.4031367461608
96.3216056939382
96.3864657977544
96.3094635556351
96.3103570663134
96.392606973519
96.3804025026311
96.4088211961952
96.4409696927139
96.3359438281475
96.3514470064292
96.31439952923
96.1965276358099
96.12594843035
96.2048551743643
96.3790489656665
96.451723525351
96.3207907512222
96.1692973251194
96.2067797507697
96.3439891509952
96.2553070834825
96.1514582178348
96.1175564488957
96.1139956547486
96.1348351775859
96.1020280265094
95.9833336024362
95.9539242862116
95.9499130378315
95.9425598045395
95.8860729017329
95.8780961694035
95.9537146057577
95.9795772644293
95.9227962630678
95.9059314327022
95.8886910614945
95.9026190162962
95.8690451462008
95.7549164454898
95.5810073767287
95.5708457550926
95.5816440390199
95.5673495318401
95.4961015580039
95.4770190117528
95.459634376789
95.3761215974211
95.3250159130064
95.4076398557676
95.3607164468923
95.2324967732519
95.2322094948416
95.2669595517038
95.162836922945
95.0870723188192
95.1023967654239
95.156382982929
95.0591706765733
94.979061490948
94.8691883078157
94.7903323878568
94.8683567643085
94.9198638217855
94.823290585368
94.7415511763049
94.6714513042743
94.6367884036796
94.5469820074144
94.4434766887768
94.4239069351191
94.474980915166
94.4666218083144
94.4467389121355
94.3794091047018
94.4355808119759
94.3843131310319
94.1549335697808
94.0235090847162
94.0416884441362
94.0618852754071
94.0995900895615
93.9981143279638
93.9399280449457
93.9010620385448
93.8609543878303
93.8033054301512
93.6978727240617
93.6055276690059
93.5901012232766
93.5199844931522
93.5385845059488
93.6712477725876
93.6648398782568
93.4402993865888
93.3029370244004
93.3739469231434
93.4880121783126
93.3622389569659
93.1996874866565
93.0700965106017
93.0307245062188
93.0405340862375
92.9940863918736
92.93805294
92.9859929782512
92.9317997432863
92.8110795135744
92.705877378204
92.6095027203667
92.6507884597031
92.7174116022648
92.6084714170731
92.5004952323617
92.4157985478283
92.4189974014697
92.3701170508087
92.3048935527682
92.3059300082439
92.2891661661066
92.1427623714691
92.0174104046572
92.0203757785592
91.9848496775988
91.8943914561824
91.9433065945078
91.9550372164291
91.9392027404712
91.9381686560352
91.8725622113256
91.7254601794204
91.6229113038768
91.5434021278501
91.4875941828156
91.4721162576687
91.4936730584213
91.4243851569348
91.3448795303286
91.3001988664944
91.2756075286825
91.2337964110617
91.1319071061866
91.0445586626947
91.0729785022935
91.0800923610384
91.1171560747263
91.0495888533039
90.9648942688417
90.9268048668876
90.8717770444066
90.7238575875794
90.6977552541029
90.7181763017737
90.6808259824869
90.6843880333653
90.6640449949994
90.5588677524543
90.5086655566921
90.3979678927308
90.3182073490324
90.3650720819965
90.4602263475313
90.4251629876284
90.3032319222071
90.2123282876585
90.2032743063295
90.1490071305329
90.0518579389137
90.0084105630338
90.0971717593428
90.1134897863138
90.075634704014
90.0490005541195
89.9817577090024
89.9182524148016
89.8696737603133
89.8054921559887
89.8670826496415
89.8221304119789
89.7650696751817
89.7373890124917
89.7284101827591
89.7021058681656
89.6443414450757
89.6575088223349
89.7186739191714
89.5760117963843
89.4555772369839
89.5154137806095
89.5101601020124
89.3924949656372
89.3571424584128
89.3339173033458
89.3663155272982
89.3392377050573
89.3089511038508
89.3515480869987
89.3511873582034
89.3345575093672
89.3053237020707
89.2427324943258
89.2987007526764
89.3223711119256
89.2830773319033
89.2363202202446
89.1739633761363
89.1089925868957
89.1322837622956
89.1570010308743
89.1451822017611
89.0981048021508
89.0707149842551
89.0552343563173
89.1448426355158
89.154804922966
89.0380723267216
88.9616046270432
89.0043403433571
88.9881790840237
88.9901418898432
88.9285627677644
88.7932110914303
88.8009702830418
88.9565082635732
88.9689597903196
88.934407423843
88.9386636507472
88.9729940196546
89.0082621758768
89.0110351025837
88.9703363316218
88.9465212536539
88.9104120062848
88.964481961591
89.0152318462305
89.0526820666343
89.0663311675946
89.0746578799235
89.0415074908833
89.0407880946214
89.0550313975772
89.0123490087187
88.9606594879808
88.9501395597483
88.9136241652046
89.0243869616663
89.0876311866917
89.063256743643
89.0650782423902
89.1053416161298
89.1481069426722
89.2098174422682
89.1667438766245
89.1022008101552
89.1420688512294
89.2221364443241
89.2012813305485
89.2034049438357
89.1921662346972
89.1381838957662
89.1687118206447
89.2821068713597
89.246315783028
89.1639275802856
89.1737567172734
89.3093907661521
89.4017195281919
89.3886848232856
89.3210296755564
89.3463928522309
89.3865083447611
89.4182889553755
89.4687327342423
89.5051525634422
89.5074788710735
89.4942862860888
89.4776882495509
89.5109866299985
89.5644815223507
89.6823551965099
89.6951710987608
89.618336200852
89.6265129097083
89.7005311315258
89.7904439153608
89.8628802557453
89.8234549715166
89.853356741732
89.8871117607494
89.9187391142777
90.002804863384
90.0292645174505
90.0223690536915
90.0174828885959
89.9899033418072
90.0455722829932
90.1571815682866
90.2267273798241
90.2151937190032
90.2745884829547
90.3854344437576
90.3490765772828
90.2377906636033
90.2521554225335
90.321916858133
90.3782205170185
90.3868499872948
90.434024916282
90.4607472038821
90.4871232274823
90.5627738876964
90.5655108120952
90.5202004895444
90.6200716502278
90.6983218733507
90.6718357556909
90.5889112115758
90.6082961849338
90.7187219938937
90.7597072195545
90.7295882911838
90.8029672335942
90.8552621580431
90.8772759654592
90.8667387620799
90.822333955821
90.8249520411535
90.8668093568788
90.8692285288685
90.8386254310424
90.8680566344272
91.0312244180765
91.1030081042222
91.0450350455122
91.0186131283771
91.0690547533458
91.0932109114191
91.0475084706455
91.0403324362751
91.0834605622652
91.0311473547546
91.0211152177884
91.0884531217411
91.1410890829241
91.1531728731235
91.1758321927521
91.2383052139878
91.2730041064492
91.2855177350012
91.3197597455611
91.3198768453216
91.3210261222415
91.3235819706063
91.4291883783289
91.5135580168654
91.5294532115807
91.4754719605348
91.4925659579392
91.4982286695721
91.4683576731183
91.5738719225062
91.6736212391327
91.6277162013495
91.5990805439909
91.648475231076
91.7151109274165
91.7531137528577
91.7167576955868
91.6265303571702
91.648540276269
91.6561845470679
91.7021687647078
91.7976064923052
91.7960481169099
91.7358250515152
91.7723474122374
91.7625029822848
91.7072887577156
91.7057704138742
91.750482241607
91.6970255473602
91.6577848567723
91.6676426308641
91.6583688266768
91.6149227059374
91.5848752217125
91.5524474335311
91.4802220014537
91.37468231912
91.2847894425724
91.3105497645078
91.3631728566818
91.3099926309851
91.2506154611721
91.2016859991293
91.2172398975917
91.2200236376496
91.1847692026498
91.1497703270041
91.1564299010044
91.1505516832427
91.1279844626038
91.0386784745696
91.0136589785646
91.0146489749021
90.9710554638837
90.9032761479277
90.8409935371894
90.7903606218861
90.7493987389711
90.7360110036213
90.8034229220911
90.7817036521402
90.6817531232924
90.6690085017273
90.7624745231974
90.852844108884
90.9057154097427
90.9607056314563
91.0851699257607
91.1188097619708
91.0944373577213
91.1139396611933
91.1800513091334
91.2004699115248
91.2256801961972
91.2664987519925
91.3450086807061
91.4022930690466
91.4493351157829
91.4792357859921
91.5054458444437
91.5065780687874
91.4869467259117
91.4816173689414
91.5038491536504
91.5335336610876
91.5552663851698
91.5577549991998
91.5512669295586
91.5839895551005
91.6672107440582
91.6673237962355
91.6518734268635
91.6975320432575
91.693483441945
91.6727128903467
91.7493143741423
91.7851510630367
91.7339364018858
91.7070190470161
91.7757925575127
91.8311890526116
91.8995768967108
91.9567279570365
91.967862110952
91.9735776199989
91.9819662128267
92.0374998400527
92.1600005543121
92.2269637234578
92.298686451179
92.3278719037493
92.3155178511309
92.3419828446197
92.39503955499
92.4442183393346
92.475289175947
92.445351830538
92.4673233404989
92.5242890265435
92.5291115099943
92.5148747979481
92.5421865923528
92.5825353630927
92.6140554196339
92.6851196519411
92.7031769070879
92.6259840716652
92.661096863146
92.7579627502233
92.7863858360392
92.7764925805072
92.7951212481208
92.8237043237894
92.8553222521702
92.8656473340814
92.8683986786027
92.8798716486257
92.8529006000043
92.8512728189689
92.9089740026946
92.8955660893889
92.9441911323477
93.0191203395407
92.994427342937
92.9410623417104
92.9986085484557
93.0601958985297
93.0140372131909
92.9754525020929
93.0076346784742
93.0578302832006
93.0929026760886
93.0984645109654
93.0988753663272
93.1207138200759
93.1742689182003
93.2121212040636
93.2150220562018
93.1889891138742
93.1709971033946
93.1583065111824
93.1904715388475
93.2109097784662
93.2018551548007
93.2007585607745
93.2109929288016
93.2241991917768
93.2211525864598
93.239868099338
93.3025278586885
93.2862706771028
93.2843348465393
93.3135246979001
93.3259760635614
93.3476832117676
93.3651564722078
93.3619090571892
93.3251496722991
93.3242391338212
93.3933546523606
93.4162213549235
93.3705955175706
93.3730511134732
93.4206371531439
93.4448830929084
93.4503278778274
93.4476806900445
93.4391018239306
93.4461930753683
93.4538977163969
93.4774810746744
93.4815930565035
93.5142938788699
93.5332596075005
93.5260634013552
93.5356681235655
93.5658366210594
93.5838110284592
93.5849782757843
93.5912394241959
93.5786435606774
93.5503719150402
93.5137086966911
93.5207173676918
93.589288471229
93.6210178188827
93.5899568887714
93.5898902412178
93.6380773908195
93.6716828948789
93.6438505422833
93.6349181387788
93.6360682836501
93.6508518505519
93.7003229567513
93.7174418486816
93.7218749517002
93.7748429148583
93.785556258871
93.7677691927555
93.7526059634549
93.7752287175648
93.8273667873538
93.8419429043378
93.8817385548454
93.9857601333429
94.0464819259841
94.0446417521316
94.015581518971
94.0191903735779
94.0569302713564
94.0287693199699
94.0100603005549
93.9816859583327
93.9889718977816
94.0664807422986
94.0993897985145
94.1507482843967
94.1658579031737
94.1301720798449
94.1159445754818
94.1306042438136
94.212631885536
94.2823962076513
94.2752015064642
94.2934155346944
94.2814211466853
94.2823308510654
94.317179914382
94.2814046081057
94.2982619428817
94.3354274296929
94.3156438939746
94.347243781856
94.3952182954016
94.3447155531682
94.3228323552608
94.3696804653136
94.3874131685077
94.455853709473
94.5175179585541
94.5024543660088
94.4556336057926
94.4644915470526
94.3848357539869
94.2754937966302
94.2625118604816
94.4226666158594
94.5151244015153
94.5103607884307
94.4923850312341
94.4809562814463
94.5323433001433
94.5965062809725
94.5684694159915
94.5293275987114
94.5773782159576
94.5707114851776
94.5772430707874
94.5462197134763
94.5162607740701
94.54789212633
94.6203362745243
94.6334965226665
94.6073513084298
94.6772931278396
94.7162581649236
94.6778177551659
94.6204168249417
94.6322900529398
94.6418749160141
94.6800998991299
94.6851362695807
94.6382006196605
94.6400170960283
94.6440561933283
94.6509929171146
94.7179235921936
94.7295047421592
94.6805420925432
94.6764174438275
94.6520763507526
94.6154181186467
94.6775119398694
94.7410498881469
94.7463270183216
94.7114527248385
94.6927707636506
94.7125137997652
94.7233627040476
94.7253857591284
94.7633996657501
94.7875551250252
94.7529676593538
94.7286915099443
94.7129615144356
94.6959457301834
94.7745034625604
94.8856438395036
94.8758902070929
94.7536907217154
94.6882277637517
94.7938977025454
94.8403446659161
94.7974518611096
94.8007500426244
94.8670353010968
94.9179213852744
94.8970635736085
94.8656776609925
94.8580409258262
94.8740446136003
94.9215910506026
94.8724134297906
94.7143514083989
94.7272173123722
94.8118753563452
94.8104818885025
94.860993073299
94.8906017501805
94.8974615112783
94.8561200969019
94.8108664522059
94.829349005175
94.8195034057192
94.7750915564403
94.830486142677
94.9021439365934
94.9086330414059
94.8887267006005
94.8032467904812
94.7773688173464
94.7987216896793
94.7641899804715
94.8000415403301
94.8507646653618
94.8065732716285
94.7723852151237
94.7975833846228
94.885907086782
94.8879717020399
94.873943124414
94.9554056632092
95.0145664566261
94.9308626224724
94.8641543967856
94.9611563065488
94.9809219920949
94.8930549300675
94.8784702916255
94.8599317436533
94.7884920473105
94.7342853499835
94.7164732809444
94.7442432938096
94.7659069017328
94.797231789378
94.8279517848759
94.8657696130741
94.9335399492269
94.9760039935892
94.9097001093559
94.7885403906306
94.745974203452
94.7482554150322
94.8209731719254
94.9067465916769
94.9069092545911
94.9055278632255
94.8909189263929
94.8584473155802
94.8276728321434
94.8583979132301
94.9308455630753
94.9744563571415
94.986562401234
94.9878055709387
94.9909471567413
94.9912097041346
94.9430383471478
95.0049569715409
95.0855646708563
95.1522951203604
95.1860438450583
95.204847801693
95.2612739087312
95.2975458010765
95.2752659328126
95.3473643543423
95.4376168971372
95.5052953512694
95.3989378786813
95.4141189147346
95.5023794034375
95.5762462815578
95.7044497138541
95.6963331503892
95.6098456767536
95.6278507161005
95.7995951999988
95.8131870556779
95.7870834984592
95.8800887504709
95.8560672491592
95.790705241726
95.7702552295068
95.9836466988511
96.2933952637115
96.3041825975027
96.0982290279288
96.1057137198514
96.1329050335046
96.1006972126822
96.2949838609078
96.3039531416139
96.2277155080707
96.3938947472121
96.3833846239438
96.1258825791071
96.3388357062621
96.5720738052112
96.5006345760388
96.4267031801185
96.5742818671309
96.7787129990483
96.6900248368514
96.6283759795272
96.7744829647026
96.908147557878
96.9173693774783
96.7796344517646
96.7317689842245
96.7641056031013
97.0544814823085
97.2108134970117
97.0860048499775
97.0101584768433
97.2663183105817
97.502975177256
97.2440787123545
97.3282805917126
97.7428817201564
97.8433165003111
97.6381005896068
97.6554281131675
97.6590093437509
97.5445117770202
97.471443971835
97.7474308671083
97.8723998778636
97.8615983718443
97.8869743219072
97.8948551212327
98.049500636832
98.3035206709771
97.7867128192641
97.1229958285716
97.1906854608241
97.4198678719229
97.341798789424
97.2680986693235
96.9855054760356
96.9215686741336
96.7577995344223
96.7231080343005
96.7470941304631
96.5443178205265
96.4463784905895
96.3870102583654
96.2618937169972
96.1920504088384
96.1252646223983
96.1012081865788
96.1109046388717
96.0877400157232
95.9345128779355
95.9095040202165
96.081631776825
96.1784567307903
96.1201439131644
96.1345948929087
96.1154018382675
96.0705406286116
96.1237025797589
96.2145634939876
96.2090401316968
96.2851070188634
96.3376599421994
96.2173401000946
96.0719709970737
96.1191498221932
96.1542635179006
96.2956728175567
96.349304606371
96.2413422628765
96.2617496970092
96.4167609127721
96.5633584765355
96.5146912919189
96.3735197872686
96.4984396911038
96.7774202652542
96.8061309603244
96.7013188220538
96.7629895961655
96.6428191963204
96.5474795722925
96.8296684225775
97.168421532633
97.3977595053366
97.273483073346
97.1956786788721
97.630366603682
97.7202240893771
97.6099071594509
97.8013057994155
97.9662278597681
98.2278874540923
98.3289691191768
98.1844789100343
98.2956300887042
98.4209849084134
98.3957416440812
98.2379738361988
98.1408582176481
98.1597924247639
98.1711069127634
98.2315231245302
98.0427209842269
97.6716372203567
97.61382514214
97.8652545528123
97.7192354951096
97.7450687057513
97.992640785821
97.7989963213733
97.7320075897169
97.6971083302158
97.7009256588472
97.5626532718857
97.4762395460934
97.6649232659901
97.780418509739
97.8398028000531
97.9186978657946
97.9993624369416
97.7968754075542
97.8235002917332
98.3711171715001
98.5597884466761
98.3118007533612
97.9977666146828
97.6397378101685
97.5612011112564
97.6264125089858
97.6342878226079
97.6345930455596
97.461784723949
97.5779093218763
97.5508610760263
97.2070637278674
97.0947618673733
97.1819941090914
97.3187799128007
97.1500219963584
96.941214429339
96.7330658257574
96.7850089950086
96.984589718246
96.88902605717
96.6283614276154
96.5381113072638
96.6393567606558
96.7278994343182
96.7633361324677
96.657119334874
96.5499470651697
96.5167509057078
96.5356421330507
96.4477030774699
96.4387006576937
96.3884736710651
96.39141950413
96.4782153324337
96.4292343357408
96.3172234988395
96.2854909971147
96.2539978098009
96.2856509201711
96.3293795944633
96.2356688607538
96.1431557574731
96.1640432149704
96.2239652409319
96.2715186655849
96.2234100048047
96.1781848074997
96.1637435271088
96.2121375872795
96.2302835747534
96.2490661134322
96.2030524070859
96.1473188060376
96.1895590056428
96.2563653141295
96.2158022116583
96.2126858096687
96.2056908903866
96.1745202455762
96.1814770778802
96.1971029592173
96.1282647785673
96.1338051014611
96.1931067534957
96.1579081949708
96.0908234336579
96.081490501881
96.0841104217343
96.1157205587773
96.1820379407927
96.1732999168952
96.1589497719831
96.2017603049409
96.2434821353036
96.2371299137982
96.1545088452316
96.1045889008787
96.068912245204
96.047516339614
96.1033943436323
96.1652858223427
96.2010200298928
96.1875849649484
96.1426230649482
96.1670239107175
96.1768906021904
96.1688746661209
96.1671488792952
96.1779752867316
96.1963339635209
96.2072622858584
96.1540551891868
96.1123396717569
96.1276159127788
96.1446936994501
96.1606756219552
96.1591139337784
96.0997393122732
96.0619099470465
96.1155973446161
96.1810439573316
96.1665120673648
96.1199110691059
96.1356383803741
96.1510530656355
96.0961497174776
96.0522896258573
96.0243858432914
95.979718931817
95.9047792718449
95.9319695532958
95.9214567307409
95.9061914693816
95.8964882175139
95.838678104414
95.771400429556
95.7271980622055
95.6454872600304
95.6276995022036
95.6150236115446
95.5378232768338
95.4184035522116
95.3328186260582
95.2843014660981
95.2318238097716
95.1531888281951
95.0071000522715
94.8776610534291
94.8322726176232
94.6540453622265
94.5741189581651
94.6054819783345
94.5591932318795
94.4685346142299
94.3911977705194
94.2642644342569
94.1359966799225
94.0196212742017
93.8963840563166
93.8424658798388
93.7950675297826
93.710970662968
93.6035110877148
93.4593489961743
93.2932763362556
93.096870379893
92.9917801079035
92.7338010652735
92.4763439249485
92.3843205120267
92.1354935451525
91.9459380583591
91.7828242663496
91.5123789433167
91.2027950756145
90.9365033034965
90.5700489056575
90.3435897004204
90.1893632349233
89.9250869556065
89.5686033708095
89.1564597756728
88.9026307896397
88.6463103440769
88.3139622933218
88.0377590579947
87.8207579530454
87.506107345939
87.1686803555287
86.9286321787628
86.6540611468246
86.3680358142965
86.0298490117343
85.6134148371774
85.6661731662689
85.6276221370979
85.3310289490371
85.0841189340593
85.0319524798183
84.9153831916967
84.7015892039637
84.4802413846567
84.2874006349733
84.2883699438963
84.3574677728276
84.2841760918048
84.1019851605453
84.0036907050304
83.9793779998744
83.9275257064641
83.9243048439965
83.8776362516565
83.7631629308551
83.7437272095677
83.8288191551617
83.7723606392204
83.6554580385635
83.5612996906283
83.5043966103613
83.4587911905947
83.4176213447345
83.3555038844919
83.2830363166155
83.2357488050483
83.2203300358973
83.2175423740562
83.221470928434
83.1976971599068
83.190293781208
83.2223218277449
83.2728794149805
83.2811006328677
83.3216804332098
83.2860243257376
83.2050516650958
83.378636529841
83.5390462448484
83.4489597139604
83.4014528786208
83.5319774011786
83.5258131764119
83.4918848963613
83.335404422499
82.9673481402304
83.2062523164313
83.6779768260377
83.7550878136095
83.7481335928371
83.7084670034575
83.7086168792902
83.6944594026853
83.6169643323407
83.6164895645861
83.644770896285
83.9567389649365
84.4342343854768
84.5745191087666
84.4964224199996
84.6479554961727
84.8128492408399
84.8646784073851
84.9416444832279
85.0933256643342
85.1256537011949
85.301714048891
85.5651154242326
85.6434056298906
85.7808090259739
85.8477481196198
85.8745995752647
85.8600898835308
85.7713025981068
86.190611058407
86.756361977406
86.8891944397251
86.8814597406426
86.9169313910686
87.1140702000339
87.4563962944663
87.6216260100509
87.6337452273503
87.8122512690378
88.1306202264236
88.3970998627376
88.5175680469738
88.5795061943941
88.6591933520706
88.6792510773387
88.6368772558596
88.5422910169919
88.4404242898075
88.4551088165314
88.3340915477672
88.0322210260489
87.7317747255791
87.6418544763685
87.5111079543611
87.1995169332455
86.8770540926296
87.0131307141555
87.0779312049257
86.9044314186968
86.710085991815
86.5986028865441
86.6139953508109
86.6052434366606
86.5371577436684
86.475654542268
86.3728314180475
86.2317121315163
86.2911826955455
86.2861297253524
86.1219821845279
85.9585740212304
85.8218080823633
85.6286649455595
85.3809830097848
85.1452958144991
84.8936052650007
84.8024573205882
84.7633357082788
84.6089361903778
84.4554837820306
84.3379076153262
84.2288576485081
84.1456501584157
84.0961182995443
84.0828900009214
84.0916217144092
84.059267160397
84.0838498506242
84.1076845457689
84.1828121629105
84.27824124582
84.3062469777222
84.2551171284299
84.2932730902417
84.4133176502344
84.4331905678686
84.4331490963837
84.4489301920622
84.47819176193
84.4772583891019
84.5461567174385
84.6863763478578
84.7425234967298
84.7889101460451
84.8831703775153
84.952809803063
85.0765347705936
85.2706877556177
85.389362291856
85.462704765849
85.5548210367391
85.6584511967993
85.7309199264449
85.8090368370563
85.8945828189463
85.9692724426228
86.0272504671754
86.0752150819266
86.1126148480589
86.1940156850966
86.2919219476525
86.3571757614866
86.3871196664534
86.4195626046472
86.4602659260859
86.4840725728328
86.5278320296343
86.5700664477896
86.5831533356654
86.5941431822072
86.6152607037295
86.6449423987458
86.6699157583558
86.7102198039773
86.7387469225377
86.7519028787785
86.7986520470993
86.862469441412
86.9022847736526
86.9318707219991
86.9709201354267
87.0234797810016
87.0582339744184
87.066288977748
87.1068810749122
87.1564630964473
87.186239440669
87.1959078985698
87.1706805702471
87.1657680904589
87.166881303737
87.1342482288851
87.1222452804251
87.0785068574048
87.0036178709161
86.9340901279393
86.8749284057377
86.7931656649731
86.7057324412152
86.6341963237798
86.5611481691926
86.5006240062533
86.4375669010344
86.373736511215
86.3139852722284
86.2505388771488
86.1792225117824
86.1109126045317
86.0727565946224
86.0203918718932
85.96686775267
85.9234707750345
85.8801667957145
85.8656806495427
85.8871333840699
85.8973067709903
85.890637667674
85.9024437210203
85.9344168642399
85.9798494414015
86.0145013042656
86.0600206205548
86.1166464579003
86.1809313258935
86.2435082557025
86.3158289746555
86.4160777095251
86.4972225374876
86.5724916465269
86.6647151847271
86.7335466402923
86.793831194171
86.867573314174
86.9696185250803
87.0824586510333
87.185319621696
87.2744434286604
87.3725056861223
87.4387252774081
87.4652353187731
87.4830835401753
87.4936689959745
87.4742796263264
87.4191789699157
87.3652128278294
87.316723217688
87.2273223137556
87.1452863184112
87.0973803529847
87.0249483685428
86.9647138501365
86.9003685491572
86.8280915883324
86.735197730292
86.6298116229291
86.5443580024805
86.4494227686551
86.3453884920196
86.2338135929587
86.1446231915817
86.0278469581212
85.899882046609
85.7994433220342
85.6781746447666
85.5370156411844
85.4011019419414
85.2321976945372
85.0249701584804
84.8196751651255
84.5942038492396
84.3233221621835
84.1009797589508
83.8885300330716
83.6873929944982
83.5485882430059
83.4485381316885
83.3162348658272
83.1802238697868
83.0857334935404
83.0122373454058
82.9366815138505
82.8465883419274
82.7235080976444
82.5917060814702
82.4536257545078
82.3310019033797
82.1647721577012
81.9818563994388
81.7924972476077
81.605100286027
81.3994477715167
81.1693751906606
80.9228439065984
80.666630715279
80.4248103946498
80.2073880636397
80.0039406325532
79.8084207832729
79.6106753450005
79.4192590007542
79.2229143531337
79.0421701382217
78.8643907746078
78.6751872765455
78.5072617084685
78.3703337454907
78.2411636881732
78.1147718800207
77.9715562493496
77.8349722002001
77.6884364735113
77.546788379577
77.4279481986057
77.3255365104191
77.19336945484
77.0812632189268
76.9871670120354
76.8785015273263
76.7848289913153
76.722702763112
76.6659686457306
76.629579932786
76.609053098228
76.5874064389786
76.5933374263406
76.6263143231138
76.6564698963748
76.7319084377246
76.8179521901484
76.9244748430368
77.0405086479397
77.1651524798332
77.325470833163
77.5138014272081
77.7243344551217
77.9269681086242
78.1071515596762
78.3286576292188
78.560504450441
78.7764931169867
78.9851315661168
79.1880015650366
79.3775959868105
79.5935693351113
79.8090133483955
79.9922147460687
80.1599351351339
80.3422621304082
80.4899506533956
80.6283910073856
80.7506713732151
80.877260249015
80.9643575292877
81.0490508035464
81.1787937828184
81.3361345727207
81.4879482132241
81.6220448308841
81.7520136546034
81.9084777577146
82.072163428691
82.2241255178783
82.3586594651618
82.5214633971637
82.6744749105781
82.8338115270902
82.9971988760918
83.1537353631175
83.3028910788642
83.4417919466265
83.5941996515493
83.7750186003181
83.9339939709971
84.0645218598289
84.1868212857178
84.3039301837104
84.3944579651978
84.5110398519977
84.642104822391
84.7417769043268
84.8194676940271
84.8986541148204
84.9898184212213
85.083480918225
85.1274932683901
85.1544773483416
85.2012083523643
85.2720676555525
85.3331951259936
85.445768627883
85.5481191539788
85.6175768911566
85.7155774900522
85.8019817648471
85.8383806797298
85.889581214153
85.9350056838116
85.9734342538799
85.9896881076594
86.0035428397468
86.0443057631527
86.1104034595214
86.1523036315805
86.1607258967684
86.1562713909016
86.1665396313283
86.1837348699078
86.2077266182589
86.2263144739613
86.2267246194454
86.2479275068399
86.27029240712
86.2855058053049
86.3130323683721
86.292285452985
86.2947356484944
86.3117930377422
86.2759514420872
86.2332389894345
86.2067419774339
86.175484727004
86.1564210924184
86.1298615463489
86.1010406594461
86.0804341198415
86.0161390275068
85.9062379097719
85.8590730819764
85.861024432852
85.8640178301352
85.8230349564294
85.8291699117088
85.8378610574021
85.806307286397
85.7442041732305
85.6948603315484
85.613056952744
85.5685271442742
85.5473366351647
85.5138306159306
85.4669673084102
85.4173820150981
85.3864851401895
85.338202127588
85.2331966542467
85.1639547228372
85.1403160592195
85.1427322393514
85.1084080175167
85.0568367106074
85.0152246443943
85.0136977338211
85.0352867635712
85.016501850655
84.9424466242131
84.875014124094
84.8621402763711
84.8241994192214
84.7837147706154
84.7674489487548
84.747526419113
84.7655691908718
84.7533353479737
84.7696601425811
84.7411012932426
84.6755654888208
84.6150992759689
84.5863854479253
84.5801415456679
84.5859467164387
84.5510476320044
84.4773160606145
84.3968755350975
84.3862379622882
84.3634202271748
84.2890459558573
84.2275174519687
84.1962014076823
84.1293556780192
84.1183737994
84.1219318020591
84.0306044676882
83.9584158876329
83.9128746020628
83.8204351829777
83.7583668716357
83.7222699425908
83.6787998713069
83.5853255120532
83.4839801357059
83.4400840120463
83.4176794235869
83.3015743640395
83.1639683371638
83.0826087014122
83.0113616967176
82.8991246054532
82.8099748108433
82.7257663616185
82.6043437012368
82.4860144300516
82.3896541631246
82.2949109236284
82.2172184578779
82.1550118360801
82.1278886653346
82.0753199771788
82.0626717599423
82.020070184286
81.8682746666763
81.7542507472016
81.69122107922
81.6390781110166
81.5836231180165
81.525547007201
81.4469159520767
81.2990770858012
81.2084810972692
80.9963982674516
81.0804669474309
81.0942365380824
80.9326711609406
80.8563614724749
80.7558520395899
80.6869042701305
80.6121408587757
80.4383694991921
80.3396239617867
80.283259086323
