1798
3999.43349933624
650.420452594757
1
128
4
96.0321877073785
96.03332735734
96.0206875805065
96.0124869296622
96.0002974911566
96.1184656238523
96.1438952957483
95.9984648085645
96.019825903981
96.1128079302106
96.0591848063287
96.0674418457794
96.1233532904711
96.0523907031505
95.9757943781292
96.0469905189394
96.0425930236193
96.0541448157661
96.0629178017482
96.0759492428571
96.0901570698516
96.0500418497474
96.0403129734648
96.1269556491646
96.1023048365715
95.9678787666627
95.9640869218447
96.0271880152174
96.0514152990773
96.0872106936457
96.0543663483627
96.1238317245019
96.1792115634402
96.1046388819652
96.0172245502309
96.0432778751335
96.0802793036038
95.9860934443039
95.9086984028361
96.0119088043961
96.1671704696532
96.1507570832974
96.0602261298098
96.0672259257389
96.089653382752
96.078527948881
96.0297446111028
96.0157781447936
96.0567878972768
96.150741230632
96.1863479971527
96.0921862081613
96.0302982620259
96.114630684931
96.1329545587296
96.1085440144057
96.0838956877418
96.1057663026362
96.0868707246027
96.0730794902543
96.172490835323
96.3064257904159
96.2209727013361
96.1312606942328
96.13503598755
96.0779540292905
96.1105706992339
96.1800070779361
96.1435806399128
96.0945817924625
96.0047723573761
95.9568180332975
95.9921886140266
96.1282848767388
96.1384725431449
96.1360950069326
96.1871366518736
96.2340566506976
96.1076714934072
96.0145936517491
96.0822631184413
96.1066738975828
96.0555365564659
96.1442234915295
96.2123027670853
96.2221912951219
96.1442742197941
96.0537186614669
96.1064047058479
96.0864470503346
96.0497573924629
96.0973123517366
96.1234637595755
96.1449915600195
96.1790314275129
96.2336890561217
96.3130857918141
96.2471501274229
96.100921726799
96.1215353380993
96.1215401465492
96.0467152927744
96.0400209653737
96.1718738321935
96.1913810306789
96.0865533463296
96.0000119033238
96.080924760551
96.1086119091974
96.0755103253507
96.0969912031919
96.1940569844178
96.2051598099852
96.1818622733208
96.1975188761585
96.2388728230649
96.1432319262495
96.1306240794533
96.0895322968168
96.1276811222187
96.1679679699118
96.1748633825695
96.2086860158846
96.2322053091187
96.2269612532765
96.2642607451722
96.3041889714133
96.3198595717789
96.2540829874872
96.1702076814669
96.1174777158594
96.1728840468444
96.3214301985959
96.2093605889648
96.0495978447475
96.149422630331
96.2780863948437
96.2119193751757
96.1070751655607
96.0290822181641
96.0259363846207
96.1016284498771
96.0514143954407
96.0208833397669
96.2577448321278
96.4680398887111
96.3439650069288
96.1791409936463
96.1290695877544
96.1906745839315
96.2487598711501
96.2288125097516
96.1028399995252
95.9636472228694
96.0459810673975
96.2405934869564
96.1970250755454
96.2423616133707
96.2439035736172
96.2278456234514
96.1980590735507
96.1934496043358
96.2394241332701
96.2075531350405
96.1453922245522
96.1284043802308
96.1025607112049
96.1033493492491
96.1490337090544
96.2190207142141
96.3045205958913
96.3164430053717
96.2183204872126
96.1841201982543
96.0282855843739
95.8777238829967
95.805235154066
95.8740787939236
95.8536844769955
95.9075589276718
96.0261392236772
96.0699054384971
96.0127385329525
95.9092178959155
95.9181942142362
95.9343722638177
95.9250150606578
95.8280851294031
95.6211651708743
95.5616739264969
95.5504950228026
95.4600612835588
95.3667025150804
95.3802805428496
95.4346402959508
95.4976567569148
95.4305219453483
95.2895568812216
95.1783830470887
95.1470020657344
95.1840487775027
95.136223824826
94.963758863447
94.8371550501446
94.6909976718094
94.6588625078399
94.6936083782057
94.6831601125131
94.647491094016
94.6427661230024
94.5470487218115
94.3867441673283
94.3185449525537
94.3042569878153
94.3422474286916
94.269440307755
94.0911285958746
94.021984748747
94.0005643985431
93.9955244206787
93.9521204891607
93.7572504711021
93.5264331174802
93.5686455038996
93.6556534355892
93.6078389368901
93.4598538908557
93.4654017569011
93.4358223011678
93.4431949011867
93.436666947222
93.2397981642247
93.0675178547816
93.0439725834606
92.9341386228295
92.9474998585646
92.8861985681203
92.8025975261196
92.7504811967752
92.687872531818
92.6182169654963
92.5584750683018
92.5489260206172
92.4203202726798
92.2366980891225
92.2481807227341
92.3040441369583
92.2775933779932
92.2035441151457
92.0570584387062
91.9496903055917
91.8385193257765
91.7258416185701
91.6736939540881
91.638086918996
91.5436120861152
91.5515669942824
91.7175654450294
91.701448959929
91.5123612841823
91.3748961290113
91.391358048713
91.3063291632766
91.0792676919621
90.9835439126329
91.050944494951
91.0400525999603
90.8357881968151
90.6945303281331
90.7047292554954
90.713167569974
90.6401826083363
90.4448919987796
90.3489619591715
90.3121022217323
90.2858807645849
90.1701449264771
89.9401541381086
89.8422662197934
89.8997310095468
89.7890465338067
89.6987589542226
89.6655850146936
89.5130350707179
89.3008470958717
89.1993695097697
89.0325635007703
88.9961890539784
88.961750449072
88.7461121608692
88.6990582823015
88.6789901042008
88.5768823375122
88.4879079407966
88.3662891153684
88.1654174081898
87.8497082009189
87.7706353583435
87.6607352224644
87.5415348793998
87.4197497434164
87.2377005925203
87.0941805167872
87.0383221485607
86.9890649631868
86.837176322245
86.6249959888656
86.4535168711955
86.2941415618368
86.1634896062116
85.9861196181209
85.87660257081
85.7730305238498
85.6157956943731
85.4575399949371
85.4977394476661
85.4230654028374
85.2424832174817
85.0504695802676
84.9259866691143
84.8303994530888
84.717279834033
84.5605152457227
84.4109260070433
84.3284853310316
84.318622788774
84.2689938966371
84.2715286891596
84.3562847879113
84.3356844337798
84.1834413832774
84.1532464374343
84.1572724492064
84.1420155740389
84.1617064799092
84.2294003399907
84.1765950625987
84.1636827969659
84.2221600042161
84.2947009977338
84.3520248938488
84.427889497756
84.4923320211497
84.6029287216681
84.5654150867223
84.4654657981542
84.4835585299397
84.5701397613026
84.5377910764043
84.6378885051256
84.6272911369548
84.5640108818584
84.5836202994893
84.5877961144662
84.6235889874102
84.7477221062629
84.7781061249869
84.7764139827128
84.7107480942258
84.7337312252664
84.793685112616
84.7828866007819
84.8073223022956
84.8627371463785
84.8383511053943
84.8193678093874
84.8101509751479
84.8400815192248
84.9145790056108
84.9665528056571
84.9419216433294
84.9384104348322
84.9252427704667
85.0117426112865
85.1221164495625
85.2179522523293
85.2850650790374
85.3066735936172
85.3325571181557
85.3718453021012
85.4239064062957
85.5242941004384
85.5695730750733
85.6267827979267
85.7349164135662
85.8574388059338
85.9100070664085
85.9745064773111
85.9348727975165
85.9736489876291
86.115743845689
86.2323910662984
86.2028445892649
86.134145451375
86.2327022001232
86.3361633384716
86.3488086841316
86.3834305446785
86.3725387132482
86.4104165474045
86.5104680827892
86.5182471279749
86.4685443157924
86.4925338362236
86.4551517657459
86.4755627328917
86.618352923034
86.7147877165987
86.7229272843977
86.7488057290089
86.7772626378482
86.9035876135537
87.0490600894662
87.0916647414129
87.1315201664003
87.247944990767
87.3818521217268
87.4199898354267
87.4780365105156
87.6175570168911
87.659994790748
87.707030198687
87.7908598442993
87.8785340945705
88.0091463338889
88.1283513985703
88.1462639704315
88.2541575038253
88.3239108951488
88.339998413148
88.4089213672023
88.449809432127
88.4901887088582
88.6798357919549
88.7711218148644
88.7552318761648
88.7869741716561
88.8672235798116
88.9260544477978
88.9673229414392
89.0652536281937
89.1746261492608
89.2905710497318
89.3608916730814
89.339976396211
89.4399181752165
89.4705136173356
89.566113125135
89.7408037921834
89.8200922696449
89.8271998037723
89.8286396797613
89.7865290820598
89.9509346087482
90.1587177155082
90.2082300114888
90.2044948025326
90.2770204363677
90.2749123075119
90.2655762388176
90.3840286292046
90.5804394547954
90.5863115981575
90.593654525351
90.653258895201
90.6680377559553
90.7427524577551
90.8368574764059
90.8355540186254
90.905109824723
90.9618153664587
90.9652621973824
91.0634582556286
91.1632969851082
91.2026492788915
91.2550730540769
91.3001151577599
91.3267537539328
91.3579049788303
91.4000968931978
91.4257270006214
91.4791100988579
91.6295892977422
91.745819491419
91.6982755861129
91.7361801107987
91.8149431048744
91.8484198015458
91.9119178774206
91.928317963948
91.9273313013992
91.9730911508207
91.9925353252772
92.0888188440799
92.1904364914253
92.1661811641221
92.1330324350484
92.1500906228802
92.227767403035
92.2765722361728
92.3525420764214
92.4628600655243
92.506030249899
92.4963427020718
92.5039257303371
92.5704363411545
92.5670185554908
92.587264144317
92.6824558537323
92.743322703347
92.7524213635214
92.7941801631156
92.8411355325585
92.8321033041722
92.8257768359508
92.8787912150631
92.9294964869482
93.0116617539018
93.0439290194221
93.0637829946413
93.1210891504691
93.1037221447341
93.0661219103256
93.1185002457903
93.1820766416041
93.2026505458846
93.224417554112
93.2802118203759
93.3477289318273
93.4578648070203
93.4825938136498
93.4292317234129
93.3686022549628
93.3995792285261
93.5291773527651
93.5551855637913
93.5046428394046
93.5884709559061
93.698245709756
93.7241904007133
93.6075987099728
93.5659586352194
93.646375360756
93.6949788633297
93.6764497127038
93.7270087407815
93.7735878188117
93.7342415509503
93.7074195854223
93.7394188921404
93.8237617391529
93.8343889462123
93.8347587322261
93.8598988842642
93.9302533039936
93.9716497299038
93.9600027982841
93.9998792052454
94.0462005815715
94.0313054288933
94.0388441897184
94.075427205843
94.0438850096738
94.0746111162175
94.1363003416364
94.1802506608004
94.1401729224446
94.1637225841596
94.2138298463886
94.2299691223647
94.2177068015831
94.1754505050896
94.1575124155863
94.2422542681785
94.3057665261601
94.319996091126
94.3512253850694
94.4433011351094
94.5055316166737
94.4661720087299
94.4701598058736
94.5030624487771
94.460248111052
94.5070234104257
94.5901207402619
94.5886658590084
94.572594344201
94.5815318327472
94.5461257339863
94.5779284910862
94.629563673174
94.6633331538581
94.693961408843
94.7017703870287
94.6696358900694
94.6692063382149
94.6745936988866
94.643879293077
94.654071679654
94.7232996792467
94.7333310643868
94.733357090943
94.7294987829277
94.7591512354582
94.7977962361611
94.8199805225369
94.8259295863677
94.7968843662944
94.7918314609191
94.8338979695706
94.8873475229683
94.9084545164108
94.9298644549575
94.9147791936711
94.8740002504219
94.8889361898158
94.9313590832463
94.970014509307
95.0009651526944
94.9853998543905
94.9619840061126
94.9822032776442
95.0558305181683
95.1000343420644
95.0932501223259
95.0914268043409
95.092458021114
95.0925638309551
95.0567564192252
95.0921290883523
95.11506370636
95.1212270817403
95.1263561955665
95.1217963094503
95.1349394766626
95.0910509158247
95.0149503997999
95.0450075666833
95.1617673934229
95.218527471909
95.1645802065955
95.0631485518405
94.9786711435866
94.9795376391413
95.0236438143923
95.0415602253214
95.0017199018302
94.9894057203273
94.9800025728606
94.9793894521709
94.9917073890608
94.9601562833475
94.8534841791388
94.7974307707109
94.7763174248507
94.7754788694954
94.8567470486998
94.9333867853768
94.9341691694498
94.9566252387014
94.9696197919952
94.967052956427
94.9339076152743
94.8899783998777
94.9058786774556
94.9533310333227
94.9786783315821
94.9903690065534
94.9693027290387
94.9308147194185
94.9039140361655
94.9144183819873
94.9694564649268
94.965187654077
94.9271211224433
94.8644356835373
94.81042231139
94.7890860649981
94.7724370705939
94.7480199019749
94.762611931483
94.7902284633091
94.7936788906511
94.8801989140713
95.0131387407271
95.1309586924253
95.1826565501868
95.2026404187155
95.2298825233085
95.2611805192774
95.3077814717531
95.3488026471781
95.3508865303455
95.3914390312877
95.4472622570787
95.4789546421612
95.4725764082453
95.4396031701886
95.4506474433662
95.4960477469717
95.5087990439242
95.5338908240506
95.5940417519588
95.5943015679398
95.5628949998828
95.5346153183003
95.520866767588
95.5517772436216
95.6684551004584
95.7262113155184
95.7009844930167
95.7271677008929
95.7425669016949
95.7151188243704
95.6851470393623
95.6728240601703
95.7048338431984
95.7176360404127
95.7076432317688
95.6820746268963
95.6938911839073
95.6902922558934
95.6796803172389
95.6939288829174
95.7330730717556
95.7603691180256
95.7437899960342
95.7276041715767
95.7487389541854
95.7561069388951
95.7839738390089
95.8391160790483
95.8525495510867
95.8969266328557
95.9374139815689
95.8561877133839
95.7676296370943
95.7981852591319
95.9218846611657
95.943617186958
95.9445810741519
96.0375686532966
96.0478777046665
96.0446953558342
96.1067101709299
96.1321748303884
96.1192580144304
96.0776451487195
96.0584296066846
96.1341143521707
96.2114325299523
96.2324000174017
96.2415439018339
96.1887742619975
96.2275332588604
96.2863799041559
96.275609566174
96.3108334382705
96.2925299109492
96.2819453469878
96.3005642068741
96.3103546071745
96.3265794624227
96.3914927029829
96.416392172663
96.348960743793
96.3617281840258
96.4046597619689
96.4682510630669
96.5286111509782
96.5132557137827
96.4237247080568
96.4410990251084
96.529521643664
96.5176201074828
96.4629740399813
96.4779410387234
96.4727422004884
96.4883107819466
96.5087660306421
96.5516481194524
96.6062577135184
96.5468474779146
96.5517113874948
96.6204554929569
96.5858738191232
96.5480986893431
96.5586583795666
96.5982036817164
96.5528668433377
96.5624915706031
96.5626560461691
96.6114028145715
96.7192412026621
96.7186569204757
96.6833373587246
96.6240871112327
96.5514281210784
96.5593761451905
96.6117416585595
96.5675406497625
96.5449619916469
96.595267898681
96.6500509823604
96.5494950599328
96.3708447755077
96.3330666275441
96.4100350308815
96.3678613283798
96.265965969186
96.2629646751315
96.3335933134504
96.3646664481316
96.2394901412
96.1517726181133
96.1855594796895
96.2133409116273
96.1917627911087
96.2036541792773
96.2325002214586
96.2165051505524
96.1964942762936
96.2215814620582
96.2517789048836
96.2455331935571
96.2067786759529
96.1967922491723
96.2218220925255
96.1966647052128
96.2010717994533
96.1983835106408
96.1379558720724
96.219197698876
96.2861749705429
96.2766165676841
96.1813591305561
96.1276239639195
96.1556395194085
96.2040349867301
96.1357153762491
95.9902501582574
95.8836754222008
95.811020435575
95.7119503419729
95.6062876411997
95.5625110587428
95.5626627267182
95.5806314445189
95.5785982201273
95.6451052467366
95.6989648124046
95.6695803259078
95.6314959565882
95.507697399499
95.380347388316
95.2806467023347
95.0427937742396
94.7657033633029
94.5088624077073
94.0872379621005
93.7773155116748
93.6838347435473
93.7449089603548
93.9027845551719
94.1902230683811
94.5087924530897
94.7615280149889
95.0338569708032
95.3048414074654
95.5079915168201
95.7298746799613
95.9468772064741
96.078998464813
96.1494844326325
96.2076276500937
96.2338281744867
96.3029271190334
96.4264060362601
96.4725101653113
96.3296690694725
96.2801510305603
96.3610062759308
96.3011547118382
96.2473144198241
96.2800711369906
96.2393550649623
96.2184060959727
96.261319935482
96.2740394616101
96.270713907989
96.3034066765769
96.3163143525604
96.3339039094675
96.3737119637402
96.313379658199
96.2076929300301
96.2042320707265
96.19076386264
96.1056511661439
96.0619951488459
96.0212549582492
96.0265727393146
96.123829361413
96.1459490093941
96.1667467105113
96.2533598031037
96.2677091530804
96.214806660287
96.2370988585517
96.2496943715093
96.2170972719395
96.3145736903187
96.3722398024756
96.2501988845467
96.1923206058658
96.2896978733781
96.3478440912113
96.3111017609467
96.3325228546008
96.2604269101981
96.2925784886962
96.4499347797649
96.5355215981327
96.6402865011962
96.7868753754773
96.7948434779982
96.7829433000586
96.7882304111056
96.7702205312074
96.7713797060712
96.8521798439033
96.9589851965311
96.9937433570083
97.0460208218394
97.0158504892526
97.0391205744953
97.2074843629334
97.3562542909701
97.3787399812535
97.4439400843436
97.539408376449
97.4389965977611
97.3972949743039
97.4028764986076
97.5962573587285
97.8596662433448
97.8330768849003
98.0131240603764
98.1321086313445
97.8189896172026
97.7390211817684
97.9421118322612
97.9668835967685
98.0096022748224
98.0195452396591
97.8698865257254
98.2161624901699
98.5076318690634
98.3538064976875
98.2658380426985
98.1673924580624
98.1779518080502
98.3229844268594
98.2104445364212
98.4889145546842
98.8328970075742
98.8943531286905
99.0348619478019
98.9959955553464
98.8829832771524
98.8967280931644
98.9468498369164
99.3669232594122
99.531048582088
99.0131565599939
98.7539791526441
98.89216800334
99.0563081926328
99.596203123189
99.6862401460838
99.4643661888788
99.4872929288059
99.5521998832163
99.5689405328263
99.5233179340991
99.4403726068281
99.5835984324177
99.8372253472906
100.206064719281
100.049084450354
99.5871978166333
99.3396057523403
99.0468257120778
98.9816619974565
98.9660738622157
98.7551035227886
98.7768079547901
98.6826273709999
98.3899030977013
98.1417180351228
98.1604945951328
98.1803114713804
98.1206071493176
97.977179881972
97.7746927221401
97.7620931980811
97.7882859479971
97.6686478794601
97.5883944989149
97.5796044907719
97.542752625437
97.4519233408472
97.4928935359033
97.4587064485027
97.4279886128106
97.4910982483033
97.3731467691831
97.2920819322823
97.396889224945
97.2836016820376
97.2383839002927
97.3030142476398
97.3610660561092
97.443394658627
97.5971970856469
97.6064290823751
97.6231369131935
97.5544607808951
97.5506596656475
97.5374450706439
97.6011567573561
97.782404814113
97.7153254281275
97.6231083395541
97.6761984576474
97.5766321899611
97.5797605330486
97.7264332689028
97.7762211847977
97.7650428458136
97.6500961396091
97.8992405958441
98.2304805749356
98.2227699434832
98.3081434132235
98.3379303898098
98.2786201073328
98.3766722486547
98.7163991824281
98.8468804402074
98.9637477123264
99.2774097729851
99.1521759178651
98.9851878582054
99.2520734778498
99.4172375482336
99.5514653982761
99.52110153373
99.4747179612195
99.4486386422525
99.2853626821778
99.377984727264
99.7336187845466
99.5556850798462
99.2594282364714
99.1741836515746
99.3748779261296
99.5108636602189
99.4473889221496
99.4685050720653
99.5738368951459
99.1117987804222
98.916518896437
99.0558986625164
99.0701017051978
98.8963527230902
98.752201482449
98.9909566350991
99.2174234251239
98.947905707341
98.827951159224
98.933417343464
98.9770911872125
99.0049610895471
99.2963994387832
99.6461025246104
99.8313284773362
99.5940966299731
99.3589276033578
99.1309465662797
99.1391611837376
99.0342999621163
99.0706505209257
99.3456057338033
99.124859940715
98.7945604014917
98.7008957164632
98.4787719288926
98.3306270133114
98.5103466650175
98.5812148947677
98.5283659466761
98.4974646346137
98.3861674148157
98.2329749868532
98.2102455081297
98.2051891327566
98.2631932387472
98.2984628354302
98.2228338598076
98.2169783705326
98.1794022892945
98.0077772384453
98.017839620183
98.0726746935275
98.0820038443681
98.1118957819495
98.0772098355914
97.9962388766434
97.7974577904449
97.7978053808226
97.9370196181708
97.8915695559485
97.9108428800373
97.9608661644585
97.8820032523443
97.8441330407269
97.8684690159695
97.8652863229029
97.7538381579202
97.75417498763
97.7576521481125
97.7062987480572
97.7283664470405
97.7493720987432
97.6740801105239
97.6959613163442
97.7495682893103
97.7482690360506
97.6702937680535
97.6843108831891
97.6985225964611
97.6767467834639
97.6825994032597
97.6543091442966
97.6424341039184
97.6318821917733
97.6589328229715
97.6733464977504
97.6617507546861
97.6319356041782
97.6427044419378
97.664682664802
97.6157412726565
97.6187217959729
97.68068817561
97.671389800226
97.6567213733605
97.6959960132575
97.7062042243499
97.6786718957488
97.6382800204815
97.6558744836686
97.7542920206557
97.7433996345227
97.6701714344873
97.6620049482809
97.6623966764968
97.638781151259
97.6079372552357
97.6163521190968
97.6456170840928
97.6903270547205
97.6662047815857
97.6363538127535
97.653794466804
97.6285200243882
97.5582681170347
97.5872185996623
97.6605665016525
97.6558684116407
97.6179610594013
97.6029882938215
97.5542660017253
97.5285982581842
97.5177372588341
97.5082918715612
97.5370995905844
97.5145935940321
97.4429824182259
97.4245482920694
97.434474669537
97.4436788610668
97.4109990011817
97.3990951459546
97.4003600179219
97.2955956191318
97.0112966023349
96.159189454397
94.2535122016985
92.615040543648
93.3129201182412
94.8113173951936
95.755489793508
96.3445915536681
96.6512804515366
96.7906968272245
96.8868092785916
96.9384429293459
96.9785765016844
97.02119282333
97.0378692632768
97.0033926490827
96.9777010892947
96.9565295022416
96.9264038305757
96.9179323579011
96.9031718948381
96.831001442847
96.7408692130056
96.6929572291108
96.6937902196412
96.6682287452434
96.626921079203
96.5908235258249
96.5351741815141
96.4144566471236
96.3480731158517
96.2971259393223
96.2305966506818
96.1570518032995
96.0935117604369
96.0127460657636
95.9152839883515
95.7929489771916
95.674554229806
95.5628058792483
95.3796691710199
95.1843881627152
94.993281820881
94.832525498984
94.7000352948598
94.5295418006396
94.3135096295056
94.1617433139425
93.9885215137669
93.8166161145879
93.6017844871431
93.4767631305342
93.3991624408362
93.2382900124702
93.0608207739513
92.9870969725967
92.8841208172908
92.6900972012882
92.5086499458341
92.3444429475262
92.2137209434295
92.1026476154863
91.6854502084373
91.2633553109073
91.0374026118162
90.6023653585848
89.9514296600299
89.4919825813792
89.0298184350112
88.6050629349439
88.3876473011234
88.3371432446932
88.6863037045718
89.1309363668957
89.4444526353846
89.6851209256991
89.9173771829485
90.0844472776803
90.208961261677
90.3676083654405
90.5106602582313
90.5838316315061
90.6663215974867
90.8351834624721
90.9755971117804
91.0550134818604
91.1468811213985
91.2660455337309
91.3518756751991
91.4299809166494
91.5034677873035
91.6013643704945
91.6845453457229
91.7407706409921
91.8340840513613
91.9447965910861
92.0573677041788
92.1696329466784
92.2753007540666
92.3847172614521
92.4787365377303
92.5598566928759
92.646480217866
92.7319971295391
92.9129657722864
93.0727559604123
93.1349247895295
93.2302922894631
93.3674339501537
93.4290195359781
93.5372723442206
93.6386922557124
93.7349444787811
93.9079535869515
94.014133146549
94.0675989143126
94.1293469783845
94.1940878584971
94.2708692109716
94.3347629165384
94.423820716942
94.5305555664281
94.6256817962174
94.672561634529
94.6654877585462
94.6717589988604
94.6845017032939
94.6851262637356
94.694629413785
94.7195739491326
94.7248372131988
94.6801648765739
94.658262719082
94.6868781252732
94.6735047717796
94.5849206008394
94.4859218699468
94.4301285410761
94.364219383601
94.2991129115904
94.2400641971401
94.107262462505
94.0459044528886
93.9720414070125
93.856452820295
93.7821665092024
93.7380184500125
93.6465300352617
93.577802456122
93.4692829040306
93.3314040903925
93.2203119314876
93.1030637775867
92.9519464467911
92.7852557158465
92.6455034399672
92.5127616035355
92.3229867460678
92.1016170404712
91.8449886149917
91.6432030954182
91.4931809743992
91.3301591239397
91.0959369552454
90.8738464503187
90.6994477017371
90.4928420970385
90.1423050764477
89.6938354561297
89.1887648816211
88.3831654705855
87.3864401394975
86.2220692257103
84.9948785781303
83.9647333474724
82.9958472734431
82.1160025923447
81.3804467944411
80.4786124122318
79.2333808651161
78.2625988471251
77.9268448956963
78.1579721244121
78.0703040013011
77.5761435527202
76.8625918032425
76.1635097551976
75.5246087227871
74.7098435469603
73.9242414737363
73.2571078888327
72.5745675204232
71.8487950603904
71.0944723653085
70.3897760449299
69.6176474182652
68.8073639840678
68.0614566637572
67.2968840021901
66.4520891718086
65.6604615650644
64.703377676814
63.6315610312014
62.5674461310458
61.3798108506684
59.8890929566329
58.3161943405078
56.751161994568
55.1861462898886
53.6690300736653
52.2680144964897
51.1220173561369
50.3477178530994
49.9445917563359
49.8592517942721
49.954579786744
50.0989370525155
50.243560520949
50.5155597062011
50.7798212628556
50.9989022737697
51.1944774826547
51.4073711494726
51.6248878864385
51.8740833612914
52.1727544452126
52.478985808335
52.7891046235026
53.1334803564086
53.4376247899777
53.8517446895454
54.3528385337399
54.7685370767921
55.088794593529
55.4440729772157
55.8730724392364
56.2973785865049
56.7112660738229
57.1605322363403
57.6192829167811
58.0592073265646
58.5237736213395
59.0061477613247
59.4636812324476
59.909365105949
60.3604360801121
60.8042782543313
61.241699010469
61.6704978336611
62.0884111806417
62.5268263654204
62.9435119993582
63.3480719936358
63.7603748102215
64.1796243332098
64.6083277775216
65.0247935069247
65.4358927436799
65.8315180892267
66.2379708828172
66.651565023138
67.0345252838121
67.3846815682219
67.7264864261546
68.0936995616062
68.4683093548286
68.8062631013752
69.1432949692501
69.4806208870023
69.8090587372812
70.1475562112626
70.4792624536659
70.7864443592652
71.0970823601198
71.3981238903313
71.6862849336273
71.9597304221121
72.2259077475972
72.491476429958
72.7576258428849
73.0189581266295
73.2579904702045
73.5091378202409
73.7695460657403
74.0215992774423
74.2696130491753
74.4884032779746
74.6702519572072
74.8786873280101
75.0877497603309
75.2543627110061
75.3874985058582
75.4975665246147
75.5842094770932
75.6271949753969
75.6148180500788
75.5574345841112
75.4229685949937
75.1767128766286
74.8061880836773
74.3257481482318
73.750585320075
73.0916693145934
72.3329228641671
71.5043166604071
70.6539386411907
69.855078689251
69.1734353100051
68.6776190065731
68.4534774529453
68.5466673276417
68.9614285041415
69.6431684853448
70.4611020784584
71.1834981201783
71.7030261433374
72.0396433523103
72.1986101488528
72.1578467867519
71.9690062533809
71.6070372506281
71.1029497343428
70.5238275778626
69.8606494977856
69.1307052930836
68.3687184114952
67.6007337378831
66.8629076136149
66.1673465832143
65.4922327905439
64.8377196745276
64.1499906765638
63.4565646709023
62.7712685895935
62.0583627790926
61.3294841801513
60.6190605575337
59.9849640027459
59.4422333034132
59.0837715474966
58.993568223345
59.0425442781011
59.0049411575139
58.6888131514077
58.0302617898602
57.2136389696063
56.5826144619628
56.4256259859053
56.7173525703874
57.206937449122
57.717278954056
58.1620912856902
58.4745623663049
58.6060234519535
58.5844741159098
58.4306237549369
58.0902088966556
57.6285818986877
57.1037256651932
56.5229795396816
55.9551349971458
55.5182757398935
55.2489966972177
55.2039632230358
55.4062055130349
55.8246586978785
56.4085229062329
57.0866662001519
57.8702661208701
58.7402726475706
59.6697046475175
60.6575756375152
61.693281652137
62.7773243742706
63.8518308474168
64.8874380159297
65.9071655712378
66.8885329775569
67.791837118501
68.6463696775388
69.4865360521752
70.2866096510166
71.0099732502533
71.6622934101699
72.183276799928
72.4708745318995
72.9084595406731
73.6505838857463
74.3501988026857
74.9595047567613
75.4992846935176
76.0199176653898
76.5404750585088
77.0268949843055
77.4678483147771
77.8916928181592
78.2880783151527
78.6525827485636
79.0102375416504
79.3582720993709
79.6890318449375
80.0060816357104
80.2998567436645
80.5368865022371
80.7688998687049
81.0015152970114
81.1936722576005
81.3718910049271
81.5463618556753
81.6422463775915
81.6661137154626
81.659796988859
81.7845226036097
82.048622423387
82.3443088184678
82.6203015565025
82.8453206964567
83.0314967644925
83.1969954413725
83.3492695035914
83.4688152967961
83.4617999452266
83.3724384552863
83.4912031965188
83.8192575225635
84.1117724796284
84.3303543664381
84.5562903306478
84.7421141816112
84.8976853769536
85.0454474620092
85.1948191430679
85.3558887146702
85.4777214751127
85.5698538957796
85.6790569458998
85.7734163295307
85.8632092028246
85.9519094384126
86.0754471443741
86.1814828394046
86.2330124915337
86.3070961448153
86.4055761267272
86.5132506687487
86.5805522106466
86.626892102114
86.724069231282
86.826283949798
86.8946105941355
86.9569235620582
87.0197098227254
87.0731189634713
87.1122242497619
87.173952207985
87.2602319500474
87.337547402974
87.4222234034827
87.5065057677119
87.5424687434892
87.584056345704
87.6266985777955
87.651996904559
87.7031223134376
87.7478824821604
87.8070794688115
87.8831487511675
87.9552355160159
87.9448079070852
87.9492561244163
88.0284655822482
88.1127813050714
88.1462115882455
88.1553398736824
88.1601121974526
88.1694527565201
88.1909954472243
88.2572752487104
88.2907195297353
88.2508064330548
88.1822486900462
88.1727853462462
88.1519468015475
88.1035798877269
88.1234386873409
88.1277088325527
88.0647527420182
88.0641280425716
88.0671573592225
88.0283987882883
88.0005110525658
87.9723652195094
87.9290742489089
87.8975222667066
87.8572519425957
87.8625603183296
87.8008668255565
87.7121178288442
87.6401444784009
87.4771424958001
87.160594050539
86.772594761285
86.2094342322028
85.0518461611242
82.0002866419425
75.3944629781232
66.9294379297164
63.1407124801422
67.1450451304599
74.0288570134277
79.1419999119839
82.1120817748969
83.6943751800179
84.3209069538898
84.5485907985485
85.011778136351
85.4614876538565
85.6733984574107
85.7920270075277
85.8460737974395
85.8463418908032
85.8492887889199
85.7838785984071
85.714822300821
85.7068501839747
85.6303715404562
85.5100786686933
85.4479260442272
85.3330580605718
85.167066029536
85.0073960653152
84.8472114297197
84.6573880635888
84.4463379249212
84.1774873927033
83.9417431937789
83.6988641965074
83.4054006913668
83.0767875616574
82.7745836533465
82.4459500122601
82.1060182450129
81.8568381597621
81.6543272931551
81.4135547068752
81.2851890714887
81.2652165177956
81.301074520028
81.3453208807513
81.4262948714249
81.6021501545211
81.7751464654831
81.8712899727129
81.990354709
82.1770748263379
82.3321904368298
82.4009794950498
82.4864506101589
82.5983449282125
82.6956029867637
82.7817035877378
82.8573378708004
82.92689037578
82.9830445887061
82.9083227141634
82.7574177254332
82.7993396696656
82.8873392873875
82.9556239928058
82.9971408657195
82.9970391333704
82.9891074284597
82.9690323945872
82.953154584796
82.8709261394536
82.8384368418171
82.8271440869093
82.7816033756242
82.7469457623518
82.7490428172328
82.7686953940483
82.7856236720644
82.6917900921275
82.631934397002
82.5582112563116
82.3964853541647
82.2212456600238
82.0572427875181
81.8249841828842
81.5627703864832
81.121099506373
80.70722014028
80.1933897724955
79.0811199863327
77.0624777940481
74.3875676950822
72.224446582247
72.1899999314668
74.1530902294179
76.2502403468932
77.3970013056169
