1798
3999.43349933624
650.420452594757
1
128
4
94.8528755361657
94.8704806000005
94.9155932731483
95.046234111808
95.0307162263385
94.9690408390573
94.9789427302014
95.01678467508
94.9218954029453
94.9409045063027
95.0269838559636
95.0228982998309
94.9975662851047
95.0677967807335
95.1226454694614
95.0732853661443
94.8914044801917
94.8640642678401
94.8967031137208
94.9385063007253
94.9764196540955
95.0023491992107
95.015608107845
95.0576364224445
95.0521591681081
95.0560123425746
94.9181213798292
94.9053242913967
95.108383825403
95.1615694291116
95.0913285582838
95.0485628349873
95.0921127077691
95.1454173519415
95.0316199381355
95.12841256595
95.1702389778719
95.0302205281434
94.9167221259917
95.0864689903819
95.1892636446145
95.1605951177266
95.1663204370954
95.1980176635522
95.1077607338187
95.131469153943
95.1542330456547
95.1367117746599
95.1136146623481
95.0626774509028
95.003104923676
95.0087133502205
95.0370119903426
95.1251863082696
95.1139937011199
95.1243963287412
95.2198027692619
95.19748211039
95.0756954051617
95.1427415578768
95.2169948463184
95.1729515005167
95.1550860678793
95.1494468048457
95.1807220370285
95.2148375022492
95.0735249964142
94.958960469962
95.0256529130996
95.2387437406869
95.258013025611
95.1522340443843
95.0994415914268
95.2029621516566
95.2880177376858
95.3176536518345
95.2736931286835
95.199574945598
95.0744663757581
95.0796835380004
95.1666684280905
95.2419783641473
95.2840250467594
95.3035914440912
95.2375079450441
95.1468608265702
95.1523376854304
95.206392717824
95.1374890642808
95.1315934241742
95.1178051241179
95.2338311446037
95.3268521493188
95.3103535468344
95.2570045875573
95.2838144422623
95.2233878011971
95.1336004175365
95.1595239290018
95.2743596977583
95.3128826033092
95.3050948767925
95.3006167062552
95.3221480688057
95.2433403486356
95.2352896199049
95.2308706537315
95.2445730364784
95.3143589236171
95.3155133758811
95.2862816559974
95.2485176866395
95.2416908012151
95.2859261445141
95.3480458553137
95.4162922233067
95.3138234921417
95.2275305850883
95.2710956804316
95.4262292556599
95.4991885353875
95.3864671334887
95.2150402270849
95.2323972593744
95.3115981769717
95.4172118770925
95.4563584619302
95.4357637939436
95.3913746708056
95.4896528141061
95.5752739402884
95.477092532719
95.3733151917724
95.3953191095987
95.3337691521548
95.2773269078086
95.2677943681024
95.3626180244244
95.4027435270823
95.4873639505843
95.4153863699788
95.3983202358591
95.3845182620099
95.3849098989311
95.3310431305865
95.3572560959839
95.400162869795
95.3475901419816
95.3866699715742
95.4488960401466
95.5274443764408
95.6553266335172
95.5707047761704
95.5134649996345
95.5104925101273
95.3954262255441
95.4384376524365
95.5020917687102
95.4103653524266
95.453241562274
95.5558359316947
95.5967248022667
95.5388100214872
95.5270076409871
95.4932419602015
95.4540711137116
95.4942352857054
95.5324698585079
95.3801401849203
95.4176127001196
95.5271828346046
95.5374008912991
95.4614421261006
95.3141936125664
95.0847488180559
95.0798342161783
95.2369112944479
95.2444030770743
95.1761596829993
95.1983755967409
95.2599132319038
95.3229782893857
95.292084305723
95.1707669363181
94.9369940129646
94.9015932805209
94.9717556230636
95.08283811948
95.1382964463368
94.8711457700704
94.6686460385888
94.6280302946173
94.6991554687565
94.8568968520232
94.8182746757359
94.7496335533513
94.7043705854426
94.62070707183
94.4920980364312
94.3952044976567
94.3193847501536
94.3038286882072
94.1986747373784
93.9958076081486
93.8815594087594
94.0581593108333
94.1473362263746
94.0718652033606
93.9265241524051
93.8303087619489
93.7608088024418
93.7054136131176
93.6983020209279
93.6377648256728
93.4859116349386
93.5703666212009
93.5545882712268
93.3747111838638
93.1467031018158
93.0019617033144
92.9296532388012
92.9754657090091
92.9319151474009
92.8857565628763
92.7708235598578
92.7227091337463
92.7942411317029
92.8701800539431
92.7150396502422
92.6810041231754
92.7400423485166
92.5200156151588
92.3514657254475
92.3318339268851
92.226096344251
92.1154860818161
91.984057779298
92.0273033347863
92.0412358178129
92.029383618669
91.9334182786389
91.8749405734327
91.741562905969
91.6216558321033
91.5137679500269
91.5150672173561
91.5374509546096
91.4910847671374
91.3169995044738
91.2445456258052
91.0928319483066
91.0273738001656
91.0512096443393
90.9754057629576
90.9251739568239
90.946596062833
90.8595907485104
90.7439242122906
90.6378923241967
90.5270469064502
90.4122352785643
90.3733504650545
90.4001821163136
90.4597299135454
90.3236352162946
90.2171190619376
90.0911367896614
90.0527046442049
89.9578852793366
89.8122763763621
89.713374610598
89.7244470280708
89.7208710477721
89.7108295905805
89.6537096931377
89.6178513831661
89.5029080521194
89.3771065922734
89.2340222967826
89.1712938595018
89.2716075252916
89.2677423393106
89.0626625951048
89.0353654976401
89.0475139053781
88.9777355684241
88.8099052986738
88.7165153559422
88.5969561823779
88.5526553785663
88.5783458019279
88.5274861105335
88.4712088396493
88.5039902948334
88.3804968557969
88.2906474479037
88.1816718418134
88.2362315323798
88.2716194195606
88.1456307864366
88.0351216058158
87.9826089632248
87.882842687219
87.8877258876581
87.8166456401607
87.8046028364755
87.7536909587596
87.7222827525792
87.7132129901627
87.6225364456724
87.4985017743438
87.5129175085468
87.5004119423988
87.4785377180908
87.3462165845786
87.2962246967368
87.2549696808227
87.2809383892393
87.2121710686616
87.1640105661857
87.122280627387
87.0491145359873
86.9873315591836
86.9617310500429
86.9207861598534
86.9295904993225
86.8298133425792
86.7527398554555
86.7309618526559
86.7385893434174
86.6311606726055
86.5491337804322
86.5385814012599
86.5547311478374
86.4257880862075
86.3536576085796
86.3937018334907
86.41590327131
86.3245529799716
86.3091931525179
86.3241095516807
86.3198163913618
86.2300932884477
86.2165463272987
86.2036613965483
86.1883391835659
86.1474329298341
86.103591107617
86.0701609070345
86.0784812067548
86.0318847043304
86.0728452824384
86.0419976516649
85.9679981779861
85.9556504429357
85.9740662729094
85.892636643182
85.8922819702637
85.8755679085479
85.8218586941094
85.8250043641182
85.8441847607956
85.7968801202776
85.8232555254061
85.7952881955059
85.7485282419261
85.6856399502568
85.6710723072866
85.6785902294046
85.7692428804809
85.6977994503126
85.6798593832692
85.6761916726584
85.687607127727
85.6088715580194
85.5327368735894
85.5554737927189
85.5751786098875
85.5134458843549
85.5980028833805
85.6396124815253
85.6021023367447
85.4871971271485
85.4492721796434
85.4794248799378
85.5117129417229
85.4088122945129
85.4362958160662
85.4715945824117
85.5130698286562
85.5123752949932
85.492869851284
85.3896947322409
85.3911674364752
85.3839861853233
85.3645411769426
85.3885929343386
85.4641310102834
85.4413132354558
85.4058489182012
85.4126098807097
85.5107643983457
85.5032853080755
85.5220336234477
85.5393683372969
85.4782201014385
85.3530791223482
85.3706023799135
85.3779048041177
85.4160191865965
85.5052132668554
85.5888511738219
85.5346339656656
85.5321343745541
85.4449149421918
85.4213651451667
85.4684970147754
85.4892072403512
85.5335325222833
85.6188283664444
85.5831655597856
85.6321087930529
85.5820580729895
85.5958871645705
85.5940870515082
85.5893981805371
85.6572710578778
85.6970679565856
85.6829361199917
85.6813908647376
85.6441172826952
85.7106299957719
85.7690488748125
85.7695434742416
85.7685213194737
85.8649656965434
85.7848479063871
85.7782678300182
85.8569846776063
85.9105334347337
85.9272918968798
86.0182181379772
86.034123804311
86.0530053287009
86.0910772204267
86.0797192266408
86.0815741825564
86.1329466498968
86.1716714570594
86.1490382095903
86.1195146403943
86.2134323032234
86.329246750711
86.4277591485841
86.5007519852111
86.5208830981708
86.4723304728528
86.5262405622341
86.5614109369017
86.5387805362263
86.5289624571218
86.6040394066692
86.6563315555304
86.7566662534344
86.7655681340856
86.7683940682797
86.7678933846052
86.8193508350338
86.8486844832827
86.8639162679277
86.9156160860477
87.0811244829905
87.1791779842333
87.2295583273597
87.2480441207193
87.2159659973829
87.145143619744
87.1412960365905
87.2210324815971
87.2582873632556
87.210750211303
87.2031208411605
87.3246407485617
87.40311106143
87.3370958489559
87.3659317152679
87.4008239369112
87.4235255994244
87.4331436239949
87.5159109215794
87.5167265070599
87.5484264264354
87.6370092386196
87.7194818697224
87.6747506912791
87.5958094768281
87.6121130347684
87.7193702378216
87.7609695160735
87.7447996403821
87.6974280248976
87.7674603919481
87.8531158427883
87.8186504102946
87.7875934541324
87.8719699772769
87.9376832533833
87.9905080942307
88.0755022815065
88.0768407542649
88.0044914561228
88.0962754357451
88.194465761543
88.2695141094395
88.2499550782459
88.2609325278009
88.2548813557212
88.3521929687831
88.4636561260156
88.5026408833129
88.405882019894
88.4218857941064
88.4936490676671
88.5305929862117
88.5315937885738
88.5791263593355
88.6214400104373
88.6500925217428
88.6534016435656
88.7632924559844
88.8135425768108
88.7979576641704
88.8284443456611
88.7889233175605
88.7104532225159
88.7004929541463
88.6709653132306
88.7213708307154
88.8093107196631
88.8317743510758
88.8304505587173
88.8307392129512
88.7634322455268
88.7038770002756
88.6783342507474
88.7178634641763
88.6890755513733
88.6026835549321
88.5599533618984
88.5573992228627
88.5122585660574
88.4717678507405
88.3849798933357
88.2860884093332
88.2050766163482
88.1910502175663
88.1613670644245
88.1242758918576
88.074234833844
88.0629044982874
87.9915700494823
88.0117893208032
88.0284974042619
87.9984554175705
87.9875963913102
87.9477077153173
87.893698391389
87.8636397009719
87.8127348897425
87.7203265896795
87.6484138609939
87.5955827892074
87.4598160393514
87.4222282959476
87.4909492002188
87.517393765189
87.4483694842357
87.4294528713394
87.4542613811961
87.5045634109347
87.5346898542272
87.5723951359099
87.7038836123563
87.8542092368696
87.8644325539525
87.8858820633734
87.9297022276583
87.9938401201152
88.0666694297451
88.1678485993056
88.175305099741
88.1992525931196
88.2494208964943
88.3185336806979
88.3922237819282
88.4264941774786
88.4171470752005
88.4794012315593
88.528934160307
88.5597306469806
88.5953729097145
88.6416764779142
88.6476203038302
88.6178603408686
88.6254824126966
88.6756397717187
88.6174044752096
88.617705135034
88.6995002556873
88.7363416217196
88.7165587941942
88.7450245081523
88.7839724719412
88.8535075468704
88.8695520939325
88.8438028986678
88.8682002547986
88.9266631169536
89.0036285404774
89.0895109918454
89.1504428463268
89.253832067599
89.3378831822171
89.4454013598538
89.4880564584624
89.5347221839743
89.6329870470521
89.6602319119775
89.660822851782
89.7209910790631
89.7899792957354
89.8167183509813
89.8766491421923
89.93843337016
89.9257943951181
89.9161421075395
89.9266645154353
90.0018914074351
90.0485240947057
90.0717679254595
90.0599259726477
90.0843615458474
90.1104283145731
90.1451134298346
90.2035582307947
90.2684914765301
90.2682735132872
90.2504032983582
90.268538345054
90.3692362410356
90.4374529178605
90.4460434761387
90.4375345117238
90.4413180064104
90.4609997064872
90.4997751635356
90.5303458047436
90.5647535739771
90.5925860821655
90.5863432322263
90.6326176137398
90.6785766079092
90.6369239969534
90.6492516556822
90.6734578436909
90.7227506847427
90.7519178590918
90.7360698291962
90.7041386514169
90.7615446613086
90.8111694299956
90.8062204786727
90.7556963850546
90.7846158555717
90.8862530108229
90.9183124477022
90.8839556314441
90.9140284585056
90.964117424002
90.9784703568226
91.0048058107714
90.9949728216153
90.9975494422993
91.0466721899184
91.0629407641962
91.0774701222483
91.0637847024975
91.0683061930696
91.1157029937733
91.1344086877174
91.1442721354622
91.1722950361395
91.1875711924199
91.2133843649635
91.2181181394886
91.2641894182871
91.2286668480198
91.2052595230259
91.2218561743613
91.2672921436351
91.3278166419653
91.3517766279525
91.2983518419967
91.3067135259567
91.3393522964152
91.3563423234745
91.3570855651651
91.3690726639032
91.3882199077329
91.4170101456732
91.4475725184313
91.4658370894503
91.489502815961
91.4880593476526
91.4886692394163
91.5246175346491
91.5248024499114
91.5285175999223
91.5539749095153
91.5846058254826
91.5641562225049
91.613698495173
91.6387008894212
91.6320835364642
91.6570660493165
91.6709129769414
91.6958030473668
91.7090527505716
91.7418983846418
91.755982771095
91.7670508665504
91.8027298432582
91.8596372479548
91.9054105996196
91.840919988207
91.8229900600453
91.8866235950934
91.9526609047777
92.0041600133729
92.0500759792088
92.0335198323968
92.001514125747
92.0082724493261
92.0946860772949
92.1311678903247
92.1308789220369
92.1387796849143
92.2240378668703
92.3141914897285
92.2892973624478
92.2381188826991
92.2754046328803
92.2715461165672
92.3363607288866
92.4157545490287
92.4422631421371
92.4812893961049
92.5055916910663
92.4833695473637
92.473122190267
92.5104381553013
92.5664809029537
92.5936571635365
92.5715087165736
92.5534503366017
92.5230225895734
92.4952531749839
92.5417015675701
92.5862987003197
92.6637121011558
92.8104803481194
92.799862495021
92.789118187092
92.809890457111
92.727603323085
92.6928144125392
92.7084934876692
92.7298237916644
92.7811659686948
92.8882172403242
92.9424766474051
92.9093579406781
92.8282727545701
92.8250278701856
92.9300789333814
93.0175830672777
92.9079817976892
92.8264180357042
92.8874686838985
92.9556053301908
92.9426681749395
92.8486740260202
92.8645497792303
93.0162003383901
92.968000945537
92.9013366166885
92.9427253959663
93.0267956337878
93.0823635351577
93.0799896580784
93.1000636450312
93.0875585184549
93.0252982748078
93.0372368657009
93.0246040211982
93.0231468318254
93.0069264052535
93.0420777949859
93.0474819493478
93.1093857717219
93.1162750427422
93.1017078485857
93.2081489317779
93.1935754967322
93.1125607348514
93.1088791016712
93.1969075225719
93.2662498065621
93.256769405026
93.2246107078876
93.2419669874086
93.1865652980066
93.1868605786574
93.2036858471909
93.212282846831
93.2925054899648
93.2337381366592
93.1374047220454
93.2689203169155
93.3840742595209
93.2863222957715
93.2148404782567
93.2614274708021
93.302220472018
93.2473145787387
93.2346447450936
93.3151633124985
93.3370196757864
93.3459040492028
93.4056037396611
93.3566376874728
93.3665108233571
93.4186796666168
93.3558738302569
93.2396656400961
93.290321372547
93.3849952607066
93.4558856468028
93.4637443673617
93.4311658916729
93.3973375951566
93.4221297233705
93.3993461972499
93.3264832616879
93.3745066290164
93.4858707967728
93.4654886414235
93.4361284098313
93.4517509746915
93.4424099803578
93.3694024156847
93.3495664095636
93.3720827759177
93.3921413470929
93.4197303592264
93.4412685963745
93.4118958025455
93.427445991313
93.4164502835798
93.3737376184198
93.3860792554627
93.4349074129314
93.4185729055867
93.396115369642
93.4210696991749
93.426824549022
93.4758364978697
93.5255333969676
93.3986119218859
93.3801812581113
93.3810724025572
93.3847267159479
93.4268656473521
93.4759089213865
93.5130199335654
93.5763206300019
93.5299448452077
93.367121321911
93.2406967278408
93.302795880713
93.4499715486677
93.4490463910374
93.3894984679656
93.3907512200764
93.4083635027551
93.4258352999075
93.4695373390538
93.4700495238039
93.3592966832668
93.2399150621327
93.2117045597643
93.3080244464525
93.4177081752174
93.4284726697777
93.3779509006442
93.4777827122845
93.5987219655238
93.617217977537
93.5806682379061
93.5220298394718
93.5859311182007
93.6622212881616
93.6701954927166
93.6076910726914
93.5277571436095
93.5718757369338
93.6474830083024
93.7109956217663
93.8074087795684
93.8048777237973
93.6530867851667
93.7158286347272
93.9044542685335
93.9944574929821
94.1378475439628
94.1621684422989
94.0791712315236
94.1289406646436
94.3105385752258
94.31443836776
94.2764184317625
94.2677578814476
94.4563026888298
94.6455662741976
94.5725936425607
94.5650882863869
94.7125195744328
94.7413966782886
94.7237712541207
94.6524959949329
94.7287988049988
95.0170460669436
95.0982344736085
95.0097394553479
94.9539924941385
95.0592276348232
95.0520905221262
94.9110045415301
94.9683284914607
95.0066802176464
94.9732609475058
95.2976728013552
95.6731254538823
95.5454960714092
95.406256703741
95.3581316943369
95.3296444444365
95.2924135829523
95.4007121540549
95.5512175278103
95.6979269714164
95.7140574621072
95.7772637968595
95.8622289056259
95.8458398898564
96.0346539630743
96.1842210626925
96.1049335065452
96.1096885746701
95.925791951863
95.9272210019362
96.3249594526223
96.5493252579849
96.4965091162985
96.6455093716555
96.7654311503056
96.6205552627657
96.6399164319702
96.9669480720544
97.0195329668452
96.9121801678493
96.9284904610017
97.1343348297435
96.8135030240371
96.5895635697188
97.1992147790729
97.8742985794089
98.1066379424259
98.0558359718777
97.5026015129511
97.1946228747653
96.8867988772758
96.5978575218662
96.6803424168966
96.6199039904529
96.4459425997581
96.3303084819607
96.3277891464713
96.2925861155006
96.2225888307272
96.1205235250868
95.841462317773
95.5887547233734
95.4966931160398
95.4200448458456
95.2616970825471
95.2356235790091
95.2178515049554
95.2217078834385
95.1693886342554
95.1277328085696
95.1093243880615
95.1681390709507
95.1998550031887
95.0209851646857
94.948498538815
95.1723622769838
95.309322046471
95.2589743384148
95.2506191419841
95.3175477502352
95.437917854968
95.4713324378574
95.2750526382109
95.239339446401
95.2937258124723
95.2947354535831
95.3773141246114
95.3936355808374
95.2797183294141
95.2669712292642
95.397630649821
95.5564017847408
95.4566756290949
95.5683866028143
95.7849028846477
95.844557235875
95.7007023433013
95.7783194561843
95.8973896944752
96.0706589591505
96.139276977253
96.1755385820318
96.0165408490722
96.1807793937757
96.5905596315804
96.8451725076262
96.908496067075
97.0716847997368
97.2151148366829
97.2578366752363
97.393149334395
97.2921491082371
97.1158044400097
97.3509219212588
97.8700648331594
97.9237430739168
97.8293868942359
98.2804116311267
98.0177376778994
97.6742979179319
97.5011739994132
97.2065789982187
97.5258564825369
97.5690135875197
97.247550508951
97.5025410939763
97.7664173054449
97.7519778765079
97.4975435435831
97.2461764940919
97.1514111686371
97.0718219664056
96.8691780410213
96.9046912346771
96.9908496836011
97.162314983893
96.8762139122992
96.6197889743128
96.8592868561065
96.958215904524
97.0178016481608
97.1613430030163
97.3738613736736
97.7630380615187
97.974270294125
97.7748295145431
97.519537835871
97.7770532515611
97.7400622395506
97.276880988282
96.9706622726429
96.8209771013932
96.8167829065865
96.9312967791167
96.8459988835371
96.7235785532458
96.58697008305
96.5918298411903
96.4117685830391
96.177075518943
96.4560897659162
96.5574330417495
96.0506943786539
95.8925048361013
96.0052733679066
95.8350704053965
95.8603259974427
95.9174723780733
95.8796557418703
95.8586265641222
95.7995766003971
95.8263883949329
95.8284885614128
95.8312954205812
95.6929574411669
95.6673303448848
95.6336618612366
95.5370973664429
95.6001069337497
95.6125646645829
95.4966810717184
95.4847661059393
95.422944081849
95.4092564054891
95.4612058064139
95.5338940628852
95.4847070485716
95.4676464838553
95.485345422363
95.4988517765476
95.4505038907546
95.4159984540136
95.387548108057
95.4521320786976
95.4100614878736
95.3603059355593
95.364736390491
95.3669759863663
95.3397440241676
95.3213340419723
95.3967295991216
95.3558156341805
95.1886693009136
95.220540592317
95.2972047304364
95.3460960658401
95.3549625384166
95.3199182638695
95.2917427655643
95.302249234841
95.3372673910528
95.3820764095352
95.4041882582438
95.3612083204305
95.3384413638679
95.3879720430218
95.2975783040588
95.3106543589918
95.452838190976
95.4645608423709
95.3410673772604
95.314999123603
95.3514839194997
95.3676273374036
95.3849628268195
95.3676292480794
95.3425918244873
95.320037634665
95.3014108753623
95.325469815016
95.4076295460583
95.4155315487334
95.3756161434567
95.3629119114458
95.3466569434396
95.3576460303553
95.3450508693882
95.3087924844968
95.2748102392017
95.3090441696716
95.3474640280902
95.3222971820287
95.2736161088941
95.224064783014
95.2263337142389
95.2288597943512
95.1713996594916
95.0966802676653
95.083815945775
95.1209277607296
95.1080569760652
95.0300358565105
94.9514357456757
94.8677913838605
94.7743081940674
94.7961470098773
94.8053388076435
94.7583732750659
94.648922907532
94.5293311341642
94.5004144924877
94.4668739774965
94.3613511600231
94.3202542858369
94.2620707238324
94.155628675388
94.0616559889394
93.9939253042449
93.9217845489133
93.8387710938095
93.7165670327797
93.6399005448936
93.5848945525971
93.4757165984481
93.2893091189148
93.2433398932795
93.254320025394
93.1416640757004
92.9494289466214
92.7831057496588
92.5998354894621
92.4403736557617
92.2035829971683
91.9453384930533
91.8820535898725
91.798457782997
91.5759371792506
91.2993742674043
91.0008949103579
90.762746816434
90.5706376375019
90.3620342264678
90.0080590384385
89.7181882247822
89.5131231451215
89.236829654319
88.9078592403935
88.5889782252551
88.2236478522304
87.8575256068686
87.4843513125296
87.157535259213
86.9598915133893
86.6791435732937
86.2640065056696
85.8102254739348
85.4414881698352
85.16453031774
84.7839839481536
84.4175801099093
84.1546927799698
83.8266189271322
83.4275179355421
83.1317457567805
82.8786008427412
82.5336743480427
82.0818883505216
81.5397290348916
81.3602756825457
81.5224321761547
81.1612121618158
80.7386585404565
80.6685947083717
80.5988260034239
80.3423430984424
79.9870923692036
79.5872783510657
79.3585057323319
79.4744336725722
79.4365019865472
79.1691595451059
78.8729080167462
78.6725605429889
78.5210397581877
78.471878894658
78.4279689380957
78.1239408246588
77.7990894414131
77.8066379775155
77.7647505189562
77.505120357758
77.2561475455576
77.1097097583897
76.9685855659654
76.7414509661759
76.550258128418
76.3692189809746
76.2035679026427
76.02423671831
75.8776288931402
75.719737083505
75.6047872829829
75.5005306600851
75.3725957177484
75.2364941359601
75.1493155652409
75.0254433035263
74.8921792671249
74.6058172753178
74.430656657494
74.6986897309518
74.6595734092498
74.2939776115509
74.3132290548455
74.452445173805
74.3890035105675
74.2475020818909
73.7941405547909
73.1675666368207
74.1455395588745
74.7655336485376
74.7485259209365
74.7043870903741
74.7470721562833
74.9859946038926
75.0250774682997
74.9919102446664
75.0673428388115
75.1424940134005
76.1541703458167
77.0516404740294
76.9435940734415
76.8927289913492
77.4665750349349
77.7576844166046
77.8185204553016
78.011880653569
78.2823991488339
78.3093555699253
78.863464293898
79.343955214181
79.5481070755778
79.9097094823859
80.0570598303996
80.0936425656922
79.9559550334545
79.7628904758688
80.9129373000225
81.8141813409988
81.8455126557284
81.6721248282396
81.6779679333979
82.1149560966844
82.699485344179
82.7921799996766
82.6676193897225
82.9782883549525
83.4887394258947
83.7914161396378
83.8773656417184
83.9055782995838
83.9951289106421
83.9676463860646
83.8895004509527
83.7898941350923
83.8415610945318
83.9759991800068
83.7302966418874
83.2848756060207
83.0107122375795
82.9710411725973
82.7129352481892
82.1938854757297
81.8681319171174
82.2652768206123
82.2585407130186
81.9720248195504
81.6693685850435
81.5147111249821
81.5760142524137
81.5793546958762
81.4775038679565
81.363686642769
81.1211076035571
80.9796806164038
81.2088385435838
81.1612903499775
80.883223456851
80.6766357246074
80.5206945435377
80.2426027424662
79.9442233010798
79.6091052720222
79.1505016652458
78.9230122306576
78.7975910531468
78.4898129664602
78.085132763406
77.7031158079108
77.3783323994597
77.0193943018273
76.7249149730768
76.5768500832705
76.3233525387329
76.0728472961748
76.0045297150117
75.916669676402
75.9800008472385
76.022393495153
75.8598721193478
75.6958109418943
75.8150701207978
75.9687647417789
75.9532872116476
75.926607998314
75.9667804623738
76.0312859938324
76.0660111801703
76.3055727886823
76.5642540706069
76.6726963949542
76.8140646610571
76.9332551898972
76.9627956252683
77.18284370146
77.5742315530206
77.7910487170398
77.895181381565
78.0193013367322
78.2090185166778
78.4073369617579
78.5837757140629
78.7386837341754
78.8933830567715
79.028482102186
79.093843176803
79.210416153636
79.4813071161396
79.6982810458315
79.8308452209995
79.9067268200773
79.9697194498806
80.0638279746742
80.1290704569933
80.1730250054076
80.216111466761
80.2404124077195
80.2547856823862
80.2956678312795
80.3473628074969
80.3468906532494
80.3877301220725
80.4374342252206
80.4714206249982
80.5172488722979
80.5868210713636
80.6679787865569
80.7448166379313
80.810851419104
80.8821926192288
80.9779646098808
81.0789077041418
81.160997062646
81.2425447031705
81.3269793296777
81.4157187686717
81.4713645000003
81.5174247744266
81.5562263801522
81.5594330913275
81.5453218626854
81.5397969386124
81.5350218339746
81.5532946449961
81.5408189531548
81.5146498052538
81.4852854962513
81.4526374262673
81.4097799883752
81.3784048961954
81.3614931252458
81.3436845400994
81.3210020577299
81.3055669370803
81.2772453234352
81.2412644568217
81.2183281623888
81.1694988253117
81.1388284827615
81.1130343286489
81.1054718392449
81.1021537780594
81.0752403673457
81.0730184030807
81.1027362652159
81.1324479105705
81.1612124127958
81.1930478315151
81.2466619533738
81.3231072943421
81.3981465382702
81.47172887323
81.5510213770867
81.6618042107238
81.7666747288507
81.8691529309023
81.9766443185394
82.0846822363404
82.1928306793999
82.3132715504228
82.4381624536928
82.5738733572433
82.6983421824346
82.8300287264899
82.988256342741
83.1262774067145
83.2269329721829
83.3021825416984
83.3534326011005
83.400448554778
83.4387919967056
83.4124222771937
83.3909872363572
83.3914144894202
83.3694982919884
83.3026885113167
83.2150251319719
83.1521278523417
83.0723005649979
82.999216820143
82.9324169697662
82.8084229378828
82.7045579372248
82.6090695896692
82.4616337833068
82.3378505278444
82.2318802920721
82.1110604012927
81.9726129955544
81.8361743431091
81.6937402667874
81.5647730589864
81.4219528295022
81.2497872012819
81.0689478696024
80.8589301198372
80.6292244200011
80.4158031634241
80.1680769659439
79.9122088331983
79.7322153440998
79.5687398832503
79.4023507897608
79.2629734797136
79.128243544921
78.9932505718926
78.862267089514
78.7688828144593
78.6664363162735
78.5356670304162
78.3993524139463
78.2136680979608
78.0158851553829
77.8154154695672
77.5927446543645
77.3529182022575
77.1002096646576
76.8315299725481
76.5548048361489
76.2937003399606
76.0514238308909
75.7850144206378
75.5213811889975
75.2817886376656
75.017321611569
74.7525998583576
74.5321365411881
74.3266127534033
74.0882803721881
73.8427490778598
73.6021676851051
73.3905262968818
73.1620183885392
72.952791582786
72.7741446573048
72.5643496237514
72.3575432481568
72.1695582332184
71.9726438947808
71.8109911470008
71.6920111306154
71.5603327394775
71.3986509631403
71.2661483293977
71.1452960817598
71.0426612020714
70.9500310487461
70.8518894765831
70.7732000313576
70.6961031636654
70.6328601861414
70.636264769979
70.6706471116785
70.6980795602181
70.712094456294
70.7375647171499
70.8359787177896
71.0181337139503
71.1685286873936
71.3325676982379
71.5114648928428
71.7265361621823
71.9778285045582
72.2370535006599
72.5258023485324
72.8303233207628
73.0721053092214
73.3106999477902
73.5779600704808
73.8370659396683
74.0754628001603
74.3258960588268
74.5734591664304
74.7929791278647
74.9995342444575
75.167097430376
75.2986908801892
75.4602393720141
75.6097996573089
75.7195700960909
75.8386312896556
75.9806029136108
76.1457823912566
76.3527703738986
76.5525446123458
76.7623431335574
76.9814988381416
77.1691259582795
77.3986262796212
77.6053188858341
77.8078540393074
78.0236675989657
78.2349960720668
78.431403186004
78.6008158532427
78.7734424233838
78.9976878676376
79.2207323117988
79.3905448567332
79.5337268478473
79.7121795353397
79.9147585838638
80.0705242382985
80.2134934874529
80.3821512790447
80.4895353323435
80.5528030622143
80.6691157852983
80.760488212287
80.8275280927292
80.8928368660232
80.9550971216464
81.0336580305791
81.1171986640301
81.1361894168592
81.2255720070456
81.3439213190592
81.4349353944712
81.5448231410575
81.6516057486705
81.7214863312701
81.7581821179037
81.7819223935929
81.8298962924464
81.8812109970248
81.9253884313308
81.9265025210959
81.9352840582355
81.9519190108392
81.9761369099474
82.0227326714068
82.053886642976
82.0698383428808
82.083890310599
82.09404701252
82.1256782823052
82.1424647762414
82.1735107452951
82.1686874570931
82.1309264697435
82.1211649532572
82.1329997251553
82.15884232339
82.1496623739993
82.1109529718875
82.0898330400384
82.0669031414971
82.0349969907405
81.9560189386983
81.8841531558506
81.8271730149737
81.7377964523141
81.6545778737116
81.5694494618938
81.4309645217276
81.3069976719966
81.2425026807264
81.2425831862299
81.1987962949101
81.160106880487
81.097479888973
80.9750391106875
80.8897821873295
80.878800312045
80.820349822782
80.7351521416952
80.6257494566161
80.5283689893113
80.4406005323905
80.3277316440932
80.2323151935069
80.1482031522652
80.0181625317436
79.9004020014008
79.8621376114912
79.871924781866
79.794082519601
79.7495815661876
79.7417386012248
79.7038081909565
79.5981943379109
79.4675981860234
79.3950901626232
79.3258652843151
79.2547112228862
79.1954797697805
79.1445052487677
79.1177529670288
79.1247688289073
79.1062477194796
79.0292759623944
78.9445141233333
78.8942573922145
78.8773586506478
78.8611286771898
78.8123941121016
78.7575067530458
78.7064730452952
78.6177816865157
78.5478646068402
78.4782157103924
78.4322273561361
78.3745422327692
78.2968980837579
78.2582341139183
78.2247449469658
78.1600683692286
78.1002121769583
78.0394404436604
77.9938580517016
77.9627376256131
77.8672704701857
77.7577741925938
77.6630661918022
77.5519824114259
77.4379384400847
77.3394604415387
77.2573189807823
77.1567064741583
77.0913710358862
76.9615230620684
76.8765410669212
76.8038068105364
76.6984657735219
76.5760520889349
76.4404182810596
76.2805535600184
76.1112697972801
75.9347259693645
75.8428848595007
75.7825367798581
75.6907859440425
75.6309034026852
75.5494964004168
75.4682724563936
75.4845306651457
75.4327267749557
75.3103329838245
75.1880714948915
75.0928476328026
74.9676111359339
74.913973820442
74.8240804673817
74.7441148675139
74.6347621564794
74.5024947336926
74.3464390312126
74.4899395964986
74.4701203202382
74.2619378292182
74.1579011347649
74.0868263664689
73.9956268144682
73.9019772978191
73.7741685587752
73.684065362818
73.5831746009519
