1798
3999.43349933624
650.420452594757
1
128
4
95.3049423304276
95.4023946596927
95.3921162458379
95.4841203122914
95.516735796409
95.6005911500326
95.5300571508263
95.4874270045702
95.3770265163413
95.261836074184
95.4767597289771
95.464265299501
95.2865996898656
95.4111280711815
95.4115902712013
95.5471907525076
95.5988044244959
95.383314434357
95.3543857158895
95.4881710818018
95.5408103449807
95.3188292772075
95.3870945492804
95.7896501726656
95.7197968301495
95.2180654372241
95.1131341804026
95.5773935479619
95.7135670804999
95.4848256611741
95.5369382577263
95.6076497643662
95.635564302168
95.5074563675308
95.3810146600145
95.5460072336981
95.6548846715245
95.569782943764
95.3103338431176
95.2884109559243
95.3370379257857
95.3983337780598
95.5579402319522
95.7339639465587
95.6534564187076
95.5032738448988
95.6282773096149
95.6849814874646
95.5827968930824
95.4822589187109
95.5606604787524
95.598241938056
95.4971084006392
95.2707399429133
95.2125823421766
95.4186445402735
95.2738073467988
95.1345649248513
95.4811000007555
95.7061263893679
95.4389640719648
95.2323481916744
95.4153266165613
95.6405392074817
95.652132924933
95.3281026941317
95.2257733784088
95.604374267386
95.7139385344972
95.5734965879694
95.4413105386469
95.3503426447676
95.4715271301802
95.4689989513249
95.3890767953851
95.3610333521507
95.4850737978401
95.8266558860856
96.0693903860551
95.7912623239232
95.4917091221255
95.6805986516614
95.7296300758655
95.5880552407119
95.4913021837551
95.437175658878
95.3887844286487
95.4465293432065
95.5924719757891
95.7252740640511
95.5773912034625
95.441867660681
95.5688412355402
95.7010144036978
95.5838497893687
95.6247872631077
95.5492395862829
95.4902777320539
95.6205612755509
95.6097012527858
95.4521892719133
95.5886495054901
95.7439124757601
95.7751555665754
95.7104204664913
95.6846239577027
95.8156283358345
95.8026928817706
95.6056849530948
95.7146252229286
95.8196033551836
95.7374313753044
95.7954173323151
95.909257568339
95.8359357917539
95.7623530893431
95.569608128014
95.5592107343764
95.7480768953144
95.8245676694921
95.8311610169442
95.7820063376834
95.6800311295574
95.6541082720275
95.5782565003216
95.7567856045201
95.7936541136573
95.7012738106315
95.8303461515283
95.8909922619383
95.7151007690147
95.5542834077823
95.5806753479878
95.6889749638201
95.6602855097978
95.4933510197008
95.4668343343529
95.5048374505976
95.4468179674113
95.5916857836616
95.6471449268771
95.6698662538139
95.6951749494541
95.7387182506012
95.664514783744
95.6828379979426
95.7456319426061
95.742568093607
95.9011653532554
95.9127685626991
95.7382708137536
95.761473032075
95.8078750958765
95.91693462498
95.9216857240419
95.7314443991033
95.6890203590225
95.7939863876496
95.8590390367129
95.9496810002721
95.9915256229828
95.9203041514833
95.8797092777687
95.9199164067346
95.9103683716536
95.8599831622054
95.8811017582609
95.9303776731488
95.7919574988151
95.7894493507893
95.8488923953274
95.8891601985602
95.7871648314283
95.8915797628466
95.8085121291741
95.6362460949159
95.7960069688775
95.871228646564
95.8648942852278
95.9234819920011
95.9392235341635
95.9680651280623
95.9331932829995
96.0196299784303
95.9950106287057
95.7699595548343
95.5322707631954
95.5307742794609
95.6559706576363
95.6885401814717
95.6813721242072
95.858723047727
95.9683694036102
95.9482751032355
95.8116276215009
95.7816151437289
95.8256164532686
95.6386528607918
95.5609646724987
95.656599230716
95.6097517220309
95.6917705316475
95.6609300209338
95.5830483599606
95.565771403402
95.5893262273591
95.5532162598733
95.4996145019089
95.5131018630784
95.5450466722036
95.4500655452471
95.3960935029949
95.3885107131522
95.426999347152
95.4817052595342
95.4939499495385
95.5687783650086
95.5227708125651
95.4250290209526
95.3730215861215
95.3100969155659
95.3270474557993
95.304711782974
95.2141885105893
95.3311210037977
95.4741686496245
95.2979685762453
95.2267940625275
95.3417120420323
95.4125417082315
95.3334754492081
95.2818986561106
95.2288461690495
95.2516630446198
95.1825820811283
95.1712739673648
95.205889864189
95.2303298248622
95.1928687488784
95.2768455312342
95.2707131550474
95.1133684093318
95.0556502178759
95.0600573251113
94.9775096044316
95.0926655547997
95.1336100330286
95.0390501042824
95.0530393452778
94.990775470027
94.921097296408
95.0406777315368
94.9547443607028
94.7971971671166
94.8152781193512
94.8797544499747
94.9313954616635
94.9590157559339
94.8349483034239
94.8358129966488
94.8688146063286
94.7904425735609
94.740563359759
94.7235885418797
94.7271087671948
94.7410646268282
94.725792840519
94.7934515488144
94.8042363392721
94.6502010630412
94.5297351431954
94.6069160543093
94.6679197842619
94.6870479990442
94.6600724475158
94.5231001119229
94.4124143282196
94.5108276108544
94.5658770349431
94.5896055466589
94.5744867238567
94.6408462166418
94.6191065880129
94.4763104674752
94.3342202204946
94.3996432864429
94.4382074571925
94.3599084374823
94.3201790392531
94.2686227286138
94.2209235657152
94.3085754714675
94.3979912882771
94.3596130993138
94.2928458363777
94.26526468329
94.3081258524844
94.3645210321628
94.2706691451729
94.1752028592288
94.1392733205649
94.1440754149218
94.1535898916265
94.1340872009854
94.177794490815
94.2458015972727
94.1585150246006
94.0670514133435
94.0848514596268
94.0904317062263
94.0194892281355
94.0879370852821
94.0941076545247
94.0291418886206
94.0208158780154
94.0813908941522
94.0440615072306
93.964791615681
93.9236743941208
93.9675942640619
94.0002658429655
93.9891105222276
94.0138011012716
93.9905531133796
93.9503868509513
93.9986944194001
93.9858692817905
93.9169850945679
93.7997970661058
93.8740592192202
94.0040968779538
93.9954287139713
93.9444383790586
94.0037905644057
93.9992666554198
93.9332115571397
93.7922997372724
93.773829379971
93.8411612870762
93.793643202662
93.7407187722835
93.83175466631
93.822722655054
93.7924468951201
93.8186808798808
93.8986943690419
93.8367741417984
93.7419118144607
93.7635106022624
93.8198858801667
93.9110955433943
93.9633007763362
93.8489047550693
93.7698017205064
93.7187277073082
93.6992946136379
93.7284636451484
93.7796252768696
93.769202119257
93.7970767959942
93.7991583249778
93.816373621542
93.7827107664717
93.7625675895656
93.8231032966901
93.9325467656736
93.8424266769386
93.7334000582689
93.798379704502
93.8181709226037
93.7466047858032
93.8174916726338
93.8537101247354
93.8631374828093
93.7824978918521
93.7111732473957
93.7627175305692
93.8094041232648
93.8458704455249
93.8928683981567
93.8423472202166
93.7685651728294
93.6681860713868
93.6939279186225
93.7411157855222
93.7912129244595
93.8479764590863
93.9565641228662
93.9413125405789
93.9334194081605
93.897293004711
93.8518507747021
93.814741577764
93.7807310077629
93.7437966199289
93.8117438544037
93.8678968065686
93.90029411648
93.8941469197909
93.8683539743197
93.8475243334616
93.8420663299612
93.7737243559486
93.7424882476458
93.7983979814389
93.8806537872929
93.849842370151
93.8677848133913
93.882358699541
93.9008442686655
93.8904958767735
93.8850696598292
93.8064882912695
93.7415339248619
93.7186371508718
93.8121273077038
93.9230094029958
93.9276923960232
93.883807422867
93.9120428079982
93.9003251527894
93.859667695484
93.839567202657
93.9162468157696
93.9457965460998
94.0008784925137
94.0253158396859
94.0051945025788
93.9992481551472
94.0078392031262
93.9298492070125
93.9259289088943
93.9832689683245
94.0005244636741
93.9930550096348
94.0135146393006
94.0330001663799
94.006645252031
93.9374367626541
93.9583116031231
94.0240481935353
94.0562185215461
94.0007072073206
93.9903246840663
93.9940459942225
94.0976783372289
94.0871547297988
94.0722642904272
94.1167037324745
94.1274652004824
94.0149024474697
93.9789840195607
94.0175240737413
94.1251098019772
94.1757142655983
94.1686559371971
94.116549122178
94.1207234190972
94.1688072294413
94.2394450879575
94.1983208497505
94.1733137070682
94.1991759294246
94.2456628428568
94.2387766769503
94.1598940091477
94.0863239878586
94.1379362598664
94.1786738281173
94.2655843388445
94.2658291489741
94.2014280504563
94.1811699147366
94.2684792378548
94.299279473078
94.2643380110642
94.2294906510006
94.3223212416439
94.3933214047698
94.4033749574944
94.3624240266909
94.3444109064318
94.363959551744
94.4030434334792
94.3891830314129
94.3646323468601
94.2946200415855
94.3323674290854
94.4367241274962
94.5022389859338
94.4710781609711
94.4818192851581
94.4739662817079
94.4702216779334
94.4689225583438
94.4809625675497
94.4626974809293
94.5126197236509
94.5661322765052
94.6224274294031
94.5690524203564
94.5037784524282
94.5376131387389
94.5700288259833
94.4765530103793
94.5028077175532
94.595243587552
94.6377069076811
94.6027347914416
94.6179210808889
94.616774681114
94.5919382987597
94.6278031240214
94.6600640937465
94.6727879556505
94.7439831483005
94.7105003168699
94.6599498809505
94.6169057322169
94.661367569442
94.6879316574016
94.6554074589213
94.6689056918026
94.7329459204664
94.7110326292658
94.6982151745655
94.6896480741949
94.7109274509198
94.7617658058766
94.8078325215361
94.7815409359638
94.7904360153647
94.7786860025716
94.7619137507303
94.7606481049317
94.7736906650642
94.7397924465403
94.737644555015
94.7513702591412
94.8068307068962
94.8307009169187
94.8262437484029
94.7875575746224
94.8012033892605
94.7360619037528
94.7069445534001
94.7506833885641
94.7912801566991
94.7799288946479
94.7824914325083
94.7348698343205
94.6949285656995
94.6745010837088
94.6716446016401
94.6436243328039
94.6384692736002
94.6258305435793
94.6473071932465
94.681786891592
94.646078447072
94.6211605284382
94.6759529405481
94.6693606197572
94.6677380712059
94.6595887232692
94.6557184562177
94.6647327919089
94.6712244085922
94.6650695882221
94.7252917345145
94.76530118271
94.8026278919751
94.7931146316909
94.7123583950636
94.6608584446144
94.7412637422943
94.7781566790226
94.754634727107
94.7397147183828
94.7674323686138
94.7627909900035
94.8255863909788
94.9108457683995
94.9187372919233
94.8655619240996
94.9080849131645
94.9723629407692
94.9828832188777
94.9550171898877
94.9819157864358
94.9322990929675
94.9020476678745
94.9593573607781
94.9967198049929
95.0182169853827
95.0763725599369
95.0383345914407
94.9870247597291
94.9834875342655
94.9848995230435
94.9822302046244
95.0617280114306
95.0413935051582
95.0135195084925
95.0669351797823
95.0862927939595
95.0282731890556
95.0038530613238
95.0101829265853
95.0222434743752
95.0289171988159
95.131997368299
95.1949194638145
95.1933522507625
95.2129270657621
95.2915002479309
95.2625091934648
95.1825761961397
95.1779873153087
95.2140931758235
95.2223477077694
95.2392473542366
95.281988369141
95.3283768510501
95.3031803869214
95.3017872191396
95.3595508910614
95.4051163872388
95.3129100677502
95.2543258353278
95.2803336253686
95.3862708573498
95.4662165017081
95.4443270730664
95.4123941835118
95.4453267321484
95.3938776734562
95.4070454781744
95.4652923217557
95.4601455711571
95.4273864284972
95.4201242271875
95.3705764702857
95.3951103764808
95.4655214299531
95.4772764385348
95.4088618350313
95.3919881945539
95.4424880821056
95.5362451004556
95.5621598428008
95.5081724797007
95.43213926584
95.4139302680944
95.3985793490978
95.4042425474237
95.4719631211212
95.5465361515012
95.5186772126265
95.5321755928884
95.5299808252009
95.4813507074344
95.4725739781871
95.5087373158421
95.5252072991836
95.5604935015959
95.5712060567232
95.539526090812
95.5089299990969
95.5247704007506
95.5316896833767
95.5732317194289
95.6157932038389
95.6216878792548
95.5626900272682
95.5111152079713
95.4625817456434
95.4693694954606
95.4878849269579
95.4997053835223
95.4757743848218
95.4949380653947
95.5708998628663
95.6464803938476
95.6424514858645
95.617562959573
95.6471483434064
95.6910060019726
95.6484595411976
95.642559716069
95.6628587098997
95.678907849476
95.6984176686413
95.7050088114404
95.6855409980463
95.7250602900846
95.7167035480557
95.6790408976266
95.7193395746628
95.822662840525
95.8431521841388
95.818175991233
95.7857611378245
95.7850902884396
95.7661091357677
95.7265728388702
95.6948350655714
95.6999676330564
95.7250013911858
95.7828482879656
95.8145665397544
95.8320521411981
95.8401683732239
95.8229021910907
95.7966908828276
95.8165977424192
95.81763892201
95.8065957963387
95.7892283306788
95.7712207354575
95.7576432272292
95.7493665039205
95.7401484788723
95.7715963712933
95.8305621598113
95.8534775218887
95.7930704526629
95.76159297705
95.8033496523847
95.8476438508687
95.8519248723688
95.878984688061
95.8373107851495
95.8509325906964
95.9018328193846
95.9139764222461
95.9168356654777
95.9441623092446
95.9319011977753
95.9309371009964
95.9478235175857
96.0223440618371
96.06455496704
96.0580791366374
95.9983626171638
95.9649182809031
95.9662307531953
96.0046796457178
96.0719916203577
96.1011208423464
96.0675443030461
96.1748148873154
96.2475256439977
96.1818653019121
96.0933089883289
96.1091594378184
96.185500669632
96.228097026868
96.2132368468517
96.2503897675198
96.2380736138028
96.2114498298562
96.2255407578913
96.2479075010715
96.2467087803047
96.2369688249612
96.1909055669513
96.1880893131933
96.2030285606591
96.2702259791692
96.3029753357371
96.3414963090628
96.3150481259807
96.2254814288664
96.235028258777
96.3569710662454
96.384646256885
96.3544799828315
96.3778460846651
96.3986454648367
96.296138486336
96.3111662351748
96.4221993840536
96.4404695930111
96.3848269069161
96.3883139797101
96.3772004715471
96.4028466152336
96.4591627562571
96.4648542197645
96.4014633964623
96.3944391052425
96.397991711283
96.4768231341545
96.5741921423662
96.6199137470054
96.5661813355226
96.4939343194119
96.445342203186
96.4692774772999
96.4535464461037
96.4463155908093
96.4929742804969
96.5719012358712
96.5598245431032
96.4822790863276
96.4327643347059
96.4582853804333
96.5108878534615
96.5808987072871
96.5321614262656
96.4817633449746
96.5029777591041
96.4972067859279
96.400342292958
96.4706219286701
96.5592469336259
96.496724280526
96.4227747301974
96.4181420706062
96.4435601928589
96.4576757943701
96.4403411238405
96.4378322485737
96.3920750435231
96.4827008876059
96.5483570771339
96.4889937931168
96.4252706839523
96.3959149962184
96.4071450846615
96.455624605826
96.4253914725688
96.3973102846673
96.4987613564196
96.6206744275555
96.6236439282882
96.6176284012027
96.5307251779912
96.4563322007337
96.4948413365124
96.6037980385334
96.5400755055557
96.363653135212
96.3498257402042
96.4229945354871
96.4003016770229
96.4259405582053
96.413020249056
96.3837967070618
96.4392346973445
96.4491065272512
96.4097662908114
96.4440723188345
96.4697390277642
96.4159722165286
96.3070987819939
96.2387789778146
96.2026778267669
96.1557175145772
96.0332584661199
95.9409707808939
95.9526338072118
96.021466791446
96.0730402869053
96.1185408575213
96.1503403104397
96.2042662818899
96.2921569849632
96.3959731116416
96.4595206192214
96.5174956605952
96.581056584935
96.7110140620226
96.7904486439409
96.7520197403342
96.7362173524228
96.7891941359232
96.8199154227176
96.8083971627021
96.7622174920593
96.8544762755167
96.9490922490007
96.8968334558128
96.7476063215433
96.6607368784906
96.6521291948324
96.6612631850319
96.7057750925093
96.7424992227029
96.6970173329708
96.6784429378407
96.6808925621525
96.7232534976835
96.775495507925
96.8272272316652
96.8411370029882
96.7933413027084
96.6582920537531
96.5372888818001
96.5464239645477
96.6595311868891
96.6629031124645
96.6415550067851
96.7172590405797
96.7674952872539
96.7335223015452
96.7168126913224
96.7040014381365
96.697243143482
96.7251009703608
96.7946278234011
96.8171985494148
96.868059881525
96.8961642399289
96.8731958520997
96.832754337918
96.8280401747126
96.8933362282549
96.9786470521091
96.9742561172328
96.9597081647718
96.9932652211844
97.0712274045454
97.1960659796146
97.3159310350267
97.3485045372136
97.3888607129582
97.359172594517
97.3474512849002
97.3320298960378
97.377104407192
97.4621790570384
97.5513712376928
97.6227237941569
97.6291982994375
97.5770010781446
97.6007897312193
97.638404521189
97.7153544123947
97.7203888968338
97.7077785209835
97.6995175906056
97.6611444507877
97.6213501491757
97.6596805129157
97.76522210592
97.9957454819065
98.0930499034133
97.9968798111437
97.9431399066805
98.1674690134595
98.3096196817816
98.2332678878915
98.169321983557
98.3331219568
98.4619857628186
98.2877273044787
98.1696484681154
98.4828564424121
98.4622215610337
98.2740119073093
98.3750643097988
98.4541299237378
98.4340657735968
98.4324780565555
98.2945229776101
98.2093214119774
98.2700225674459
98.4883444184807
98.5776168954124
98.6624893083862
98.9046086041485
98.9020278324069
98.5666488291727
98.6051154012975
98.8339324760646
98.8007632900202
98.7376836805441
98.7669332328612
98.4462018906146
98.5785330153841
98.9472241701769
99.0827958928261
99.3559835388537
99.2678952520323
98.9978315979153
99.4276068762896
99.3700393751853
99.2339165178334
99.2793140392287
99.1479887793638
99.0327218231816
98.9368938941042
98.6433528076733
98.5493522033402
98.4919897354348
98.1071524254886
97.8852131170229
98.1819974020882
98.3835745844994
98.2541612014334
98.0919008234394
98.0755949532123
98.0015150457655
97.8558251605631
97.6679527978574
97.6568390448619
97.6217750090031
97.4861557704776
97.450913973035
97.5376515942271
97.6095867285238
97.5755690504084
97.4458609399143
97.4438265843615
97.5478793158374
97.6806540905201
97.7051727127751
97.5894614129709
97.4585214299892
97.5875914937926
97.6811333662373
97.643795928469
97.5672591882548
97.5473153624089
97.5154187439097
97.532105748786
97.5324324745842
97.4866708963343
97.3782621854992
97.4568782863765
97.714025803529
97.7871137471319
97.575407477355
97.6038383309151
97.8538419474327
97.8029872068526
97.6845989665364
97.8898704835618
97.8320966724321
97.716199304654
97.9433927493527
98.1573470141671
98.0871050019365
98.1063476047055
98.2482379928173
98.3306491587672
98.3603156535312
98.5429568783739
98.5663801129658
98.5782173118489
98.8698415928771
99.3342826312011
99.4064434568442
99.1900539182787
98.9422835608133
99.0815851805656
99.3857034604363
99.5517722067924
99.1941189317426
98.7607841931896
98.7760836050799
99.0245135631495
98.9380927163287
98.9322170428884
98.9760405447251
98.9034675082997
98.7966469201126
98.6934387425998
98.5323788934368
98.6105074235229
98.6604567128554
98.5154368799343
98.5530322935478
98.7127461883175
98.5179054335056
98.377769670695
98.4218497366175
98.6700064412
98.8332865472465
98.8206064629861
98.7157502899439
98.7584610041069
98.7821909345184
98.7599890461863
98.8099715669111
98.9788762578573
98.9967453353638
98.8580322200215
98.6009019810545
98.5973640475551
98.5966142554309
98.5704107391762
98.4771138250485
98.4504145858646
98.4492532217348
98.4011895188901
98.355328357071
98.3394477959582
98.158123228523
98.1774138465758
98.2870434895669
98.1751466316831
97.9685577991863
98.0303597636151
97.9976790220199
97.9209009729514
97.9745221189874
98.0501332756581
97.9229360954907
97.7551433083275
97.6852816874323
97.7304109484595
97.6316548739971
97.5407277902358
97.5715173447745
97.6404997470451
97.6367503125727
97.5967245194834
97.5249292845617
97.5919374053616
97.7096271813126
97.6654708830941
97.5463164830712
97.5263395069214
97.5318365275626
97.5973235273283
97.5892637073998
97.5067618770827
97.4880623087652
97.5547766930988
97.5125331245393
97.5381624923829
97.541031291658
97.522430727307
97.4695971084331
97.4227361047608
97.4460560789217
97.5227174123773
97.5088563388535
97.4603497576454
97.410637078643
97.3604264280921
97.3842332128077
97.4568204514653
97.4659281116552
97.5182564792329
97.5334887659
97.5098719745464
97.4686416305864
97.5002904519807
97.4626814181693
97.4125616460525
97.3548978596775
97.3449523925212
97.2753974344866
97.2710162073222
97.348080909801
97.3513001497012
97.378674709041
97.4159572712277
97.3551037752742
97.3045088775045
97.2818505037977
97.3328832528919
97.2649790245123
97.2549387255098
97.3773536836296
97.3489855548481
97.2918516421698
97.3055801597134
97.3748451316835
97.3566056425251
97.2830249359592
97.3133604133635
97.3259757482469
97.2764514588414
97.2326732111643
97.1914557612935
97.1950280324705
97.2308901965301
97.1915999619716
97.1171460020784
97.0053571586132
97.066602393742
97.1926077284242
97.1793959239544
97.1242459041444
97.1072149893559
97.1081797081263
97.0670898044874
97.1139056509177
97.042176261726
96.9352366536174
96.8218791232607
96.9412372427057
96.9599192434366
96.7812733696703
96.3391364477997
95.7486445711792
95.7768130692944
96.2123229012129
96.4341940441086
96.6009245866822
96.7394901660731
96.6694500838535
96.6615481798924
96.6854168139235
96.7067704762498
96.6801640019131
96.6436968181637
96.6610966220223
96.6310594202787
96.616806584543
96.3652792412403
96.2737673972523
96.4161282189384
96.3612509183319
96.3501494544904
96.2704878845723
96.2120513617203
96.0881875492775
95.9151416459938
95.6226540880332
95.5290828164411
95.4813293112657
95.4236703135742
95.2509327699281
95.0197988693312
94.8200494484934
94.5745586500193
94.3678719103826
94.1274800528139
93.8828537038303
93.8864237391349
93.5648606591858
93.6594379712485
93.5486095580822
93.3087095934624
93.0900724466199
92.8577338085494
92.5326134313824
92.6667754864855
92.7173686314062
92.5142049281589
92.3808910724856
92.1915998664777
92.1673830021413
91.9757814614159
91.8284814932122
91.9367979734677
91.9400320477627
91.7747508957304
91.6981995537755
91.7942966468261
91.7699239859032
91.5580803600034
91.2317934714734
91.188462515398
91.6393938298323
91.5456788105043
91.3012680473956
91.3842812448548
91.4989342593536
91.4495490929786
91.3325681860315
91.177937774087
90.9733326957123
91.1525538604348
91.3013018194215
91.1706142195187
91.058520027091
90.9822998389868
90.9038367025732
90.844096839754
90.9180516921806
90.8003307544448
90.6303773582232
90.6979795940314
90.8347897067128
90.7166260042049
90.6350397319179
90.5661892288583
90.5589771885441
90.5571394634012
90.5510476610243
90.5281746188058
90.4855933111891
90.4129605356122
90.3865015074206
90.3851821639654
90.3604197960392
90.3189260888755
90.2916727496336
90.2896608905009
90.2854315835744
90.273948125635
90.2060918657733
90.0610071795736
89.8942427999625
90.1064320308268
90.1597793915102
89.984077959687
89.9834148164487
90.1145812239313
90.047948584523
89.9573584969985
89.6917282675833
89.2656976376139
89.6109851744291
89.9772831386358
89.8452767782024
89.8918650978606
89.8314010570294
89.8097128190303
89.7536052757198
89.4931812351547
89.3450571477072
89.1855311596091
89.3887236412808
89.6625467032555
89.5052849473917
89.2287121277253
89.375095693905
89.3391004207648
89.1368709420524
88.9512993060405
88.8401245429173
88.6648650785097
88.6183156711761
88.7195212601424
88.5875820381894
88.6592262589855
88.6027895201675
88.3976047802972
88.1211264588178
87.8226063492199
88.1263757930712
88.4870302488042
88.3596291438242
88.1478192986574
88.0199412616997
88.0761857137007
88.2349755697362
88.1577063231838
87.900487711399
87.9017491437134
88.049590615326
88.1497576410282
88.1408902771815
88.0857354154426
88.071864213351
87.9602943145751
87.7908728716026
87.6647913774028
87.6222359786646
87.832506065669
87.7339143130399
87.5120645479882
87.358820416884
87.4032103563636
87.202485423693
86.7969232847061
86.5213376581129
86.6532114161897
86.5470129500756
86.1558172435444
85.7310028699648
85.2112281640827
84.7769517026337
84.2732412653638
83.7627178453496
83.2106534749176
82.5978536998637
81.9466835861701
81.5161887335472
80.8868721619005
80.4353978207894
80.3893295666172
80.2356472453953
79.7268428664595
79.1344108169182
78.541780166404
77.8687449539164
77.458802952377
77.0603857637753
76.4706634642631
75.9268613642641
75.3951092681354
74.8921751587206
74.3018960063544
73.7806797068997
73.3196687072981
72.7766445757962
72.1791458748053
71.7234670645567
71.175181879894
70.7730408717174
70.3679281853345
69.7567141769813
69.153518859627
68.7163156182598
68.245756522136
67.6569602509301
67.1274702840066
66.6686595349778
66.2858932009803
66.0413791330702
66.1711174080085
66.5132565731705
66.810609147966
67.2171317469371
67.5749258194079
67.8360787112118
68.2732255233685
68.8374415690543
69.2407755331809
69.5876182528388
69.9467685618655
70.3549068455694
70.7748765391518
71.2574154486559
71.7870421756701
72.3646424588437
72.9400003584694
73.4230189485983
73.9103029616949
74.5697434175353
75.1844528946338
75.7003480628409
76.1783012013227
76.6525490720758
77.0976568197615
77.5479085355721
77.9950898284132
78.4115224213357
78.790756744013
79.1783807485557
79.5722130371925
79.9415515748913
80.2837314300608
80.6231931307402
80.9494417389955
81.2580441864374
81.5678779756612
81.8644835145776
82.1422066175125
82.4196851650032
82.6802869699505
82.9557900223023
83.2387158695497
83.49881322299
83.7154742512684
83.9350960451095
84.1555232206942
84.3767759090747
84.5754957237096
84.7725697373708
84.9591771758738
85.1566680215936
85.3644388546294
85.5653948289035
85.7428148588221
85.9093737997786
86.0559233043844
86.1960778379954
86.357383579286
86.504056132956
86.6196903790604
86.7395314969023
86.8574855083722
86.9755723662386
87.0915897980696
87.2076075954711
87.3201921697934
87.4449789247605
87.5634079068998
87.6760926837497
87.8004161294634
87.9209557847811
88.0442514385548
88.1645122821791
88.268118571049
88.3784658636875
88.4788226641345
88.5605960553887
88.6150140875262
88.6637924678328
88.717060894595
88.7696858275066
88.8052988550409
88.82616846385
88.8118466160202
88.7787661140571
88.7171230761322
88.6408720507675
88.5437978674747
88.4170031465741
88.263046637332
88.0730636668318
87.8464844920353
87.6034145822551
87.3393822336275
87.0964190755323
86.8217859348029
86.5216840617031
86.2367771136068
85.9789796179113
85.7362931687918
85.5174950614707
85.3062257624671
85.1006520454764
84.9008443793813
84.6998882094896
84.4801566332104
84.2604108608766
84.0167409334222
83.7830328567279
83.5643611110275
83.3236123079271
83.0633293133838
82.8274215473108
82.5528521839548
82.2457827860126
81.916282508511
81.5770747963454
81.2672926440209
80.9649507430955
80.6604569305633
80.3875184878077
80.1126274559568
79.831756123227
79.5474773649857
79.2535076187133
78.9561233440778
78.6355845348964
78.3018414299429
77.9725774565906
77.6440267823893
77.3373687259131
77.037012102041
76.7782235735064
76.5817519387371
76.4364747415846
76.3049904474596
76.2291317553266
76.1557494574097
76.0735680528011
76.0463747475033
76.0790848778412
76.1363983728631
76.2410565968077
76.4475635151
76.7400522268111
77.0384761861172
77.3244919677616
77.6229183600373
77.9899869735531
78.382257004232
78.8187875949245
79.2657767659057
79.7505142706528
80.2550839726113
80.7482321900735
81.232487397543
81.7137090415129
82.1964375871753
82.6500074831996
83.0553627891816
83.4660639974418
83.8734002387957
84.270989135772
84.6457192837369
84.9943372561795
85.3091574307833
85.5826974766803
85.8068543160732
86.0302116587523
86.233987438161
86.4413880029658
86.6179743824832
86.7044282654293
86.8064833023533
87.0333709584154
87.2572308968396
87.4661729369399
87.6715490791073
87.8489546670317
87.9829066400991
88.1254966968091
88.250683271541
88.3722442030792
88.4904194283692
88.5834171938976
88.6986612598105
88.8291415427486
88.9168393244617
89.0062420872959
89.1143958919183
89.1937463293334
89.2770811197896
89.3795181048721
89.4377636464891
89.4974515226367
89.5613832812425
89.6154026715561
89.6648581302566
89.7060415734125
89.7399836409606
89.7530401265092
89.7076049300135
89.6423990531136
89.5521366316343
89.457344457405
89.4600259250701
89.6085727141928
89.7853804926585
89.9393913658129
90.1431157862015
90.3692896581937
90.5502780934162
90.6844942187477
90.7936113856768
90.9243192575778
91.0513528693496
91.1775106616917
91.2819081577725
91.3579720508281
91.436007533223
91.523676507181
91.5921617450449
91.6550991764707
91.7229763616263
91.7629493087924
91.7985201081313
91.8503546200931
91.8859789976217
91.932178111401
91.9718922573761
91.9955656361223
92.0380683426489
92.0742845054918
92.1093795439041
92.1382202427443
92.1498612571149
92.1774608821554
92.1975169085373
92.228097339277
92.2916605857829
92.3211191732175
92.3240286187933
92.3579854474728
92.3440513680448
92.34721585463
92.4141630800497
92.4470024215192
92.4315335854014
92.4314424712664
92.4412489409997
92.4519594454185
92.4558059377755
92.4971546864087
92.5449228941378
92.5215522190994
92.4804971461107
92.4630462849656
92.4520750579015
92.3961425892351
92.2778293977975
92.1713399941568
92.0356717348821
91.8455763277584
91.6381312062546
91.3605207601286
91.0266132465653
90.7327873433129
90.4309926067246
90.1163069109641
89.8182158281124
89.5446530576052
89.3371895340556
89.2594745252657
89.2969674718907
89.3824384251979
89.5296789767035
89.7681097209723
90.0500090663704
90.3564982192742
90.609567656041
90.7651628385799
90.8673584635232
90.9099292564369
90.8398065727063
90.7383607527554
90.6361304621472
90.4902029371939
90.2059366107727
89.7366210271591
89.3213414996645
89.0659355249233
88.2904187716877
85.9751227246294
83.0167161837387
82.4992895004615
84.8922223076287
87.6445627901934
89.3840135555205
90.3263810942149
90.792294573745
91.0351102637225
91.1635915490979
91.330240866409
91.4995460979598
91.5707483491988
91.6123551659555
91.6779735962873
91.6915724759676
91.6750711089015
91.6795933390718
91.6372220440361
91.5947733804754
91.6138921752321
91.5845439586672
91.5626628179273
91.5989382708585
91.6422217922477
91.6372507017403
91.6244461149761
91.6194140076073
91.6513898899811
91.6449436778898
91.5796716607667
91.5443882345754
91.6136739664789
91.6039793866901
91.5807907926152
91.5945228885941
91.5649086078913
91.5453448321508
91.5630604909273
91.5861960792381
91.5959274679403
91.5687022936489
91.5426931644239
91.5345559667623
91.5341412915812
91.5393751741953
91.534416338351
91.4613860291946
91.3874133731093
91.3647259185463
91.3826879788188
91.3440177593618
91.3204688404108
91.2944460215247
91.2613177304489
91.2100679674219
91.1343206585339
91.061539472773
91.018212104701
90.8579363521921
90.7002024664711
90.6495728847121
90.5568922426005
90.4080633135636
90.2776253157303
90.1541195470019
90.0228121373557
89.9310572405828
89.8739323601231
89.8773960367855
89.9112156935761
89.8810824542212
89.8677149267947
89.8820951954541
89.9019625027642
89.9031733269559
89.899873827557
89.9208503948666
89.9477172062197
89.9064642370925
89.9730843425225
90.1013190645664
90.2071383405298
90.2374947347887
90.2658964282165
90.2367580575196
90.5303815703818
90.5100450999986
90.3312801354337
90.3288387045923
90.3225071661183
90.2913266714431
90.2191323736324
90.1963839694998
90.1238166237783
90.059549778809
