1798
3999.43349933624
650.420452594757
1
128
4
95.2702706330096
95.2375578256735
95.203309103919
95.2085363425535
95.2867997971307
95.2849120006914
95.2113914194543
95.2070445426866
95.2915390207855
95.304627081404
95.2040417516782
95.1616066676116
95.272557501184
95.3220998911767
95.2862776407159
95.3491093379606
95.3635607546156
95.3831849759218
95.3759112254746
95.2670537208803
95.2845958775003
95.2329627723038
95.1377633641223
95.1854112380035
95.2307032726955
95.1825046049372
95.198360640072
95.1880533308501
95.1635652036515
95.286255437477
95.4235307655082
95.4253445215632
95.3930144085077
95.3812804100833
95.3417588964285
95.2889241508078
95.1852601190212
95.3247757899006
95.4342643279321
95.4047073122881
95.3581393541321
95.2514002158934
95.3354814476926
95.453497998638
95.3189942105369
95.3093348596519
95.3967000122906
95.2078962247547
95.1963297974366
95.4365334784952
95.3492781684066
95.1140149726404
95.2557089425863
95.5360049588405
95.5412775083136
95.1627580132198
95.0537859645817
95.4022293165358
95.5116111885922
95.3401642471273
95.7212193259658
95.7055076051614
95.5749562872695
95.4289233452794
95.1832172131574
95.2162319894108
95.4959708337637
95.4909046468144
95.2779965847552
95.2793052183483
95.2175911538284
95.2271225751717
95.3308701208962
95.3822366011273
95.4750536610622
95.4248292443247
95.422597357088
95.763073609424
95.9671964197647
95.5083894051027
95.3822088332199
95.9710234151044
95.8667642325179
95.2823426689134
95.0503406679185
95.1390697559486
95.3546242545066
95.4565890794924
95.5898473815137
95.6598527296657
95.7229445306617
95.6135658477112
95.6415528753044
95.4511890614056
95.1733885554902
95.2941172601833
95.5183459492955
95.6626265694013
95.9928400951337
95.9717938159905
95.8227679309621
95.4812245749211
95.3653845857557
95.4971392982179
95.4981477933523
95.4972323792213
95.7319978669533
95.7348337848487
95.8197461659827
95.844457897217
95.633498335991
95.6587723348103
95.7566957900172
95.7102442935543
95.7639551515018
95.7433634513631
95.6045983756637
95.5625240586229
95.6722746185523
95.7065317772745
95.6532973169213
95.5723230279732
95.6162974203558
95.6834320361123
95.7258411301569
95.683708389252
95.708909381953
95.6727443746797
95.5898600590567
95.6348154235731
95.5431481268177
95.363448319346
95.3819370007988
95.5343748056085
95.5742463566819
95.5230148948153
95.652576348217
95.9337026836794
95.9467233249142
95.8852679668459
95.9416314136205
95.8009653899641
95.6911985344797
95.8202136533757
95.9101416191601
95.8168405403867
95.8204549166899
95.8486966667037
95.8587240219592
95.8336337240961
95.8530236372139
95.826954314705
95.8574591168099
95.9297960386356
95.832212624615
95.8957239423683
96.0441398330918
96.0456215311628
96.0226291674432
95.9768380320413
95.8948472979948
95.7639180604302
95.7818569135248
95.8229048585266
95.7926903354491
95.7485048822956
95.7636458492215
95.8766507850835
96.0254808254894
95.9544389417633
95.8147085468756
95.7671186331362
95.6472993105094
95.6564335101734
95.7574951465375
95.687266926839
95.7233684921212
95.8653148937399
95.966449660331
96.017150659643
95.9504167190379
95.8222576789065
95.7004614164732
95.6774746593779
95.5812634848335
95.3836373632206
95.3645448865942
95.3077331810238
95.3485336080559
95.6752421640965
95.8028513780627
95.8143125781406
95.712986907992
95.4064107949094
95.1646487396714
95.0536096038315
95.0952739556462
95.0942227673018
95.1216978946247
95.1124100147766
95.0215495709356
95.0842218133005
95.1815265235942
95.1158177685218
94.9020502469549
94.7343922793699
94.7085395929567
94.6638216558941
94.7605392931259
94.789425905275
94.6959076030097
94.7124481236181
94.572353646843
94.436652116964
94.4236162204823
94.4420799179773
94.4570417396659
94.2669085205093
94.2303957611503
94.1385552824427
93.9757787382452
94.0377308857802
94.1537088479954
94.097577562299
93.985028920056
93.9251796642538
93.8766455110292
93.8144694265779
93.7450568054865
93.6384623890507
93.5156056744485
93.5459985404035
93.5243568113936
93.4019146967333
93.4347416066561
93.3711888249142
93.1941307320541
93.1458377830293
93.186256970225
93.1031788416391
93.0349785074855
92.9459424999712
93.027510705663
93.0980209917756
92.9614005749958
92.9480651521967
92.8921169547134
92.669659254682
92.5460305928812
92.5212622528751
92.4621597428934
92.3088527127713
92.4185763129157
92.4630555318305
92.3308753443528
92.2110977778795
92.1973956784174
92.1285647347438
92.0686367722168
91.9682602808105
91.929257961
91.8428857522295
91.730063918334
91.7344386179167
91.8200318615717
91.7320975596782
91.6630036468625
91.6095019836508
91.5483218825536
91.4813312317135
91.4137535251076
91.339515299511
91.3184802395168
91.1884533172766
91.1126962147589
91.1018353373671
91.1103408131746
91.0208159509481
90.9687359541129
90.8073543722318
90.667709587431
90.7013422137064
90.739396506506
90.7160633418468
90.5883474528759
90.4740235063747
90.4855924077492
90.4505244843565
90.4208753978877
90.3991169838952
90.38052920275
90.3298617427149
90.2275924118013
90.1801747159921
90.2330054976629
90.1980587687866
90.0279138860555
89.9107879740237
89.9095389669013
89.9248393099128
89.7892628529746
89.6759850674695
89.670093864816
89.6679806059287
89.7364855481448
89.674086731825
89.5282443496534
89.4869108993558
89.5424544828696
89.5237940973692
89.4078189735688
89.2581489891954
89.2349907471
89.2854384178189
89.3174624292098
89.2406742783428
89.0661458922147
89.0032342410497
89.0319535589028
88.9816738578689
88.9174406365767
88.8839432642307
88.9329029748838
88.9468639761991
88.9045181925669
88.8401945668818
88.7992891843987
88.7951427793361
88.7823957149622
88.7009230543877
88.6925118805856
88.618993029594
88.5113555862077
88.4358221928437
88.4663959475408
88.4917142235013
88.6024857949444
88.5114159958741
88.3611907495155
88.387861171052
88.3833206782085
88.315214167874
88.2826854218064
88.2923626207026
88.3015046654553
88.2955810881144
88.3314441981509
88.230458819223
88.181759422222
88.2332395102029
88.2635079777813
88.2027722195788
88.2103308768297
88.1698408954401
88.1001137586623
88.055479441298
88.0150158477818
87.990578972846
88.0075029647108
88.037235120163
88.0674169212703
88.0490639105846
87.9902005477047
87.9241964542987
87.9268896336691
87.9929796881928
88.0134604663399
87.9739982092611
87.9172197305646
87.8880030702952
87.9075372216015
87.8555304628734
87.8538935513157
87.8227693071785
87.8004281232037
87.8839020389396
87.9340791317792
87.8001173433371
87.6559673675591
87.7030392736378
87.8275669096188
87.782781906841
87.7353917600211
87.7475628199608
87.7296522346526
87.7388467564063
87.7780331761487
87.7764381105099
87.7438527991991
87.643173198944
87.6625403345981
87.703711143493
87.6904608570863
87.5966438148703
87.5669329423331
87.5745893722904
87.6494004008468
87.6725652637672
87.6331026369349
87.6317197493215
87.6484463310928
87.6684846449278
87.7009306339942
87.6714061404962
87.6374284781137
87.6855649831697
87.7405611630167
87.7841704952863
87.8090642103959
87.6898869953323
87.6287179844264
87.7511523429016
87.8654992600805
87.8244261904873
87.7023101086337
87.5915084277914
87.666635979941
87.7680774954075
87.8127305071887
87.7990750510379
87.735924888879
87.7282746246489
87.7986151527124
87.8063595480778
87.7877128317348
87.812067867581
87.844045311221
87.899860515055
87.9137740985388
87.8273032812098
87.8442230341264
87.9732706979129
88.0598739053459
88.0389687420396
87.9628188379296
88.0017413680604
88.1240597414083
88.1254284835372
88.1223951532127
88.1550988439444
88.1757535516584
88.1927923456484
88.1868271625846
88.1765331318804
88.1989753939907
88.3053053320874
88.3692579678941
88.3871882294335
88.4324981436835
88.4412964203137
88.500073011459
88.5264082601764
88.5151254428966
88.5044975556096
88.5116243157243
88.5279154558601
88.6218920197975
88.7028158902512
88.6686651574073
88.6106708506111
88.6156267837937
88.7556987431737
88.8920851873543
88.8495189826612
88.8313075878325
88.964965190252
89.0561067128947
89.0015703707433
89.016969795229
89.0609328705973
89.0522685946707
89.1139634312781
89.2430470004919
89.257167589188
89.1876427374794
89.227967638919
89.2830143867174
89.3321997743763
89.3004365006578
89.2598044535279
89.3735501578112
89.4577468872593
89.4063755593311
89.3509397221631
89.3864081359549
89.4037836967007
89.4720502873573
89.5596466784076
89.6073355632468
89.6114983963769
89.6311522258512
89.6064073108842
89.6236780136002
89.6858275263719
89.7148609240396
89.6666171978402
89.6542711434185
89.7082461179942
89.7347508202728
89.736703293726
89.7416316253509
89.7614873293763
89.795010222452
89.8162978668635
89.8481675381518
89.9234872906192
89.9679774851185
89.9804850726443
90.0179920306409
90.0307474924883
90.0748624027832
90.1395863165813
90.1878721489307
90.2334546194393
90.2174334755377
90.1834414327447
90.2086225520873
90.2674873893244
90.3101106076168
90.3515840084837
90.3905681184595
90.3771446122553
90.4252401128879
90.4790277692324
90.3947097801887
90.3578231522185
90.482527073228
90.5831959818094
90.6140348526593
90.6366106118134
90.6601507119456
90.6527417174067
90.6630686826338
90.7098021083226
90.7412755100134
90.7246173682059
90.6768701774306
90.7402269824826
90.8277226205608
90.7949669723765
90.7915835399641
90.8275998503308
90.7660359508121
90.7053364999549
90.7218929793551
90.7718339529389
90.7492910234291
90.7005762688768
90.6269109384219
90.5495430826734
90.5118166608221
90.472810148282
90.4336139626177
90.3880338270309
90.3823416984647
90.3366529633667
90.240432034127
90.1378268443796
90.1098459216821
90.1162564014499
90.1131177406681
90.0994995857499
90.0773046407002
90.0679305689982
90.0792125003442
90.0311945700001
89.9676834686797
89.9258153479063
89.8725386650049
89.8134304712239
89.752781395342
89.7316675901524
89.7264475769955
89.6917824441367
89.6654322421101
89.6428979482694
89.6418604102705
89.5991429422095
89.5303950101502
89.5731974927802
89.617770506731
89.6644167289879
89.7553366940451
89.8374613395694
89.8995704138722
89.9260040828719
89.9598583654098
90.0365275167555
90.1183704200603
90.159856459636
90.1734790292762
90.2238467825562
90.3160917744297
90.3432365030191
90.3873567858772
90.457329752397
90.4669278961094
90.4495141225956
90.4813477756289
90.4928558731858
90.5030005735489
90.5176032530065
90.5002088309539
90.5127766053067
90.5763445953379
90.6064508532129
90.5635376977694
90.5393106150437
90.5734251530609
90.5878489038694
90.644072539361
90.7159586406166
90.6989850427551
90.6672931781193
90.7245172526544
90.8047048902206
90.834104072679
90.8357100560365
90.8752544943349
90.9604193980982
91.0073008497559
91.0508666678711
91.1367310375449
91.2249073762181
91.2779066550649
91.2768152012575
91.2722906932986
91.3628493230026
91.4526937579155
91.5162273620166
91.5247916691328
91.490718548587
91.4805264608466
91.5766654144774
91.6728979652602
91.6613305969164
91.6422612586879
91.6572982819909
91.740271085919
91.8075245312237
91.7720919773935
91.7511633600869
91.783625541224
91.8578500693545
91.9644699943598
91.9871012633212
91.9118880408523
91.920649591484
91.9946159408865
92.0568471238939
92.104425317997
92.1189460896288
92.1042237896521
92.0852643199167
92.0889674473588
92.0999317929598
92.0993852444964
92.1352743151866
92.1988026435706
92.2416503427381
92.2553875349807
92.253344490424
92.2607054456422
92.2963974571217
92.3407716409473
92.3637941296586
92.348453530854
92.3661732965931
92.367950294558
92.3684195965279
92.354718043194
92.3821225303018
92.4679849959987
92.4877344603593
92.4556935340899
92.4596429312198
92.495408166362
92.5110821798474
92.5093220493741
92.5189902865502
92.5103386549437
92.5205664081255
92.546292457494
92.5317283254198
92.5109441693378
92.5154131258173
92.5788726444286
92.6274639418348
92.6077961772448
92.6026194569851
92.6252239313883
92.6668200139103
92.7178385066792
92.7193802859416
92.6636423987641
92.6274603319304
92.6709784393312
92.6976600211356
92.7179627776466
92.7712431479448
92.8274629504864
92.8545803143194
92.8458273927391
92.8589515121183
92.8254925734558
92.7803512760593
92.8049147263801
92.8717582160511
92.8759780918863
92.8447383210888
92.8624234863429
92.91157852643
92.9713518503984
92.9992803154925
92.9752665853213
92.943523621898
92.9329057352003
92.9393781206078
92.9564835423974
92.9341056293054
92.8859335704563
92.9377389583346
93.0202310931139
93.0069767454801
92.9484410751766
92.9259990194744
92.9609517287327
93.0340052508699
93.0749131434526
93.059584452924
93.0300704515173
93.0630190683789
93.0964880068769
93.1075697552744
93.1537939829873
93.2038946476644
93.2068105272545
93.2379615193233
93.3049179614812
93.3428405444708
93.3312980191723
93.3288296023093
93.3639644239221
93.3808045168412
93.3447905914424
93.4048459604771
93.4771962115293
93.482603766177
93.5140597079846
93.5842453947435
93.6006428130509
93.6060336701999
93.6138311327488
93.6343070267984
93.6203083265966
93.5630379587757
93.60494050289
93.7286051509553
93.7508150878958
93.6861852195184
93.6794768104155
93.7704312092497
93.8276661579593
93.8045714639183
93.7936076704324
93.8364565240542
93.8453008144693
93.8670652626996
93.8892703602267
93.8703062339437
93.905741909948
93.9639642306893
93.9666697694573
93.969172831063
94.0626323846086
94.0871979301012
93.985203434674
94.0316606530562
94.1063767412309
94.0376411688485
93.9861811958177
94.0118607708289
94.0562653434063
94.0924673107331
94.0907794842211
94.0535685383354
94.0033715645268
94.0582736324198
94.1057467079143
94.1226884597917
94.168831262859
94.2311273084992
94.2471504006834
94.2291402263675
94.212911455767
94.1709500071117
94.1563831375915
94.2246752789918
94.2901351718193
94.3233078932698
94.2671671126228
94.2113050459253
94.2679143607159
94.3069191273545
94.2585265786663
94.2377849333498
94.3043167781104
94.3249359862123
94.3262156130221
94.3655233895588
94.3810636259355
94.3693132946531
94.3426788136209
94.3647837375528
94.3626429577382
94.4068325826559
94.4576383981443
94.4083835781735
94.3664456917744
94.3885161991418
94.4449172740363
94.4723312361232
94.4925508971856
94.5116315595044
94.4580063864384
94.3541935011737
94.2956902440028
94.3242399191716
94.4184240202086
94.4194081074559
94.3229363759389
94.4280307677864
94.5545980792295
94.5321536595363
94.5211463167734
94.5332253381721
94.518499564758
94.5067259893969
94.5378720608364
94.6091369286616
94.5677362324478
94.4573561673971
94.5213769905317
94.641030341035
94.6071136768817
94.5479215775863
94.5589820416083
94.6266107032164
94.5946813526635
94.5477760794837
94.5700072266089
94.621657126156
94.6854547609827
94.6293382681799
94.5846976174511
94.6193123910457
94.6376831597858
94.6487420507697
94.6377831579173
94.6361723581253
94.666572837857
94.720192540499
94.6859519427494
94.63501853261
94.6693933470997
94.6543981375792
94.5808598131317
94.5386973141992
94.4615004176841
94.3538218645867
94.2819913454501
94.2609741136462
94.3212897651638
94.4018909251229
94.4259507985615
94.4446657494883
94.5306063065859
94.6405524528228
94.7324481265642
94.8567238244947
94.8931390666059
94.9449389006298
95.0519288086839
95.1093393641412
95.0574569408044
94.8964644709458
94.6713396632685
94.442377259471
94.3630739653062
94.4797805371113
94.5878747626956
94.6642397461517
94.7369954024906
94.7573512032999
94.8183660181633
94.8377376223178
94.7551690616791
94.7008377768143
94.6291085855737
94.5238743746593
94.4131552480178
94.3947068561291
94.481860351381
94.6033948606799
94.670543417032
94.6571738881705
94.6468305965534
94.622700066201
94.610083548171
94.6555418034188
94.6718159620296
94.6557932335404
94.7262454258253
94.8191232039785
94.7748677836431
94.7163906426745
94.751556565789
94.7675434884803
94.686426958181
94.5876609204555
94.6451845088526
94.8664849013319
94.9566763430408
94.9575962504025
95.0061064327766
95.0791539186156
95.105059379171
95.0680348993946
95.1569799573223
95.3289423370726
95.3448918725556
95.2984553514752
95.2844843435451
95.3343673210346
95.3476191288864
95.3766445919084
95.4625519020184
95.5489698122802
95.5417412845246
95.5077817112209
95.6262295189209
95.6845841400413
95.550621419914
95.6316178521271
95.801653181259
95.7448093114256
95.7238773828077
95.8837363963081
95.7767957082043
95.5852248195525
95.6916892102829
95.8356630395355
95.8259144607588
95.8727560823717
96.0045435802949
96.1698140173556
96.2196670364878
96.1287896628899
96.0992522029059
96.1223643749689
96.2282631340753
96.4078612723612
96.5066588622924
96.4460041229534
96.3196234282179
96.2846536307549
96.3468309062847
96.4356324255474
96.5011990784468
96.6933922105742
96.6731909355146
96.6189879231194
96.864587706441
96.8475290155608
96.7579112752288
96.9993645502197
97.2525095973762
97.4982445954761
97.2930911821614
96.9186359174918
97.1723151283809
97.3682298672195
97.3181371215747
97.3110363535518
97.2339728060989
97.4026230451069
97.7367491565004
98.3307400133142
98.4678656070307
98.1759244278014
97.9037089036476
97.5261235034145
97.4409414434104
97.3991063840872
97.1265570752162
97.1383740947478
97.1999167790878
96.8321621421863
96.6214088064749
96.754617814628
96.7069329679288
96.6317914457007
96.5357167581958
96.4064243521563
96.2305730036821
96.086403943832
96.06723390359
96.0067857314138
96.0585479842233
96.2078009510319
96.1226360527548
95.8954690748065
95.7849343192348
95.8366652041157
95.9125556761488
95.9618949700497
95.9259319221985
95.8646753208279
95.8663682062461
95.9326988413421
95.997367307079
96.0668057141693
96.1352245309683
96.1287008876652
96.0880974144325
96.0524053386801
95.9847605325465
96.0698000259215
96.1315405299144
96.1307707654892
96.1064570080791
96.0188850624467
96.1037880986248
96.1849402387482
96.2223605836011
96.3934489317958
96.4308911780332
96.3107094771445
96.3276467999636
96.6457156636519
96.7583637271292
96.6383854533688
96.5762521886747
96.5454336512322
96.626780598127
96.7297305404905
96.9543721146956
97.4531635066164
97.7907422306405
97.737750610556
97.4901076204496
97.4409404285344
97.6761345295577
97.8799440012869
98.063318228416
98.1493149940476
97.8701153021526
97.7904595384831
98.1484094032798
98.0901519555714
97.8952534883774
98.0741487625567
98.0556673845921
97.9653459299185
97.8753060177652
98.1177470070178
98.2884827948097
97.8555170982972
97.5443600605819
97.6401513006885
97.7063447087143
97.6993655329684
97.8914561785016
97.8756441834428
97.5426169153322
97.420465817278
97.3819363279029
97.3982167236763
97.3978957223843
97.2696876395455
97.2836850490196
97.1295649501787
97.0857160638519
97.6059558694784
97.861636508996
98.0079315329615
98.2299319589553
98.0983359630418
97.9904196271501
97.9319862279224
97.7980030631457
97.9112757211677
98.0072669195758
97.9110784833457
97.8381123834514
97.8034650000512
97.5751169844417
97.4126535647873
97.4211741597022
97.3411938048681
97.0116433847279
96.8536169229437
96.9805306651381
97.0492812110406
97.0171146343089
96.917428309694
96.8043379850233
96.7500779126758
96.6592283324806
96.6382735729316
96.6327739187019
96.5215213301096
96.5403151751809
96.6401590261716
96.6530900032588
96.5586642442453
96.4716067172653
96.4988145504988
96.4415248222155
96.3590895472536
96.4086263340575
96.4386177276778
96.45443621486
96.4401288748566
96.3556746957349
96.3162735315626
96.2868250993689
96.251367138146
96.2626498552588
96.2338026030965
96.217441859281
96.3173699879518
96.3176035263197
96.1989952074759
96.1342611143311
96.1830350191271
96.2841144245709
96.329212181131
96.2457309966097
96.1737267661981
96.1495578625424
96.1334140290238
96.1417666347186
96.1767711840648
96.2642839938737
96.3077500131943
96.2811319076726
96.3062744813
96.2916347600368
96.2501796451084
96.2391119431427
96.2306908308226
96.2251993248984
96.2038116107141
96.1496737746921
96.0893168521451
96.1056569590448
96.2404929358921
96.3182599857199
96.3183617064616
96.2528396260831
96.1507634929365
96.0956379451271
96.1039265245962
96.157380526983
96.2021586691248
96.1884660317465
96.2096429026966
96.2488955719509
96.2248672000748
96.2249213522518
96.2707740764018
96.2793850155854
96.241868033641
96.2225585782541
96.2234401195371
96.2403721468565
96.2263356528658
96.1887221481278
96.1324231454634
96.0834894262173
96.0939740589525
96.1399350746606
96.1536763942407
96.1536776668989
96.225245698837
96.2246328155704
96.1375744511746
96.1135105190588
96.115140949287
96.1048234546261
96.1078906038637
96.1141235650751
96.0379949754061
95.9526781787572
95.9726740691105
96.0633594354026
96.0907756959095
96.1173935725153
96.0196535086094
95.8562637920367
95.8259059898879
95.8180421780024
95.7819393216425
95.7639544742142
95.652968433427
95.5174213369447
95.471781750086
95.4884631455867
95.5063933085275
95.4152756778475
95.2705029934471
95.1490015068277
95.098000845301
95.021640099588
94.8855958856674
94.9963385337059
95.0738015415742
94.995429349156
94.8897764985382
94.7072522160678
94.5486445967079
94.3775014787871
94.1458586231899
94.0073046719035
94.046634537535
94.0319004461596
93.9105052904571
93.6384437988479
93.2788199402803
92.9543413529641
92.7807078284939
92.607386357245
92.3160988499306
92.2347318424405
92.1844403221132
91.9835192401514
91.822148837568
91.4089639769565
90.9730023557497
90.6254981185249
90.2321612247195
89.9472357585724
90.0366378332693
89.9076580996091
89.5071525378071
89.0586613763529
88.6805134543659
88.4946751684213
88.1931693670495
87.9094869013638
87.7698429035602
87.5116121798623
87.1004702585793
86.8116088988786
86.6033176937591
86.2847725639587
85.8045713719391
85.1424963073758
85.1299938929412
85.7533595183384
85.53029341859
85.0785264089254
85.0334209400939
84.9985661502117
84.731391498799
84.3950712605872
83.9861478420662
83.8182263959644
84.2242361029764
84.3214719639181
83.9987863830136
83.6986566710178
83.6009877820189
83.5102560905716
83.431389685839
83.5006286523169
83.3287895879146
83.0871023969986
83.2718674149228
83.4063084039232
83.1923312863631
82.9895417005836
82.8306352298845
82.7324616814935
82.6263077887418
82.4916129009773
82.3961090782339
82.3164640000097
82.205746056737
82.0934226581609
82.0403302438571
82.0295034245675
81.9566560463136
81.8510132022338
81.7524404721207
81.6376192711846
81.5534763503948
81.4675905377683
81.1613865211007
80.9814301755418
81.3633957328551
81.3228663615904
80.9010155419005
80.8318323214899
80.894838755532
80.712846497567
80.511377894591
79.9873039953025
79.4314006635854
80.4769869638365
81.2012426858286
81.1497001433214
81.0753408016426
80.9418903753489
80.9670352870565
80.9030573429238
80.7817172417003
80.8272462747354
80.9345439916842
81.945411134774
82.8418665273544
82.6568905530656
82.4379047695549
82.8653282360856
83.0496070618599
82.9804404329516
83.0802104396114
83.2501324000245
83.2926719890873
83.7637797651758
84.2610246586091
84.3847767841174
84.6145727290222
84.6463181102232
84.6337978440397
84.4964269021835
84.3467876639452
85.4002249572587
86.2818173364177
86.2172773755901
85.9796963344064
85.926243631759
86.2623715627229
86.7492510097503
86.8057037040723
86.663998738738
86.9424844858603
87.3810965287967
87.6252991763729
87.6739974114629
87.6852902447065
87.7273063189882
87.6766519621463
87.594900093757
87.5297307010722
87.6322358668603
87.887103508441
87.7060602375908
87.2920815907513
87.0451915245008
87.0120667992818
86.7471809205361
86.2398786263537
86.0613557370129
86.5792155442253
86.6759783442266
86.4000576148963
86.1569191672832
86.0535507638947
86.1486207318174
86.1265480622001
86.0567658807153
86.0086852793698
85.8197169852033
85.7719910235158
86.1547086716595
86.1949496629271
85.9953440961582
85.8837644625112
85.7764200855519
85.5199370352498
85.2706927820883
85.0204768607634
84.675824402344
84.6466052411184
84.6045356885512
84.2799495453029
83.8998420704511
83.5214601432848
83.192464786363
82.813202766242
82.5263948549277
82.3923097463447
82.1604501225552
81.9148504184518
81.8941696027611
81.8568481567212
81.9651752816579
82.087759209453
81.9664327937595
81.8254891681672
81.9570820905922
82.1680079012322
82.2130743199327
82.2282254266257
82.2605879198438
82.3086024747806
82.3367624526209
82.5306875420854
82.766047362397
82.8302815956309
82.9286150234938
83.0302121106739
83.0391127162857
83.2126483693712
83.5529297548207
83.7417090612024
83.8246106837277
83.9037038540497
84.0143645246053
84.1305654973583
84.2568662525064
84.3826980506146
84.4943043897657
84.581157253158
84.612897811875
84.6664036800694
84.8450556054464
85.0189886801011
85.1216356370312
85.1601000622212
85.201214807793
85.261018718753
85.3043703966327
85.3346104600867
85.3591177257129
85.3378008726557
85.3258758386045
85.3648186803755
85.3596603498356
85.3267821647027
85.3436431529323
85.3640467618783
85.3804568063007
85.4115288176292
85.4434152541663
85.471520132102
85.5165266802574
85.5708085390862
85.6308724653185
85.7104397821333
85.7941361960882
85.8709661049777
85.9338043695993
86.0147732964684
86.0860726719005
86.109942244499
86.1392153450877
86.168523698649
86.1963566034712
86.2224201355683
86.2240806544183
86.2187559788812
86.1985657492653
86.1674212127744
86.1566048638598
86.1450095282075
86.1224701622672
86.0893709482866
86.0655115683042
86.0510014008949
86.0358364634708
86.0146851671126
85.9758719823309
85.9297553629166
85.9084464907376
85.8806383446029
85.852874464779
85.8308411995719
85.798055103616
85.7788360951835
85.7776387966607
85.781625799973
85.8048001073233
85.829004852059
85.8318789381231
85.8463169999315
85.8945766108176
85.9460093998724
85.978293570589
86.0521189025621
86.1377118116369
86.2037381244005
86.2972158277068
86.3781235498385
86.4670581070149
86.5833364980902
86.6877030497884
86.7780512403793
86.881304574025
86.9859800166074
87.0903678505313
87.2199379569246
87.3678532132254
87.4735252568627
87.550582978402
87.6461793981632
87.741188480088
87.8051495259715
87.8557892954743
87.8904805715282
87.9110007782086
87.9150796275762
87.8829171148727
87.8358472510569
87.7846050091829
87.7191853700545
87.6717084462997
87.6357879100251
87.5635822627896
87.4763679810653
87.4065629463791
87.3273809081059
87.2592544779726
87.1680992283105
87.0516912892465
86.9279377426211
86.8170378323148
86.706599284025
86.590519278627
86.4871171592921
86.39305432142
86.2596110726288
86.127096161438
85.9966465645006
85.8436408984693
85.6670050410284
85.4716954870501
85.2856591380365
85.1150699035662
84.9550526835874
84.8108588583381
84.6770989077043
84.5790160047904
84.4866542990621
84.409610644976
84.348127975462
84.2963787345309
84.2570067874507
84.1761135043505
84.0271428146873
83.8970808581884
83.7591764106313
83.585787131175
83.3952477753682
83.1921039911157
82.9742454748633
82.7675463927567
82.565284140264
82.3341691078717
82.1043327945494
81.9157791699815
81.7227061088422
81.5451201287558
81.3673498825617
81.1820392198501
80.9998470611539
80.8177396660377
80.6085301963494
80.4061484129922
80.2147595332591
80.0264165133882
79.8479912809543
79.6788142951167
79.5010579877864
79.3398016515921
79.1641973314425
79.0112027700622
78.8786509193763
78.7503822782726
78.6487780220851
78.5628360060098
78.4652119686572
78.3744594010634
78.271524565047
78.1781515117585
78.1181591056613
78.0570458594595
77.9925651010245
77.9644345525197
77.9206366551971
77.9094374097282
77.9311955053336
77.9442378138651
77.9668086058743
78.0363487510584
78.1252352811727
78.2285127157311
78.3470270042764
78.486790938441
78.6561252816069
78.8670070260216
79.0753229715848
79.2713797620934
79.4965380193388
79.7377124909987
79.9547298958947
80.1663190035525
80.3841202970473
80.5819487790541
80.7382070774039
80.9183884503106
81.1298464399393
81.3114365305141
81.4316751576593
81.5196283334718
81.6086645571948
81.7141680483915
81.7838742944317
81.8157729848876
81.8694694656514
81.9639860575007
82.0714899449505
82.190539445689
82.3078086832709
82.4568947143007
82.6563628600256
82.8598702861821
83.0086386580932
83.1560582571911
83.3448225929298
83.5372155576942
83.6934467227355
83.8383209166821
84.0011643981855
84.1806538301022
84.345589065068
84.5170881272603
84.6671979915917
84.8116468013843
84.9602168181699
85.0913437726421
85.1791126117084
85.283587175179
85.4101313819757
85.5046625624188
85.5870658588817
85.6651927271879
85.6987864569465
85.7587719115283
85.8084403085939
85.8469629681952
85.8848233420094
85.9422168312735
86.001074754815
86.0834152792998
86.127937116004
86.1618578733445
86.2804584352162
86.3899019974066
86.4278572489801
86.4704447099973
86.5050203196092
86.5453751328658
86.5621473139763
86.5821359188225
86.6077566825528
86.635210114904
86.6533422731672
86.6790271349732
86.7036795519605
86.7294289395902
86.7481341347668
86.7575944372365
86.7508197136271
86.7615827572185
86.7879417940835
86.8215284802531
86.8241892795788
86.7923492058945
86.7832565769437
86.7787407396995
86.7711748846433
86.7589683808493
86.7239981950966
86.6966787423743
86.6781148918761
86.6561436578057
86.62108179336
86.5748953018789
86.5051558423213
86.4104162482787
86.3008257593341
86.2100268635147
86.1460450278466
86.0867689079539
86.0025950225133
85.9463957590925
85.937046437143
85.9258743653019
85.8681766821397
85.8491338588061
85.8319350668588
85.7709823363912
85.7222953014037
85.6488799778928
85.583498858998
85.5316506825067
85.4316120200574
85.3610144439217
85.301287975761
85.187448089097
85.0902824392422
85.0539711509827
85.0187078885939
84.9837839013257
84.9913300280135
84.9830655739059
84.8987544138071
84.838708236773
84.7518895477201
84.6850646057602
84.6145443485102
84.5533736239094
84.5370805179703
84.5004683720267
84.4391775547901
84.4153898210174
84.3534345839303
84.3203802781609
84.3167130052931
84.2634634944737
84.171392086199
84.1191334549704
84.1069690183626
84.0792259707734
84.0440765402062
83.9742352017135
83.9247346255542
83.8894517910899
83.8402110177974
83.7599668406849
83.6768689184591
83.6464323626212
83.5757716139249
83.494067367523
83.466457490166
83.4466842266754
83.3968265474491
83.3496796732148
83.314372188746
83.233448534012
83.1046282761202
83.0521107128634
82.9910142461651
82.9376300869893
82.8679482241438
82.7464011587104
82.6370431186425
82.5723721151167
82.5007477325866
82.4011785171551
82.3156345165911
82.2448151521595
82.1446273423977
82.0359270084942
81.8967586262882
81.7975859658089
81.6930454328483
81.6058241040689
81.5192438083865
81.4567088594793
81.3875963484329
81.3344202204026
81.2655950465159
81.2160186925324
81.2175568088065
81.2277519869072
81.1080696442205
80.9966680453213
80.9574679480462
80.935495586347
80.8566823486452
80.7310140297207
80.6360270096889
80.5138778760695
80.3001982054644
80.6417459771901
80.6359236164776
80.3445923065343
80.2474197968935
80.165825713132
80.1266599156623
80.0204681181297
79.8837951796271
79.8284328841063
79.7566961748701
