1798
3999.43349933624
650.420452594757
1
128
4
95.0373482469965
95.0075631592367
94.9939293694328
95.0818016685587
95.1388825346572
95.1238136338599
94.9736041819421
94.9171317617318
94.9593351505049
94.9426527655067
94.8864897288054
94.9578005040276
94.9665352592347
94.9393222190132
94.9648178077213
95.0012471643698
94.9852233507646
94.9144447384324
94.8361069502417
94.9591937165156
95.115404109203
95.1475791199022
95.1333091258575
95.084226981212
95.0602105121925
95.1281061311445
95.1325624360344
95.0296111716389
94.9920943678348
94.9959415544883
94.9494911335403
94.9127358910664
94.9617939984921
95.0920599758204
95.1064275845715
95.0137145224512
95.0113500281978
95.0466590472116
94.9985088782779
95.1044384044459
95.079142769562
94.9802500481792
94.9608513640618
94.9645064002824
95.0454254893238
95.1592101426922
95.1904894862608
95.2047193442615
95.1424837331204
95.1068923816739
95.1039930633401
95.0646653098978
95.012265696444
95.0193372925597
95.0715482895167
95.2156336597695
95.1938953363973
95.2234395767571
95.1874259357964
95.1447343347801
95.1514334279332
95.0732939350768
95.0874783855344
95.1624712819978
95.0350807125308
95.0591643099437
95.1415464346112
95.1184415228754
95.1041540176776
95.1783697807698
95.1895105185754
95.1530111547942
94.9080283225694
94.9219279756493
95.1525949074163
95.2975458915145
95.3952130962868
95.3626975322163
95.0346500876224
94.884895876071
95.0131917006651
95.240734296891
95.4003957776321
95.4347959136973
95.3195199502162
95.2658443934439
95.1812479191798
95.0199018857382
94.9961548528629
95.163849380192
95.113269643685
95.0916443848744
95.2971983269453
95.4236237828544
95.3226018102381
95.1890953816504
95.2135283429853
95.280404234441
95.0904389178908
95.0422199164253
95.1102538255134
95.2451866906251
95.4023727337349
95.4309675853485
95.3414226365184
95.2398367822951
95.0794750691538
95.082053574017
95.064979269058
95.0145622807011
95.1053769572805
95.2296233109794
95.2511968970009
95.2878923896864
95.2942289578275
95.293478282664
95.2839241542113
95.2472002071453
95.1830550720945
95.2134677943408
95.2860944812204
95.4521756109555
95.5275054817676
95.4289898932477
95.3128856355148
95.3233180507944
95.3333131014256
95.2406137761881
95.1405481110426
95.294182979963
95.4221184253053
95.4739985611103
95.5125930847262
95.5520671582779
95.4990923914185
95.5795318522707
95.3505134817293
95.1479215428369
95.2506050011619
95.4742615736419
95.4261093743234
95.1367664299096
95.0600070288238
95.2404774463247
95.3409902585396
95.3592828234028
95.3896792371433
95.5143682674028
95.4630273844583
95.4451930485494
95.4685966747807
95.4963204892953
95.5776807136458
95.5966411766295
95.4348916560253
95.3650973945506
95.42846795355
95.4582383681421
95.414129527588
95.3440473666224
95.3341694872094
95.4154643041876
95.5267773438889
95.5340804201338
95.5025771334885
95.5985682571217
95.4543039041199
95.2606965597576
95.3083915813242
95.4139281410874
95.5662916366016
95.6733041623757
95.5961160892157
95.6333115456976
95.5058917940887
95.3118826692302
95.202726605805
95.0904200804333
95.0536831127897
95.1367450199142
95.2651128500221
95.4124768426574
95.4016906697089
95.3722747439981
95.3495233314012
95.3924738814563
95.319029392238
95.0935761727207
95.0354837065708
94.98820801524
94.9723784462682
95.0817568761522
95.1054913363226
95.0449007861042
94.9220511350752
94.999878111934
94.9971592741448
94.8537302625877
94.6538580125039
94.5179418555753
94.6420340388374
94.7602550205739
94.6867644157267
94.673671339697
94.5734757560004
94.5100932945009
94.5699153100732
94.468068173208
94.4507236326257
94.4695598123591
94.1971815281718
94.119561841428
94.2331286184925
94.3583251914889
94.2643347506303
94.1188041907574
94.0643426299464
94.0836867354905
93.9833233695599
94.1011762989294
94.0756608385359
93.8398742775478
93.775447050077
93.7523010724492
93.6741387018255
93.6135796386779
93.659346115213
93.7479049695617
93.6192595975641
93.5446553526657
93.4935114642673
93.3689457930868
93.2064559919682
93.2060003965125
93.1735790994438
93.1880550788716
93.1650187908024
93.0727869936361
93.047454363939
93.0654823423872
93.0338845077508
93.0466245252583
92.9057145356809
92.7999216110363
92.5755821602963
92.4780275582643
92.6184748694826
92.7075027491079
92.6826423467013
92.5826847441069
92.4926890824418
92.4309405275058
92.3582988722282
92.3030522422174
92.2513841532374
92.2075360271103
92.1389383542216
92.0768024705029
92.109664929144
92.0957700578054
91.9307285255348
91.8665295211811
91.8540673092545
91.8709697552913
91.7223674177625
91.6615312459347
91.5296510127981
91.4988082177575
91.5069752057243
91.4158569960002
91.3476541119864
91.3960297833269
91.434089568863
91.4377721845957
91.2681517704044
91.1406692480182
91.1653061592277
91.0981974334429
90.9606703004895
90.9544707253341
90.944052504833
90.9030090440556
90.8397330324434
90.8236050585565
90.674764736871
90.6414717314525
90.6399118842037
90.6449242772559
90.5560394590588
90.5054257205269
90.4710816368029
90.4766241424482
90.5169318487383
90.4908168667383
90.3363997409341
90.2857478928248
90.1941142451536
90.1307642309238
90.0945089753049
90.1018755152737
90.1164544790114
90.096697788438
89.9876456685218
89.919605580558
89.9318595898982
89.9150599471439
89.9118442087205
89.8916737441981
89.7662979188513
89.6874748782531
89.6340763601502
89.6283233053392
89.6269581728658
89.5069033016659
89.4107347836195
89.4897263090213
89.4426545518619
89.3913614582387
89.4402198379751
89.3187444632798
89.2083678949008
89.3451386863738
89.3011944690879
89.1043453974232
89.1029855642338
89.222608038894
89.2070392224499
89.1081156188607
89.0079082496139
88.9619758988202
88.8960348877992
88.9087555875795
88.8777239481901
88.8355564605471
88.7670124480871
88.8416561821921
88.8329416847962
88.7097662711099
88.6674377224818
88.7075342395807
88.7012462307069
88.6709334135218
88.6541772608201
88.6298823788625
88.5204924165562
88.4885989283911
88.547287672761
88.5172598235461
88.4128406791227
88.3928126937586
88.3581475198382
88.4194806548942
88.4569275848594
88.4465255771711
88.3751451076497
88.2869124169393
88.2286957149537
88.2528730348254
88.2482345823724
88.3054803373673
88.339376986813
88.2123921977312
88.1508285920067
88.1759773223509
88.2269981054068
88.2393752796194
88.1855864907684
88.1917662519589
88.1320041247595
88.0485093102799
88.0341143810275
88.0445373797804
88.0078788208099
88.0144257778251
88.0205632067014
88.106046670763
88.1254400822695
88.0234177056019
87.9056678739297
87.9957845439376
87.9054453791743
87.8076373653365
87.8029956197678
87.8253761886401
87.8392547108537
87.8260295266563
87.7144802359345
87.6861725348398
87.7238695176115
87.7676006661351
87.8092513661864
87.8687746021378
87.8014974801056
87.7906349047605
87.7744090283166
87.7277755319575
87.6872511123837
87.7286875574656
87.738525509337
87.7757742325021
87.8058946628497
87.8368314741095
87.8181752975148
87.8524716005224
87.8940520814363
87.8428517335145
87.7217683140597
87.7897893399589
87.8228009683621
87.8130225632206
87.7326171869234
87.7019307273957
87.6991571900736
87.8011011232288
87.8576939967858
87.8874696292684
87.8643064232954
87.7998781771278
87.7405428092687
87.7521554571387
87.779896265157
87.8338164099715
87.841768818355
87.8959630112611
87.8570726851005
87.839299604186
87.9001349597456
88.0465961081311
87.9936123341225
87.8530172946561
87.820928884217
87.9376050396698
87.9512004356837
87.9659689777449
88.0105043603511
88.0119414047183
87.9928590954444
88.0294171367095
88.0387763859363
88.0645484763761
88.0865524270303
88.0251017441221
88.0005824291506
88.0896560892477
88.1320146142325
88.1540803670227
88.1438100229971
88.1733067142156
88.2470595375907
88.2987385219233
88.2897213103293
88.3266636209302
88.3698287256722
88.4754604091569
88.4786764543321
88.4696898683716
88.4539312031532
88.4596922615117
88.4259872829746
88.5138333018057
88.6148716080129
88.6941803413406
88.6684577985641
88.6099889754987
88.5624778826077
88.6167008065557
88.6808409288202
88.7698440285435
88.7792435295056
88.7909297427168
88.8161720087204
88.8840875727868
88.9612824991942
89.0460557288375
88.9902836241825
88.9204076323298
88.9043155049574
88.9636207474695
88.9741816681374
88.9910848337926
89.0418880969791
89.0318560900702
88.9501953185173
88.9871154442922
89.0355421700142
89.0107091239719
89.0495289915563
89.0788903811326
89.0876253578011
89.1379113165048
89.1433426444979
89.1803343582329
89.2608328771851
89.3639091733636
89.3557461013153
89.3773787782346
89.3415773059021
89.3050180809276
89.2968358675833
89.3584934960336
89.3617008786313
89.3575499995368
89.3721398774143
89.3757534279237
89.4034647167078
89.4108215213955
89.3725350428241
89.4246403651767
89.5426622464836
89.620469887023
89.631468744343
89.685577305085
89.6995935157006
89.7384588916545
89.8399772401995
89.8397982369289
89.766256195063
89.8200603984425
89.8463168705031
89.8846872519571
89.8771119052296
89.8162917755132
89.7914159325589
89.838898408011
89.8481865515078
89.8840726221161
89.899426465714
89.9957593594573
90.1152603408725
90.1644768131373
90.0435081838964
90.0311750795146
90.106720554599
90.1398912145896
90.1396183700249
90.16089031832
90.1767580700332
90.1374887221679
90.0739262522036
90.1294583811761
90.1274686858231
90.0676260279316
90.0278378933235
90.0373894381912
89.9724655591056
89.9651712981888
90.0404608711239
90.0339909908188
89.9111509375958
89.8653680508568
89.8330149829087
89.7783203244539
89.6997116833594
89.6323616011733
89.594737293703
89.6196715406662
89.6247317277733
89.5053223504721
89.410131622768
89.4479761566569
89.3742402471776
89.2979134748866
89.3317799632447
89.4155135944981
89.3619219833558
89.2565256842518
89.1961776273875
89.176499897508
89.1451683267971
89.1061301500033
89.0536213715471
88.9565325090091
88.8593423727144
88.880093199486
88.8988727828974
88.9239872054277
88.9493360435585
88.964568634926
88.9515531886995
88.9384956930268
88.9657878309607
89.0424090172525
89.108319787466
89.1544772865202
89.1375292242228
89.1692941127628
89.2082662927795
89.2387468189037
89.2384383754272
89.3151513386627
89.3905646868345
89.4076185959516
89.4206101985249
89.4460416473157
89.4759716831574
89.5212827757531
89.5176935210649
89.5216675560499
89.5460300622112
89.5668959684973
89.522244270884
89.5178718030026
89.5440931270792
89.5626405779563
89.529661401665
89.5478546185274
89.5993627343886
89.6169462997933
89.6145136121784
89.6330546415535
89.7154267610412
89.8411296595662
89.8646009762221
89.8491202799627
89.8800537462468
89.8710716022854
89.8655856386165
89.9394664344442
90.0356497694949
90.0592614973189
90.0305551983685
90.1052769180558
90.1695526593739
90.2325484649606
90.2700731389733
90.3057932715915
90.3489255972985
90.3991050088393
90.4376285365643
90.4582118621064
90.4677272474422
90.4914369657711
90.5403917683969
90.6346672845154
90.6815976769649
90.6503795664457
90.6290104611547
90.6651255183568
90.6949549416781
90.6747858412249
90.7018066235579
90.7877072949739
90.7898564187447
90.7905276082273
90.8506712061431
90.875574036619
90.8584266402445
90.9050173148209
90.9793055309885
91.0329739248169
91.0546245746482
91.0620868448265
91.0316987133733
91.0823113157568
91.1181306328821
91.1289472230611
91.1001671152515
91.1651716138493
91.2059963043139
91.2012437589631
91.2051582811975
91.2266053919649
91.2319736323497
91.2184818454263
91.2167111882007
91.2510849992876
91.2817075408488
91.2976963423365
91.282498361242
91.3174006038616
91.3572232116449
91.4029518029658
91.4723178718846
91.4651994410327
91.4042319371364
91.3892497637431
91.427029376467
91.4596282525133
91.4348421336246
91.4151261694724
91.42863116107
91.4712502506901
91.5219887136927
91.5346525600186
91.5215949605328
91.5262439591153
91.5415918182277
91.596330089596
91.6203760636613
91.6447636725063
91.6470951180163
91.611424664705
91.6002724550854
91.6061054529707
91.6224980294065
91.6717959481118
91.7052875865177
91.7418421052377
91.7809451913135
91.7674760647075
91.7388834903886
91.7703229067626
91.784540220958
91.7894241391411
91.8024269116468
91.818777282416
91.787463851511
91.806322524251
91.8609761705571
91.8331792869164
91.8414288699955
91.922022392053
91.9223740514243
91.9230321652834
91.9275099532608
91.9347958449937
91.9156322198669
91.9010795004863
91.8840825609256
91.915223484854
91.9442207421203
91.9451454957247
91.9393161696569
91.9430491183476
91.9697547282399
91.9996007024195
92.0600265415524
92.1250143995811
92.1644775502559
92.1620403287301
92.1878366426714
92.2101590241316
92.2028078946204
92.223073797549
92.2043862727941
92.197421940907
92.2370703808605
92.3290832535936
92.3696897953215
92.3946323558171
92.4694351815818
92.480364207911
92.4175781057606
92.4450656302949
92.5385429475613
92.6007462091572
92.5633782502233
92.5211595820456
92.5226730307126
92.5720940218293
92.6208880391952
92.626564572504
92.624796654911
92.6180087969145
92.6564744177265
92.6969435798469
92.7289827418144
92.7261659076195
92.7239006284604
92.7223834503796
92.7795489379227
92.8735901219406
92.7987719769632
92.7388044505126
92.8245330503471
92.9123062589292
92.8834759324513
92.9581794234201
92.9969642687244
93.0008669079333
92.9491185395002
92.9365261569445
92.9935220780973
93.0318415450686
93.0015766148471
93.0171841238579
92.9781321174508
92.939725876041
93.0444083329521
93.1230870887989
93.1168195100422
93.0939779954322
93.0732871061981
93.1120883822284
93.106065146729
93.1129724972124
93.142042776322
93.1143322411193
93.113004209864
93.1800513219168
93.2284842508111
93.2283920366131
93.1909956960978
93.1565842451632
93.2215454474886
93.269886154938
93.2280304242805
93.2004777275668
93.2372088977777
93.2461031169298
93.22159858202
93.2050196589124
93.1971716018656
93.2593747854445
93.3218148752013
93.3057555060231
93.3483959094945
93.3433615533089
93.3576306572092
93.3080470391454
93.2017459159793
93.1844054625949
93.2972956200819
93.3454990649976
93.2710743400979
93.287509036649
93.3887769276254
93.4200387371937
93.3792335966505
93.4095545054538
93.4408635734908
93.4465983419177
93.4531695761449
93.4471954580457
93.3781104212566
93.4070603359717
93.435299068453
93.4167368826059
93.4052498393765
93.4000833197433
93.4040835445667
93.3767649281074
93.3392005779377
93.4587691586309
93.5586092017343
93.5767942361686
93.5560269165029
93.535359715387
93.5189236032659
93.5325588727678
93.5218475510323
93.5349869061769
93.6142208391514
93.5974536915928
93.5708526822489
93.6264574643163
93.6684554498516
93.678599008371
93.631482959619
93.6230240296762
93.6425586160096
93.6001623953658
93.5652821643941
93.5462731497815
93.5888067481426
93.6313476972555
93.6421818923496
93.6772959664197
93.6086248783979
93.5332473579037
93.5258484445162
93.4805908139121
93.4252866611888
93.461924099299
93.5264892915338
93.5168608680971
93.5066763275131
93.5967971232031
93.6221173074796
93.5876095392069
93.6189284059247
93.589548677223
93.5726950050402
93.6914701684359
93.7912483985134
93.8644208918078
93.91683579363
93.8781221734657
93.8529288151277
93.7891491271813
93.6321863991818
93.5575957333196
93.5483556038561
93.5198640212134
93.5068992900207
93.5736001240938
93.618715068286
93.5992404813599
93.5682860113518
93.5549245010621
93.5815297740103
93.5943739115895
93.6097454020988
93.6128621573005
93.6338635495828
93.6002747989202
93.5460583237022
93.4897262963795
93.305382298961
93.2474656515873
93.4091582326731
93.475577172162
93.4152631316441
93.3985135761649
93.4528231368645
93.5395281608884
93.605873303225
93.5622855498871
93.4854337093229
93.4808199633165
93.598270999163
93.7120275182863
93.6647207578603
93.6511864312988
93.6293851581217
93.6012009394022
93.637343281112
93.6715237550961
93.635174100856
93.6384839425395
93.7211034278828
93.7565808901954
93.8665167483291
94.031483953277
94.1107052755921
93.9764863055593
93.9398039281015
94.0404213625474
94.1876861540593
94.3430834672842
94.446722451587
94.6327787880487
94.5851357143656
94.4017268268006
94.3680183491992
94.5007526945429
94.7540761817192
94.809774853157
94.7025423995222
94.8642710621461
94.9297973222992
94.8816105433396
95.0147654732872
95.0643293100378
95.1699064787712
95.278705534891
95.0906392094623
95.1211487998445
95.40733305547
95.4564856517828
95.2995697316687
95.2429302087929
95.2662159997532
95.1078796132847
95.3041398977332
95.6600932495861
95.7739863121398
95.5914490864528
95.5582061318519
95.671794575903
95.9643922933849
95.9843702033675
95.691526302554
95.8775044636269
96.0341463436042
95.992216821433
96.2988253647266
96.4246747608911
96.3803798697401
96.4219967880054
96.5661604952895
96.7832116113593
96.760537182682
96.6824166971022
96.9090293281625
97.1728345869806
96.9589622653962
96.8397651911332
96.9878505155189
96.9442937400179
97.0162001602105
97.1166440315925
97.3699956638632
97.7680106717827
98.1146312547937
98.0120887565337
98.0387625377947
98.67819938126
99.1482481353242
98.7973291535664
98.044001502369
97.5195300456746
97.449167452548
97.5600535304519
97.2038917198758
96.8271401302005
96.7334298992947
96.8035399570203
96.7515653937107
96.5952544661368
96.3753134741885
96.1934131432522
96.2931353790245
96.1753748516715
95.9533091534973
95.7439718461943
95.5775230603465
95.5504453945483
95.6957840043686
95.6005382482659
95.3352378873919
95.409349480852
95.6111584183936
95.6301015671566
95.6542678534219
95.5789648159116
95.4550962416478
95.5170450401863
95.6272636013811
95.7118506108987
95.8254283426158
95.7676891891498
95.6849362931739
95.6834577923615
95.6664774959165
95.7837533947489
95.7577424761258
95.7585522214616
95.9030137903894
95.9186945060911
95.8996753162106
95.9928231866889
95.9485030966215
95.849850861938
95.9521881262517
96.0716477714529
96.122086750265
96.2127015677541
96.3899693586125
96.4941936965568
96.6427974535659
96.9029730457118
96.7105720337248
96.5134422273821
96.7917501432619
97.077685045506
97.2919910855848
97.6187906794523
97.8341767605912
97.9940719563473
97.8753398030858
97.6387505287672
97.9310295985233
98.3205090578566
98.3637475857138
98.4552586864459
98.4730849004363
98.3516911414037
98.5087039425555
98.3484722308788
98.3717676895326
98.4939162445604
98.4695871334874
98.5134263920458
98.2046789228258
97.8997975078171
97.9017375672098
97.9864353221594
98.3142705254936
98.6805894334234
98.3664668839161
97.9958931605634
97.7204842706653
97.3144319586072
97.2093485581408
97.4938960584113
97.5622722146661
97.5571315666134
97.8408246456696
97.8288209462539
97.6258975107101
97.651236634617
97.7800064406671
97.9643094677653
98.2463470389463
98.6766663788966
98.9873681453097
98.8356575312585
98.757873256075
98.6135350204496
98.4509232687407
98.2228365551778
98.0572142144371
98.1345430769634
98.1043154791041
97.8368669459394
97.455448717565
97.3206742642465
97.332106440933
97.1473162496383
96.9598615095563
96.8668853296057
96.926804011517
97.1004674881672
96.9497858578864
96.7164725354173
96.6516348243543
96.5794421299496
96.5500435239601
96.5732764713164
96.4822865962166
96.3123561036872
96.2036121919115
96.2534966544258
96.406094999332
96.4003561403155
96.3163987824334
96.27574798378
96.2470982608298
96.2341968870738
96.2151610371328
96.1305122490856
96.1055485690688
96.028543123569
95.9810186962538
95.9899279519295
95.9773220092143
95.9947981481149
96.0274965422907
96.0752038465562
96.0282777751061
95.9298985913287
95.9006698719294
95.8673341495387
95.8181256555743
95.823258595797
95.9080138090442
95.948538945722
95.8064454590479
95.7332489393584
95.7440020357947
95.6881853404052
95.6820558328079
95.685282447579
95.6662796678016
95.7126035915322
95.7080133562317
95.6627532181868
95.635231378109
95.5627755598822
95.5271494011922
95.5535854841657
95.6008428156878
95.6756060317014
95.6522227828838
95.6196439204102
95.70353911221
95.7436759304869
95.6802459275913
95.6279428032902
95.6869992740107
95.732799789124
95.6877561604264
95.6556126182504
95.7163619696377
95.6865130102299
95.6685665154601
95.6328054836564
95.554959959806
95.5770671133769
95.643162576152
95.6780049167652
95.6623148630324
95.6281355843522
95.6186815351792
95.5966145517628
95.5888732543738
95.5940694178329
95.5977211720961
95.5796764823478
95.5722494900443
95.5866565890687
95.5770489386413
95.6005114841556
95.6906675012245
95.6495037232113
95.5411217397383
95.516431031492
95.5482925325327
95.5686335204958
95.5499579474828
95.5032383821283
95.4852118641711
95.4799339384386
95.4443643855768
95.4238529118285
95.4167386135274
95.408941157081
95.3490268834591
95.2395245325732
95.2215920815182
95.2291885149601
95.1876494963559
95.1356359555658
95.0833839132061
95.0670395408262
95.018663069735
94.9218697641524
94.8388964931524
94.8240632055665
94.7908153512671
94.6734512482035
94.6070230186349
94.5367546870966
94.4834219825085
94.4515417264044
94.3757705216805
94.2469470905446
94.109207025991
93.9343803062762
93.8148042738049
93.7320866337015
93.6360524039074
93.5045277863199
93.3196402985216
93.1057088997731
92.9336041854822
92.7532230638867
92.5399848020403
92.341734798926
92.1248118950927
91.8831658745497
91.7069904737434
91.5073047263748
91.1161807688111
90.8670793499266
90.5168294798795
90.1896404846147
89.9528023221425
89.6190271855229
89.3054892102051
89.0716514619133
88.6864451263536
88.2950129505511
88.0469646225015
87.7146838549751
87.421113794562
87.0220846948796
86.6882151985626
86.410969821196
85.9736044568379
85.6221546160945
85.4356044769896
85.1277876469773
84.7407769535761
84.5209699809973
84.3271008355779
84.1383354677437
83.9254398586303
83.3730734420027
83.2487423904679
83.2553291705457
82.9555004317852
82.6189483161174
82.5390470973024
82.4643747886446
82.3195429167666
82.1450607979539
81.8832291493714
81.7028288716479
81.7254655109803
81.648294188366
81.4671032275969
81.3170568682586
81.2408016740016
81.1245509472521
81.0656380949983
80.9843101379679
80.7391423362029
80.5426858033955
80.5379119672598
80.3891238248905
80.2010025289068
80.0421681884193
79.921560746442
79.7715137694752
79.6109542494819
79.5071378717525
79.396659210135
79.2534588615372
79.1087197384583
79.0080814303536
78.9361498354082
78.8295383156359
78.7437844628897
78.666384085643
78.5585550926259
78.4439180762884
78.3218023241572
78.1867747882088
77.921985414457
77.8742254541934
77.9357910710267
77.757716728993
77.5323649545055
77.5609955331779
77.5443670458512
77.5546225048039
77.5545781585171
77.1547599872055
77.2404004204171
77.7498230608642
77.8700903401671
77.9843894897874
78.0879577302205
78.2502407367748
78.4568311395107
78.5339395622785
78.7192547378395
78.8646642435297
79.2472302648982
79.8132675051743
79.9827464997609
79.9485606560353
80.3325284384262
80.6281535871539
80.7279783850765
80.8753391509324
81.1257232399782
81.2640773912002
81.5635632413239
81.8933628192113
81.9737159114117
82.2321717449948
82.4706472858969
82.5996528605152
82.6508212820023
82.5751693333977
83.1641768752919
83.7696201590884
83.9182077825488
83.9046805208972
83.949925184896
84.2296617698529
84.6390597520507
84.8046349049673
84.7909346642448
84.9947782130247
85.3297335144667
85.5538180672057
85.6386916677859
85.6846182747032
85.7775995361574
85.7848073863304
85.7126018383298
85.5707081746087
85.4796215807091
85.5578944294952
85.4207782450723
85.1260786501685
84.869610723476
84.7962738587165
84.6563973107443
84.3502824886147
83.9952092683692
84.0372742109139
84.0940564953154
83.9743361332903
83.8332729156495
83.7142946053887
83.7363470840297
83.7716697704268
83.7486865614326
83.7243793322065
83.6548470249414
83.5157478071379
83.6239668646664
83.6634825979035
83.5119158579352
83.3582133763374
83.2283645351431
83.0334675329037
82.7577130779587
82.526358810579
82.1481775177749
81.7664206660941
81.5827990357487
81.2823628656044
80.8939792567642
80.518470964602
80.1814743767065
79.8329528426038
79.4815658018176
79.2515149977403
79.0929531818992
78.8670431554974
78.7651460890999
78.7055596578668
78.6665868837221
78.7531200473327
78.7443806920078
78.6745694388739
78.7168621428662
78.8651662671543
78.9450355230803
79.013393198127
79.0908684017047
79.1625288928841
79.2370373114139
79.360296777107
79.5660976454727
79.7005835575706
79.8348250818616
80.0137803298258
80.1295286614873
80.2865243678288
80.5605878182675
80.7569743472381
80.873167383816
81.018276512223
81.1880779166528
81.3088004232376
81.4235424904252
81.5597290054755
81.6883407492258
81.8174556488198
81.9100420660477
81.9900854452362
82.1509274545655
82.3316935938528
82.4471272105166
82.5051287535721
82.5644354854724
82.6042302250407
82.6367245124419
82.6706121073151
82.7095506108722
82.7343529293277
82.7372810643107
82.7253373996082
82.7150110629896
82.7087519917055
82.7247085771092
82.758839764338
82.7852451348067
82.7982366495966
82.8336143453457
82.8925601435459
82.9560454848403
83.0234011942867
83.1031142570589
83.1841272596031
83.2831951026657
83.3637049769163
83.4209573671706
83.5055099422111
83.5822777430992
83.6104518553311
83.6339714566312
83.6664945022349
83.6940950404039
83.7036627888007
83.7039953792198
83.7029440149456
83.6905771766695
83.6770688291467
83.66188184694
83.6269133269105
83.5906688168887
83.5420393039528
83.4936927757769
83.4511563378267
83.4298736496223
83.4356197206449
83.4135616860752
83.3510650934193
83.2899641791538
83.2459750976657
83.2294939665832
83.2139746329468
83.2004141842821
83.1569848150424
83.1169374248296
83.1031647292094
83.0950662940125
83.1242681689648
83.1606250920367
83.1813013191568
83.2145672337052
83.2583969435458
83.3266050738238
83.4001660329547
83.4712863184503
83.5536089568258
83.6444391300713
83.7484425110204
83.8508931796437
83.9595317365148
84.0673248906725
84.1868217210462
84.3306306942676
84.4558753900762
84.5791680549739
84.7017136133483
84.8235972157593
84.9393828329755
85.0430995587844
85.1338124082423
85.2095779373466
85.2671286888745
85.3197495754348
85.3412481604519
85.3233965176857
85.3158401397905
85.2825418443248
85.2325898413789
85.1835699150525
85.0889918627148
84.9827873450752
84.9204539864015
84.8492427137367
84.7503687900323
84.6360140248017
84.5340474708785
84.4362129932641
84.3066898322702
84.1627704269287
84.0281046905009
83.911766881262
83.7726535686712
83.6166642414894
83.4939463241201
83.3582171864212
83.1972887528386
83.0376224491146
82.8455763532039
82.6340291775629
82.3929620844595
82.1639127942306
81.9620420703389
81.7747399665397
81.6090387826391
81.4425777400608
81.2794540078953
81.1743854775457
81.0780853614195
80.9732176596766
80.8791873333708
80.7850620194868
80.6773133466366
80.5743035250895
80.4310907304002
80.2226337400016
80.0011375310893
79.7801698037407
79.5512103721191
79.2989096789076
79.0577249780558
78.8215130863459
78.5464182265208
78.2853359153492
78.0534957146784
77.799106102864
77.5434506724467
77.3142260785286
77.0822297435641
76.8567080793569
76.6438056644297
76.4232878485931
76.2017145420462
75.9948779203963
75.7943456486359
75.5820551402549
75.3736145151364
75.1467073041822
74.9567093636769
74.8061275006284
74.6163933778378
74.4209219523798
74.2637418300145
74.1362193831438
74.0070259427466
73.9002309355415
73.799730551462
73.7029392628696
73.6270614706223
73.5512188417602
73.4957481427601
73.4374370568048
73.3586041447129
73.304826387213
73.2870332203274
73.2901059178269
73.3186200632335
73.3811996799517
73.4527461032663
73.5319405295556
73.6412865494314
73.785648310925
73.9603170849434
74.1586731197675
74.3619455354706
74.5866834814525
74.839606693939
75.1246995292773
75.425181524928
75.7115878958553
75.9669227466962
76.2081918741146
76.4370589325541
76.6752087705083
76.9333597133004
77.1510192558445
77.3108130670944
77.4588306601617
77.6203065557926
77.7536787934209
77.8579042689948
77.9702570245884
78.07279877575
78.1428309125206
78.2256778374544
78.3620363336899
78.4999734574677
78.6464668796688
78.8188944646857
79.0028616005611
79.1655733055998
79.3735680546071
79.5823097989291
79.781499338628
79.966201747908
80.1488999341691
80.3531432619769
80.5375873573035
80.7339419626159
80.9366306952197
81.114490071808
81.2867912083601
81.4458500619184
81.6114913390198
81.7764406639265
81.9186571952515
82.0232449944767
82.1247113638317
82.2413365871129
82.3479969684837
82.4492210302904
82.5229316364963
82.557560295339
82.6160683474468
82.6841863075569
82.720632884094
82.7504870473967
82.780742616524
82.8476056234393
82.9497411575069
83.0280799226944
83.127570686105
83.2147250393398
83.2958172742972
83.348989454406
83.3781241483887
83.4157653592896
83.4346859596847
83.4588884941142
83.4770593514933
83.4874591130987
83.5442100346917
83.5939531908461
83.6333275986035
83.6518486003708
83.6600000563845
83.65264791455
83.6398412758658
83.6745622070805
83.741990728771
83.7356183732502
83.7286758417332
83.7332296020493
83.7370999873058
83.7276855489249
83.7509278418284
83.7450179750257
83.7173581742704
83.6790873218177
83.6993842778437
83.6849932626663
83.6173665264232
83.5369347168501
83.4835731391492
83.4465139851252
83.3646252195741
83.2203266397886
83.1070088003069
83.0342104704436
82.9694367550891
82.9088470065887
82.9276229336916
82.8950058756988
82.8125471644766
82.8070414319681
82.8007621007589
82.7209595330079
82.6506206629304
82.6210753507859
82.5688060580925
82.4711671505367
82.4005884275847
82.2966655445629
82.1662542401696
82.0978279966349
82.0595461381199
82.0109476551416
81.964253343073
81.9070408210381
81.8930464795341
81.8692332621909
81.7896379889875
81.7339692871938
81.7164798470995
81.6665061388998
81.5588539083164
81.4693605427706
81.424931040499
81.3406013973495
81.3302671730627
81.3132423260526
81.2779688383731
81.2542029163387
81.256839650434
81.2562923829568
81.1990977498664
81.1298329816209
81.0945866267607
81.0354586692767
80.9873109610804
80.9491956094533
80.8987650579805
80.8479364197794
80.7768013074166
80.7300498537284
80.6992394767003
80.6296373026131
80.6018022685478
80.5339077993135
80.4329570287942
80.3833489694887
80.3379541467088
80.2967742716275
80.2334318572985
80.1299426511193
80.0790938621225
80.0483163711368
79.9943177177728
79.8713872725844
79.7642478267978
79.6951740827766
79.5918505596364
79.4787888235014
79.4133395955045
79.3355463323651
79.2022468144106
79.0513151171746
78.9676768965379
78.8750618042421
78.7290992476923
78.5689108734714
78.4497821041617
78.3530925910305
78.2622177572838
78.1056132237381
78.0213135651979
77.9925838627365
77.9989301810861
77.967965160596
77.8669333015403
77.7996485573561
77.7257876425164
77.6770850324227
77.6393523205721
77.5339937600756
77.4629822411885
77.3687548906004
77.2871916929843
77.21441986146
77.1461965915809
77.0361893311091
77.008900637588
76.9354634515405
76.7447963827655
76.6323531640146
76.620468719751
76.5486589558868
76.4846297700324
76.4282224719347
76.32163063163
76.1704338557221
