1798
3999.43349933624
650.420452594757
1
128
4
93.4316487703455
93.3659733979792
93.4425759862742
93.5315019625748
93.5299975832299
93.5571494056126
93.574414342922
93.6316370414773
93.5243382089507
93.5254910488192
93.5804443840391
93.6164113650835
93.5594098671016
93.5267526682603
93.5330924707411
93.5584417540517
93.4952058902311
93.5036169301557
93.4540251093536
93.3747343235731
93.4256865191466
93.5214638957366
93.5160399560191
93.569836212951
93.6106357263383
93.6022335022127
93.5436439915855
93.5132658145012
93.4635571734486
93.5510927857516
93.5654497710153
93.5629376021644
93.6336981629939
93.6308535128044
93.5335781128992
93.5308575264975
93.5555750854594
93.5513881685691
93.5542360653973
93.694507802967
93.6347185245785
93.6223889404662
93.7120660619932
93.7483162416691
93.7479187424805
93.7497469897284
93.7319724236144
93.7466160658952
93.7229032573301
93.6669165183414
93.6151077018594
93.6756324862519
93.5780399000446
93.4844927232774
93.5633576811886
93.6908702328397
93.7495811455084
93.7904884346686
93.7489993123229
93.6993281987758
93.7304243963132
93.7694665054649
93.7633104796045
93.8326258153355
93.7804247543752
93.7314323962426
93.7326068707868
93.8181895890187
93.7444401313433
93.733482968808
93.8052383639783
93.7556274810623
93.7392135468557
93.8184000435095
93.7664391286637
93.7707779357187
93.7701120385662
93.7482110324237
93.6280739307857
93.7107063697769
93.8329869467357
93.9244036130139
93.9756225114555
93.9847854295808
93.9397539400857
93.954644169681
93.8667779569751
93.7599131458974
93.706745938432
93.783081847302
93.8098392717222
93.8392037641115
93.7957510759947
93.8289807805403
93.9187398867558
93.8910055987912
93.8994890032714
94.0775031981376
93.9367541051563
93.78316923633
93.7927671095884
93.9529900375055
94.0052411177911
93.9662350764971
93.9254004879827
93.8904385174211
93.9675096330388
93.9562867887687
93.9024344945744
93.938328950466
93.9472740987686
94.0449858842119
94.0818331304106
94.0611436946927
93.93458868814
93.9168077823635
93.9840855543756
94.0141072547352
93.9871166993177
94.0355728595547
94.0424037638088
94.0823920677652
94.1439423840918
94.1195321054265
93.913585003096
93.8560174722878
93.9312703867932
94.0099469337861
94.0961282074114
94.1579526015895
94.0931548475642
94.1505906836407
94.0709313002274
93.9516557473067
93.9945583444284
94.159802075396
94.2418565065671
94.1565333131775
94.0445837708772
94.0011420053001
93.9019825045745
94.0845484237906
94.1721803515099
94.1406622481662
94.0905549825394
94.1809090123211
94.224189726704
94.2457671121719
94.258672748988
94.4344921225969
94.4836210797384
94.4509798201718
94.3977892842533
94.3906650127392
94.3207128197692
94.2391675543105
94.1655450002026
94.1447241180673
94.1579889447245
94.2763474778293
94.3722306525439
94.2968438021249
94.1980441092809
94.2791722768486
94.276731594375
94.3203410744253
94.2617297641192
94.1840821013148
94.2617695776877
94.4693933097554
94.5010242805258
94.4574408083979
94.3793739014295
94.1633030249615
94.0573945277072
94.1638181138194
94.1160180711754
94.1100042385337
94.1596428272628
94.1780289675284
94.182038355314
94.2225159957211
94.1263312681687
93.9712686283194
93.8724226756118
93.9516452621675
94.0519331407994
93.9635116343765
93.689645293453
93.4560867824177
93.5131597842485
93.7091226119594
93.6926011707296
93.6280912675058
93.5423205846297
93.5222958618122
93.5084876229569
93.4085978385482
93.1254748394298
93.1120440893717
93.1318375168872
93.1372705786142
93.0375530162027
92.8937058180576
92.8376527379048
92.8943144332656
92.8871268707591
92.7789643550847
92.5782331976076
92.4581594023664
92.400661006351
92.4122170984973
92.3070103847209
92.2610051143635
92.1548992381856
92.0967785534863
92.0131031601129
91.9292220240987
91.8877339416261
91.8192766165831
91.782607850768
91.6760545655611
91.4749628621519
91.4261251375438
91.3976768085981
91.4317189106621
91.3718317483808
91.2973080154886
91.3170126341109
91.1598006528594
90.9344912836645
90.8548961732715
90.7637622732052
90.6979299125151
90.6525270315838
90.7429086321517
90.6457159018538
90.5163489852256
90.4309857997397
90.3696760085424
90.2210130616115
90.1892817405241
90.2716855686894
90.1090374341927
89.7819379441254
89.7693825690642
89.846945663194
89.8285005328349
89.6963926803917
89.6285124486422
89.6273172758619
89.6069253169693
89.3738751508426
89.20889586267
89.0556894006588
89.0099081796117
89.0198284189161
89.0937107862911
88.9953295194634
88.8682015399349
88.7792748913468
88.7215847001458
88.6650019433162
88.6426247005964
88.4886247340234
88.4166768470467
88.3456433243492
88.2266735938694
88.1487499578877
88.1584192294057
88.0554332174956
87.9897527011275
87.893983727116
87.7655874886401
87.6994889314628
87.6599125559834
87.578601309488
87.571322976416
87.5134617626903
87.40942380294
87.258599859073
87.2482305683307
87.0852227433876
86.8963875232571
86.8241006664631
86.965529934383
86.9816188987447
86.8545850547835
86.6858584779761
86.6081255001501
86.5866738233483
86.5117369170462
86.3724675812573
86.296144280383
86.2308011092991
86.195545148041
86.1110168935514
86.1228854573104
85.9900943277311
85.9665721068604
85.9556999958938
85.8918132611765
85.706267816291
85.6419787381008
85.6654766507172
85.6456301636415
85.5392631510442
85.4203250815161
85.308548953458
85.317477283784
85.3177562018756
85.240587888878
85.0929166728017
85.1045331949815
85.0427454631732
84.9141988387712
84.833702234511
84.77357559484
84.7691450032147
84.8515734293408
84.7030930520019
84.6275530574783
84.6231986030898
84.5803634474978
84.4479565683272
84.4560871381509
84.4811878898179
84.456710622612
84.3352418463883
84.1929671408702
84.0809940212465
84.1064129768851
84.0968510393972
84.0677565254516
83.9566768789074
83.919537815518
83.9010610669413
84.0067691104464
84.0241456788123
83.9828226327317
83.8747642435664
83.8165196441604
83.7069905504481
83.635134673057
83.5897657559243
83.6335471060986
83.689025879282
83.676640088314
83.5347890851414
83.5118115859732
83.5481479770493
83.4938999095465
83.3258207963581
83.3347385285499
83.3612949378311
83.3231152314366
83.3370767753794
83.3421348388206
83.2662108980094
83.3480693171819
83.3481580613546
83.3433890066192
83.3055145614969
83.2595735375362
83.272670814091
83.2940363696207
83.1659884062366
83.1609195844173
83.1602628391324
83.1751326784752
83.1710048778954
83.1375559479661
83.0680115229424
83.0955506017849
83.1141038629119
83.1640801702367
83.1345290028614
83.1417340128275
83.0900104222505
83.0436218804397
82.9726676832784
82.9386524694159
82.8778414984151
82.9168896597364
82.9859917930775
82.9707927093914
82.968624916045
83.0176775509901
82.9931322292613
82.9659743463642
82.9055528914285
82.9810745980908
83.026696702462
83.0004344021374
82.9222665625029
82.9962730534185
83.0196445233399
82.9214701689013
82.8786416144634
82.989167482707
82.9888559389154
82.918539440708
82.9096044244162
83.0661433281324
83.0793149720685
83.0780135861642
83.0690922765205
83.0802534610684
83.1039972399715
83.1881971466605
83.236561481488
83.2128169236431
83.0855609237329
83.088746374003
83.0998009274032
83.0892876761554
83.0507807874664
83.0766499409568
83.0978351912874
83.2534440476012
83.3439717250195
83.3075071162863
83.213060292087
83.2029629507064
83.244585303071
83.2838262879895
83.2826567087558
83.3706142163068
83.388712543486
83.4803931889519
83.5130210260713
83.4914671586388
83.4755776856716
83.5371031000562
83.5494296832516
83.5893293335901
83.5288880277093
83.5634002656708
83.6571020205968
83.6703360994103
83.6788766659262
83.7822493043951
83.7828271132156
83.8478306797873
83.8924392568952
83.9231349941661
83.9923889101262
84.117514979662
84.1033824939842
84.1300452525899
84.1092029925881
84.1371207203264
84.203679019945
84.2622571303892
84.375848775992
84.5125428189666
84.4684348500948
84.4212016883849
84.4343514452959
84.512774803705
84.5564005655663
84.568460959166
84.5958523477436
84.6907675441759
84.7264688502106
84.8139794440866
84.8234792512128
84.9093046484671
84.9710109111127
84.9446471209985
84.9053590655567
85.0699426023071
85.1993573755888
85.2723047732887
85.2938338692343
85.2688653144308
85.2189680364102
85.3908109105567
85.3968416674642
85.3228130801069
85.4168825253206
85.4699158688847
85.4182530093037
85.5661613012183
85.6273776456488
85.5743677325599
85.5761406913114
85.6053032444452
85.6577564818446
85.6814187463198
85.694295611029
85.8271049950445
85.9004183333104
86.0042778938559
86.0449585541035
86.0380629949399
85.9773211670946
85.9482090018129
86.0020051815619
86.1133816474466
86.083248369216
86.1065176707451
86.1829014810803
86.2203712941826
86.1941553067146
86.1401392683835
86.1896534745448
86.3017180443656
86.2996812849196
86.3789752488169
86.4461973296113
86.5667233639116
86.6400920670968
86.7195079408179
86.7936440052883
86.8584455080465
86.8524553619193
86.792525219084
86.7609769876
86.8208611409474
86.828597351682
86.8989250301906
86.9703867288728
87.0050574475761
87.0148907589724
87.0552676259665
87.0794249084058
87.1278628605194
87.1616842813736
87.1985144865675
87.2525325363913
87.2750585878819
87.2651483159809
87.309396591426
87.3133667466058
87.3486959820266
87.3409520964101
87.3579613528471
87.3587476651184
87.3510598531655
87.3875259626758
87.4112390676741
87.3163508808089
87.2138061719028
87.1655075911645
87.2044603111753
87.1846825811181
87.2278169983899
87.2437927352917
87.2354325344856
87.2105287497644
87.2067661447069
87.1524285237089
87.0594384421771
87.0211856665431
87.0712676479977
87.0863022273023
87.0483918327651
87.0038825130267
86.9940051522818
87.0381323871248
87.055453752691
87.0138537913394
87.0153321536253
87.0077777534927
87.0452075545251
87.0491670011331
87.0108011041548
86.9427698985284
86.8912554211391
86.8551315575584
86.8885547888305
86.8696673318271
86.8631706584622
86.8409140613559
86.8631914603719
86.8900758728906
86.9493409755732
86.9863795289766
87.0457975319327
87.1158389573839
87.1685328203193
87.1714287986286
87.2532502482146
87.3349190802375
87.4196762084648
87.5002926696314
87.536858017067
87.5791333307762
87.615770715482
87.6071095979091
87.6781308128103
87.7909536799622
87.86954107702
87.8629297668656
87.898912482499
87.9215309846513
87.919002382422
87.9241823482225
87.9501370594194
87.9353143853621
87.9624512502354
88.0507509310426
88.131697366742
88.1360242375705
88.1766878200225
88.1877042869732
88.177777426091
88.1747888236149
88.2310336677617
88.2929458161543
88.3302450569865
88.4017159893182
88.4858120544752
88.4899703558013
88.499881554414
88.5106394995538
88.5512147281552
88.6225810646582
88.6302820350218
88.6707993797618
88.7517192187511
88.844453878339
88.9486454382302
88.9688721290151
89.0379573156969
89.1240852691177
89.1414467114442
89.1588120114458
89.195307901402
89.184188976133
89.2141965895006
89.2604651626406
89.3257388386062
89.3333030468656
89.3442904166287
89.3309632142114
89.3572630807549
89.4268720473892
89.4559994288311
89.4840099718115
89.5382824486311
89.5704314432108
89.5978417583202
89.6089871946073
89.633164089277
89.6576129090974
89.6709836359206
89.7075719360816
89.7969064082298
89.841243140627
89.8458685168413
89.8680784900482
89.8720075237517
89.838042927176
89.8603948839543
89.9271084125424
89.9965501281806
90.0026910712945
90.0009018676631
90.0360174368882
90.0420696975065
90.0286249332141
90.0774016587806
90.1239699049442
90.070464172897
90.0192277298463
90.1092872811974
90.175265150832
90.1885725867593
90.1831513484211
90.2078056019276
90.2379840064732
90.2306930707206
90.2428284809634
90.3023345196303
90.3266056456479
90.3275855756935
90.3330933725583
90.3479012630772
90.3456741687186
90.3505897743232
90.4128149431083
90.454432498433
90.4440747966899
90.4880700223326
90.4941321079668
90.490136451008
90.4752189115814
90.5320579201667
90.5725644392996
90.5773627442286
90.6134444799757
90.6609684520757
90.6204271594666
90.5902382617691
90.6130380563312
90.6351449612342
90.6709045406082
90.7078592444856
90.7265498835444
90.7353790209525
90.743773263168
90.7605851662916
90.771874927407
90.768568495697
90.7787319107736
90.8085124193771
90.844816883831
90.9016950169326
90.916831809714
90.894681400547
90.9272262962489
90.9480901955545
90.9532026374934
90.9805835633603
90.9814050738687
90.9988223799865
90.9854673673337
91.0012893667787
91.0048227413256
91.0059733262339
91.0359005873912
91.0740958731293
91.1006737605455
91.0670819001743
91.0514607654212
91.084518764513
91.0798844082623
91.1079271713719
91.1989415655261
91.2599338194866
91.2637682267107
91.3221053333426
91.3479006211107
91.3684159348448
91.3455573259339
91.3353836308867
91.3926275272615
91.4776471988414
91.5129287780997
91.5505583560718
91.6265506325715
91.6209193448615
91.5953451418838
91.5954850186922
91.5649345977061
91.6165512639922
91.664118105115
91.7056730750227
91.7595606562586
91.7388174911621
91.7812074852834
91.8607667033134
91.8331653101107
91.8051038878919
91.8115590744007
91.8348707406853
91.9333389316464
92.0465283939064
92.033651024012
92.0220739484894
92.0862433871841
92.170559185052
92.1222383263076
92.0606558325512
92.0886373679677
92.1164066720726
92.1527920261356
92.1896219886825
92.1476183050516
92.2031804679549
92.2707271950966
92.2534045300218
92.2021467821277
92.2469250832702
92.2865909231176
92.3615154583726
92.3436168661737
92.2719086943001
92.2462283871994
92.2570634183547
92.3392913342997
92.4879091555435
92.5043750816926
92.4555747558056
92.4304738920183
92.4578375969095
92.5269221033273
92.5648187151765
92.485887338183
92.4629273649758
92.5475100748794
92.6226273846439
92.5459295653747
92.5048659574204
92.6316997585322
92.6862453074154
92.6411892354422
92.6012173433178
92.5177383548976
92.4805759095742
92.580796272196
92.6135411234533
92.6624064626487
92.6662269891037
92.5527316642197
92.5161126622142
92.5840392919932
92.6800320096167
92.6633312081674
92.6565239665363
92.6712432538513
92.6251842434481
92.6421248863162
92.7581912099105
92.7787508498465
92.7318832980707
92.7223408067936
92.7674961664573
92.7504931836954
92.7662687601669
92.7699134571131
92.7191798754411
92.7185984312394
92.7664382193637
92.8091656292044
92.8472246601625
92.864633975386
92.8394511672738
92.7800278471576
92.7868228505711
92.7886799494045
92.8320794002564
92.8255822471445
92.8387686078889
92.9013390609613
92.9225958998708
92.9808633002143
92.9910368007049
92.9168868406569
92.8633791593204
92.8997904085566
92.8921183898904
92.8685304945397
92.9823621839132
92.99322757341
92.9521221592549
93.0486873429212
93.0898671879212
93.0088287026571
93.0051630800566
93.0556496110817
92.9834329192185
92.9345809460839
92.9638184615155
92.9468372667372
92.9221499774658
92.9614573431128
93.0522443766807
93.0002311021661
92.9318776164304
92.9240190595696
92.9514963523856
92.957279266304
92.9472116929256
92.9568461696543
92.9970063614925
93.0559795062646
93.019306313798
92.9717713068664
93.0018112916533
93.0541270209856
93.0118197797071
93.0422058363814
93.1589261778849
93.171136394462
93.1874459630101
93.1898629209444
93.2055751788493
93.1503727965142
93.0814923594231
93.0930857898301
93.1600031144051
93.2117040379713
93.1742649291354
93.0487551941645
93.0331188946661
93.1124615266747
93.1230065369841
93.1222402435775
93.0919828063199
93.0742208642938
93.1049295160744
93.0708682255502
93.0396340311306
93.1086268390857
93.0974029664063
93.0182024734544
92.928191405901
92.8957124358166
92.9537462735472
92.9775866360839
93.0199162267579
93.0988141384759
93.1410062367676
93.1418474989663
93.1426276975938
93.1845948225375
93.1655459085201
93.1565848969208
93.1732847245708
93.140947426238
93.2322135517699
93.2699283666295
93.2710281512944
93.2675388518784
93.2641926708964
93.300402463988
93.3147735838077
93.3920391487742
93.5468941736756
93.5849582261822
93.4765454303899
93.5445876608668
93.6931095191869
93.8608860079968
93.8750714127143
93.9287813704138
94.0368087187426
94.0696249742073
94.1101780502546
94.0186589653219
93.9644668803195
94.1321019263306
94.3888187141981
94.4584906504927
94.3324485223097
94.3368023734639
94.4013354818326
94.4363707567626
94.5429961377158
94.5011474092875
94.572134434207
94.6390773298479
94.6288876529077
94.6405877897147
94.6491191539809
94.7781588653816
94.9214782345174
94.8581516411387
94.7982309657079
95.0701606303677
95.3434335755777
95.2621670646864
95.1492601910234
95.2712058235531
95.3581582414329
95.4821628474647
95.6699923499841
95.6295436637578
95.4538609185601
95.3670034271678
95.4058764352902
95.5866212471688
95.5082119198014
95.7076494645101
95.8291054259611
95.4993110734716
95.6459453486026
96.0287038542489
96.0303316452708
95.9231455952526
96.1082054749027
96.310413371082
96.3757642656891
96.5527937628493
96.6458669367653
96.7317583697559
96.7365148723675
96.4787784846588
96.5896533340947
96.7575551915236
96.7300544443206
96.8599893134544
97.2628458647769
97.7980846775719
97.8051297112088
97.6113248261919
97.7176901611148
97.4509771148911
96.852618189937
96.6664819215102
96.6879049605014
96.5452564578847
96.521275456528
96.4672958434651
96.2489860740964
95.8737834674832
95.8533586122035
95.9554998694884
95.6671501938461
95.3906793987774
95.428969248027
95.3205876196686
95.1199132652945
95.0792989233037
95.1567539183893
95.207306246041
95.0207764037329
94.8639576438376
94.817952572309
94.7861710150349
94.8473392660175
94.9800165104907
94.9722420981478
94.937699489874
95.0039202625541
94.9792550159051
94.863168190822
94.9498460296013
95.1343338122325
95.3406160676884
95.319835536717
95.1583561149672
95.0264570420727
95.063401628456
95.1339294139728
95.2474472488064
95.2693239162241
95.2856802638392
95.3303290061938
95.4011297815586
95.4346756096048
95.4056022939307
95.4418677383301
95.5562037181378
95.5772026668082
95.5098204277924
95.4681942112604
95.5861605404044
95.7676228433795
96.0359617886432
96.2036057556068
96.1654672708791
96.3794895308205
96.716187644013
96.8737460070844
96.7792821523325
96.7063454446816
96.8417040985129
97.1418820707312
97.4643612224137
97.5922817596369
97.3593900573826
97.52039564822
97.5383468582655
97.337701504816
97.7487114756574
97.798902523096
97.4498614216083
97.6154905721984
97.57321503253
97.0908530068091
97.3508129225486
97.6497362508491
97.8440025423557
97.6768248524765
97.1572118706217
97.0594490851731
97.180640571449
96.8107331371199
96.7876609965018
97.0308844815116
96.8905324449221
96.6690127975652
96.8444207731872
97.0743134506876
97.0419603989587
96.8585050187469
96.9467232291974
96.8469405673592
96.9372816556742
97.1500288080486
97.4970579305652
97.7295798020722
97.5437571898582
97.2433425235996
97.4480893178943
97.6499082283339
97.3935750225875
96.8775130242861
96.8106652847339
96.8847842017913
96.7967499123689
96.7774090600371
96.8004566668418
96.5469121907584
96.3131582545967
96.2963603822723
96.4679971518335
96.4144500699108
96.2233581498118
96.0769626704505
96.1103856323365
96.0066791501961
95.8291911699281
95.747126729155
95.8456124365974
95.7074712140685
95.7535795552495
95.8283001553652
95.7795686372822
95.8096682352168
95.8021415894188
95.8518032084513
95.8825071053763
95.708373767848
95.5674111934314
95.5373357934059
95.580436875849
95.489221468956
95.5084237634368
95.7074023174246
95.6845102010653
95.5532745339494
95.5251101758671
95.3791806075211
95.3372170755737
95.4361055906053
95.5576596438352
95.5644598523416
95.4612256231094
95.4336839464843
95.4481348728535
95.4426776790155
95.4045764967106
95.3055531131594
95.3344445309814
95.4461961797097
95.5360234908257
95.5923650480899
95.6089583717709
95.5455338846469
95.5114423218239
95.4463860302695
95.3937697618793
95.3984363916666
95.437675225428
95.421126375561
95.4395381877021
95.4210594066842
95.4006286299638
95.4240118285429
95.4985406706146
95.5463999496463
95.5300542819232
95.4258414508462
95.4204455801001
95.4533494817219
95.48839825395
95.5419674054497
95.5527755373343
95.5257385952028
95.4771504007641
95.4915833114781
95.5333546267782
95.5327979680827
95.5147868818712
95.5280976222771
95.5413407079118
95.4954022250795
95.4793045700864
95.5162428625016
95.4793915046598
95.4422505012898
95.4760604090999
95.4468105530271
95.3948287854975
95.3818592453025
95.3685739082337
95.2899596246188
95.3085183700523
95.3050648810637
95.2153586712559
95.1404753562781
95.0760918685174
94.9916660696903
94.900436643357
94.8109855685824
94.7250355263006
94.5830473606895
94.5228453020838
94.4799184447215
94.3716335048819
94.2404401800295
94.1401593749202
94.0013392006666
93.8728858192355
93.710900838089
93.6018990921168
93.547481056974
93.4536369800093
93.320994934432
93.2445298215107
93.1095005844642
93.0053522000938
92.9335255221489
92.8683617455597
92.7725914196027
92.6429523407559
92.5001098795558
92.4169027546749
92.2923961868912
92.0885185122525
91.8316005773462
91.7551362044569
91.6116812567572
91.412367097164
91.2385967864687
91.0523220930596
90.833793237401
90.6408896879499
90.385020174157
90.1235191620212
89.9606678234556
89.8046509403487
89.5907270108593
89.3749035379204
89.0996207019177
88.7663057134899
88.4899611334999
88.319947765938
88.0318793293726
87.7924831228867
87.481522739521
87.1100426116697
86.8329397526207
86.4812644411256
86.1319504464949
85.8348078504354
85.3740747249012
84.8410402679523
84.6227208708289
84.3568232471577
83.9577159608894
83.4954787879447
83.0462831207651
82.7042011517748
82.2475429222622
81.7893640682442
81.5117106824318
81.1462717458434
80.5751435944989
80.1318798647127
79.8324153417188
79.4604444296158
78.9550630305566
78.2817408911542
77.9830878474781
78.1617589484505
77.6795958834538
77.0703990307312
76.9238608149231
76.7527927244573
76.3617809370202
75.9627058120666
75.4423331268978
75.0115751717349
75.0971242564522
75.015215211949
74.6360156042953
74.2558115758908
73.9839598346214
73.6916201826056
73.4937534639813
73.4339330798938
73.038941553088
72.5636505295872
72.5470858339327
72.5171159149547
72.155388702851
71.7838628430375
71.4783443226028
71.2247306961993
70.9252166310948
70.6866276256379
70.4424905752247
70.1870889874972
69.913023088785
69.7236080564371
69.5402896239605
69.3649159332954
69.1777311805201
69.0451109338381
68.8975369489983
68.7828902394393
68.7038909229348
68.6607135366667
68.351285901527
68.1630554155749
68.6662197923796
68.7837983559162
68.4261040545945
68.5257544288669
68.8119409289747
68.862717049893
68.9233937773462
68.4965737368237
67.7495916296412
69.155447999524
70.0509558133136
70.1270288401117
70.2568536618664
70.3913045369441
70.7932502737238
70.9656199777509
71.0234656444136
71.2735028695586
71.4719260874477
72.7021250789929
73.879026986616
73.8745760810484
73.9254623622585
74.7654962674683
75.2121413101872
75.3576848487228
75.7098197339888
76.1590546895514
76.2928925566138
77.045916735438
77.6719564883573
77.9204266117681
78.3913265688184
78.631530042277
78.8007465863222
78.8050545150142
78.6858294162564
79.8801249269807
80.7859148168736
80.8426859985411
80.7972365982261
80.9078706122966
81.2946065097385
81.8599753868174
82.0014569868048
81.9537949959227
82.275452466933
82.7002802479391
82.9528274355799
82.9957818395152
83.0274801375566
83.1048687354856
83.0110333814764
82.867289920788
82.6904373132714
82.6343266263192
82.6613406049401
82.3405036972179
81.8405613157515
81.4895583828903
81.4172543762797
81.1129648446737
80.5743183870768
80.1780080652726
80.3974542439351
80.2540886439264
79.8874289434066
79.5090693094051
79.2573131352104
79.1536725884128
79.0003615951831
78.7717094525355
78.5331408587207
78.1297849528197
77.792588639756
77.8379977954727
77.610763268672
77.1630971198471
76.8285577719536
76.5375589580328
76.0941668542692
75.6969785924911
75.3142399077217
74.7717277063449
74.5821576846774
74.4766017165075
74.1034757658192
73.6940123667995
73.402740892751
73.1684524936617
72.8719757397119
72.6276163310099
72.5606292213125
72.3912644912708
72.1728341215901
72.1513473561642
72.0722448307777
72.1674457501469
72.2694483769963
72.1177824459373
71.9450717228775
72.0596317061511
72.2361592413372
72.2693704849155
72.2986495236626
72.3880855020578
72.4927076802399
72.5383473617685
72.8191323561618
73.1186648275808
73.2067342599382
73.4182944809303
73.6711649681316
73.7835651815833
74.0713798618304
74.5015391291807
74.7794386508985
74.967713369059
75.1895532113295
75.4263675770414
75.6407098301085
75.880404810107
76.1222966466401
76.3455023276058
76.5466787684428
76.6751142677705
76.840540021547
77.1653617441589
77.4328974819417
77.5763046427973
77.6622330055812
77.7844091521089
77.9309728507472
78.0845962834534
78.2087082740987
78.3132245457371
78.3773204058285
78.4293178113239
78.5480270582853
78.6504496729408
78.7261826788237
78.8339694137035
78.9241408307466
79.0127023423774
79.1070473460219
79.2063191836669
79.3160256623887
79.4041503047658
79.4713804917274
79.5560537341592
79.6581802004071
79.752485100453
79.8290368559369
79.8624406567623
79.917468145446
79.9827841554505
80.0189722004681
80.025728301399
80.0252777940613
80.0365808503253
80.0311468087197
80.0080163669917
79.9521342626843
79.8976722645025
79.8719697955219
79.8258807553388
79.7676597845696
79.7189481150427
79.6677767928152
79.6490213955198
79.6376317355183
79.6216455718493
79.6145986908878
79.596345003133
79.5557397985291
79.5262635011293
79.5161760780349
79.4884649807051
79.474471674439
79.4845246130775
79.4701094672219
79.4698345437187
79.4936027092025
79.5204805727752
79.5559015524545
79.6193823066755
79.7008200414615
79.7775320610676
79.8314880517597
79.8764468253678
79.9465764336722
80.0650347121525
80.1732959687502
80.2675418519125
80.383582476398
80.5062781689458
80.5984678624054
80.7180146539812
80.8316375684269
80.9377989425903
81.0604949453414
81.1726795475146
81.268734477372
81.3703410680887
81.4713506932646
81.5878422462129
81.6781131967638
81.7182349134452
81.7386038198798
81.7247861357903
81.6689589146816
81.6369142894748
81.6156503894562
81.5744442897892
81.4874130742038
81.3908676278447
81.3239653585671
81.2731482637485
81.1950847375028
81.0925033995485
80.9950079506095
80.8987598587908
80.7888476934596
80.6684290414381
80.5699083960439
80.4840072027866
80.3715890679705
80.2279449610372
80.0989369614512
79.9781461531095
79.8283511121297
79.6962507581425
79.5503146182218
79.3731848027764
79.2029717727407
79.0200047114602
78.7896037904271
78.5454673321774
78.2861048724255
78.0453976861273
77.8260025473076
77.638737307619
77.5017729233277
77.3597257908011
77.2178361139547
77.1133122682117
77.0249815455557
76.9394642740922
76.833322705996
76.714698461163
76.5676780334514
76.4128288027867
76.2550340158325
76.0964424879762
75.8909756263886
75.648832448815
75.4065029636375
75.1653214070548
74.9217250113667
74.6587232175183
74.4046512650107
74.1696767658551
73.9074961771059
73.6620874285369
73.4507909724195
73.2393135262889
73.0296684177443
72.8435695328358
72.6863110968412
72.5347447655579
72.3920731761746
72.2591437317585
72.1078195181834
71.9778537817515
71.8590182135051
71.7234481410457
71.599771134648
71.4771195433781
71.3484466840516
71.2063615247502
71.0641576221878
70.9352182066405
70.8130566471532
70.7260670128444
70.6600860140157
70.5953575577303
70.5386427208738
70.5316227074543
70.5634830986629
70.6063118061802
70.6751750761304
70.7856782932892
70.9095536687865
71.0541504796797
71.2177073986861
71.3744959026926
71.5585278022375
71.7730712580843
72.0162589002463
72.2719817740114
72.5656413147211
72.9077751548587
73.2342643798626
73.551740335499
73.8911007210776
74.2078265897122
74.4954483814766
74.7955403781402
75.0923993667096
75.3752669480329
75.6509009061546
75.9331195080042
76.2061038952241
76.4675700107328
76.7066642605473
76.9240935505448
77.1502525257623
77.3711238494428
77.5405515531999
77.696207968176
77.8709688703501
78.0837288750778
78.285677824256
78.4639074188163
78.6634570965386
78.8754083078337
79.0917110403465
79.3111427609319
79.5212788942525
79.725108710204
79.8812203164779
80.0495945088591
80.2141858752539
80.3755162479588
80.5403051358886
80.6818940296413
80.8152251502243
80.9849601908649
81.153711847252
81.2999557274134
81.4481163536382
81.5908879864515
81.7148800354529
81.8346924031989
81.9296302291255
82.0631265285405
82.1839952320347
82.2718610361837
82.3362489736141
82.3836824827407
82.4617127004478
82.5465519040643
82.5917568083955
82.6186526392695
82.6706179320336
82.7662820404525
82.8855230484936
82.9643010657944
82.9978917943649
83.0310808115793
83.0628619776136
83.0825967239108
83.1035824187827
83.1517345786277
83.2003884410687
83.2299924421386
83.2275213166677
83.2420277170029
83.2471677399726
83.2798895876336
83.2905903823292
83.2432328342899
83.210414930414
83.2358764556439
83.2319305302777
83.1959451688609
83.1576552220193
83.1624861263152
83.1829472777515
83.1665702095602
83.0977981267097
83.0447891139888
83.032974700859
82.9950888023819
82.9068149814435
82.810545800151
82.769953532319
82.7022874590936
82.6057115649689
82.5217813990773
82.3992026354801
82.2680704630694
82.1729738911072
82.0601678105375
81.9073122797224
81.7639540954159
81.6478249961472
81.5219041243011
81.3883758576497
81.2660880752983
81.1685710679061
81.0541676477733
80.896982795053
80.7536265422207
80.6579311731379
80.5413347014672
80.3531809126646
80.1499840176498
80.02440544789
79.9122861749029
79.7918120485892
79.6815395578169
79.561409815927
79.4220721440654
79.3202304590651
79.246878914999
79.1255230635372
79.0157443873686
78.9055867646853
78.7750777487154
78.6434098959914
78.5711276259658
78.4963739459081
78.4217233341818
78.3710384306695
78.2857422113916
78.1864796512305
78.1366282772841
78.0918347770362
78.0386398346912
77.9706778453709
77.8816444803796
77.7956845553089
77.7643464081426
77.7054385885903
77.6328010304516
77.5935811050832
77.5099934016168
77.398340450595
77.3277127541853
77.2690241158906
77.2031537231421
77.1156295608946
77.0308375016176
76.9414645290378
76.848280305145
76.7354302655758
76.6221611463331
76.5170636127615
76.4347232918541
76.3502606453321
76.2391762664806
76.112763547331
75.9587049866773
75.8275086875824
75.7254243297686
75.5758803839856
75.4458135655497
75.3279849990594
75.2440268690426
75.1475397308582
75.0389711276075
74.8803387526573
74.6846257503468
74.5173539787996
74.4082716254469
74.2387096541958
74.052897251884
73.8908859231635
73.7487458289119
73.5820198175309
73.4582851800434
73.3409074478721
73.2327820986135
73.1465000208074
73.0846489299212
73.0035937068208
72.8517109448729
72.6612660510867
72.5546237640877
72.4392735731859
72.3246064261451
72.2445857892148
72.1543551244605
71.9609188361088
71.7120497085779
71.4790800804784
71.6816715344808
71.6195764004811
71.3265966199123
71.1436143110884
71.0911586382044
71.0386924847597
70.91313871687
70.7100346278866
70.5674054448757
70.4194384488706
