1798
3999.43349933624
650.420452594757
1
128
4
95.3551601335031
95.4331076681066
95.4560588573049
95.3979251067657
95.3502574829321
95.3594107761817
95.3683442292336
95.3596565736214
95.3455661316599
95.4154491854288
95.4351234969928
95.382637872049
95.3185371673126
95.3128085323173
95.3574263237931
95.3375660530026
95.3227294809185
95.4298435551362
95.496292120127
95.4647592617754
95.3818953636174
95.3791186060692
95.4615224539413
95.4419867655918
95.3339908003645
95.3495607052668
95.3611342025569
95.3320735825603
95.3335051696532
95.32873561336
95.2636966399003
95.3719445614005
95.5596746024248
95.5398513011883
95.4308458263667
95.3605479893486
95.3495954122116
95.4163294354199
95.3380293358886
95.2405739703887
95.2917350419674
95.4474125869232
95.5573041178484
95.6083293891946
95.5648337778814
95.4628750726241
95.4463536074017
95.50026998911
95.462477042249
95.447478237237
95.4448636564037
95.3597303948517
95.3485746264038
95.5141195556358
95.6463589293696
95.7090959051562
95.6677985085282
95.6192990132299
95.5510694940109
95.4232725363015
95.431340710573
95.5283467150757
95.5469752336348
95.5963495068475
95.5439229824459
95.4791901892076
95.5459299476902
95.5971458167041
95.5252589802906
95.4409170223338
95.4169305576454
95.518619292806
95.602296335857
95.6554327673507
95.5645640765657
95.4378737169903
95.4000651543366
95.4158424387634
95.4198626353847
95.4851788752877
95.6380406186641
95.7246568731513
95.6438023051679
95.5562869130474
95.5289597753547
95.5157910533122
95.5265880192892
95.6758176633615
95.8375974923925
95.7471758496185
95.5947921541568
95.559960823173
95.5460937982078
95.5853949268107
95.4918267929732
95.4181390273266
95.5055389449367
95.5939756182588
95.6419932523548
95.7072894450838
95.7187753992448
95.6476513748282
95.5979998957832
95.6119314339628
95.652061473433
95.7308979473357
95.7386328530248
95.7162194506144
95.7273056781583
95.7692815081839
95.798059728031
95.7841064324605
95.7592328674899
95.7819718314814
95.8152557676014
95.8201437650708
95.7053463774246
95.6690173893427
95.7509480263746
95.723018918146
95.6642072045553
95.6976517495761
95.5960949203652
95.6072046703219
95.8224202390757
95.8852865177177
95.7660468417154
95.7030567624095
95.7366987955774
95.729956253794
95.630830800293
95.5659613191372
95.5060703499568
95.5560026349743
95.7308134905952
95.8820862845462
95.9806842165496
95.9270501828578
95.7544857122208
95.767065657381
95.8326441051867
95.8256868461784
95.7695150275188
95.878122587294
96.0294664074725
96.0732502604244
96.1032965501961
96.0657460373704
95.8715114589805
95.8369339748728
95.846603136254
95.8913444368857
95.9552296026594
95.8684774134497
95.8026223001732
95.8184313284653
95.8694330564848
96.031296582832
96.1220443693483
96.104386920038
95.9515429028391
95.8114499612126
95.8637739060923
95.9742538192717
95.9539616021041
95.9338702565262
95.9012268884166
95.8959180344317
95.9278707942267
95.9374146563239
95.8764515574227
95.840996994874
95.8604393598711
95.8568770088079
95.8098146304499
95.9093147186884
95.9036748910804
95.8236285040321
95.8799621700219
95.9088835351858
95.8784756308141
95.9027944779969
95.8496762264222
95.7540574830049
95.6425230501085
95.6720368351395
95.7539952076166
95.6552959572713
95.5391838345929
95.5062570950035
95.4599219254607
95.4898556020045
95.5426469094144
95.4954704848748
95.29259688322
95.2064405942461
95.2756531542249
95.343749083249
95.3843921183852
95.2786899287858
95.0948222844888
95.0984808336039
95.1402880033353
95.1579304355192
95.1007387434169
95.0256147238768
94.9905669648789
94.950349936145
94.7427549352481
94.5643566552304
94.5547701885378
94.6999244449998
94.7660850703481
94.6657999223131
94.4830485239255
94.3355238185375
94.3512123510414
94.529889535295
94.4576199741625
94.2147835886115
94.1336747037472
94.1291320872142
94.1458242190166
94.2413438004958
94.1892523051778
94.2172500576527
94.2328183247731
93.9705214417856
93.6853197635242
93.6502457766296
93.6698075270193
93.6010962717086
93.6569168082636
93.702774768067
93.6166681173525
93.6668286073153
93.5650148266897
93.3817737617358
93.2961754807781
93.3322229454495
93.3372172161459
93.2387235751113
93.1117647243912
93.0323999599772
92.9484061381591
92.9524009776786
92.9079823656572
92.7324778880269
92.700497368441
92.760714265401
92.6550228016136
92.5693404522143
92.5113550429902
92.4932813040085
92.4698311244276
92.3312740880728
92.2479998304959
92.2850507169239
92.2062362680044
92.1037775690922
92.0406006638519
92.0493912400401
92.0186907054603
92.0273133960029
92.0129617859651
91.8765382816226
91.7698537835738
91.6950984824212
91.5766869144891
91.5724592416662
91.5550830144418
91.442175855559
91.36823747264
91.4609052990275
91.4403368548153
91.2913789518612
91.1992920286308
91.2320125394207
91.2709526436569
91.1551332154664
90.9570549511661
90.9196018796539
90.8578512819012
90.829397705156
90.8367416163054
90.7333627806641
90.6063156736839
90.5919041318526
90.4451079183046
90.323772123786
90.3962277177609
90.480908829442
90.4910956746531
90.4361151068293
90.2806371712714
90.1864533523159
90.0676872417908
90.0110527082649
90.073453930226
90.0861250254287
89.9157348609494
89.8070896064505
89.7904104515878
89.781526810399
89.7189674456323
89.6830792010901
89.6522185415252
89.619801296525
89.5379346993345
89.5106910660895
89.4736560875544
89.4203334941705
89.3170198495704
89.222782521858
89.2567324311996
89.3536027126788
89.3819106461877
89.259589380936
89.0932856880137
89.0953702567005
89.0390869383382
89.011082002831
89.0218412404912
88.9962886320118
88.9404937289913
88.8864394370268
88.7733554166241
88.7018585520531
88.7317905692663
88.7514903301605
88.6825076311897
88.6720237669065
88.6844807816152
88.6221282012996
88.5156868416663
88.4595447348296
88.4392040810434
88.5220023126087
88.5300918630335
88.4077185039139
88.3535201757404
88.3844659047795
88.3276999735918
88.2886321771374
88.3469134293539
88.2952481512526
88.1754417647327
88.1456038865398
88.1845874437986
88.217218810184
88.1063544706765
88.050721097643
88.1225541389185
88.2143861163461
88.1170092953197
88.0061835085014
88.0069696180851
88.0510022634929
88.0084382818119
87.9272902430008
87.9400585556905
88.0422727272399
88.002281761811
87.9684618882241
87.9831327079235
87.9912824682991
87.9962049306339
87.9759714452661
87.904974035104
87.8657743605217
87.8788165194088
88.0282898073779
88.037829060468
87.9398161352943
87.9021109235235
87.8849557798406
87.8466872727066
87.8737091305312
87.865029190982
87.8648295786672
87.8201691253003
87.8209509524732
87.8613370402251
87.8746091781897
87.7787610410409
87.729777140391
87.8453129246578
87.8835743831583
87.7778091666203
87.8379940990626
87.9038505093614
87.8636983902913
87.8228807957487
87.803407433688
87.7768976115557
87.731504060054
87.758668335512
87.8131283734216
87.7834173895871
87.7998825492282
87.767174166949
87.7180056064742
87.7916255925646
87.8475533943755
87.7624239661528
87.7329204656686
87.6995215309299
87.675352165237
87.7035205615753
87.7392995400009
87.8218614401857
87.9728414116045
87.9527738511946
87.8018970652218
87.7105997093911
87.7686767670879
87.8563292124992
87.8438036502836
87.771291841605
87.7484833126155
87.7299823301826
87.7551669075962
87.7874739495488
87.9495440010699
88.0353689207967
88.0003859886715
87.9374736359515
87.9361901312134
87.9190622638382
87.9169430435631
87.993496728047
88.0093784247371
87.8988378985954
87.9380379857606
88.0412242909618
88.0631757805894
87.991665420745
88.0229456494158
88.0730907249053
88.1201634425034
88.1503341644795
88.1366667043755
88.1260921018888
88.172937118074
88.1831362354909
88.2876778330636
88.3759620862218
88.336828283006
88.2908263609664
88.3532249698271
88.386456946605
88.3922384628301
88.4046263756414
88.4989502777875
88.6049818337786
88.6365924611288
88.6010216504872
88.5626095570351
88.5591367624961
88.6320845081783
88.6891266193139
88.7390174889328
88.7487815030899
88.7694693719042
88.7475340328868
88.7236376257342
88.7729178075084
88.836698553804
88.8998722079824
88.8888280074038
88.8739564962573
88.9665491419045
89.049323615749
89.1108081874535
89.0477331098447
88.9813267090909
89.0657589452474
89.1522192572582
89.0739597555968
89.0920489597069
89.1656368028023
89.2068538449384
89.2245901333176
89.2994499603593
89.3814611871883
89.3563038984064
89.2911161145908
89.3536094973503
89.3412287146616
89.2809022118884
89.3443867979592
89.4557673786671
89.5070429724643
89.5745050292056
89.6120907125625
89.6090374590291
89.5917939723579
89.5625250559184
89.567915762015
89.6405986074105
89.6554181622137
89.679676867702
89.6926456699667
89.6836808840993
89.6945142658689
89.7818100473237
89.8162274354854
89.7730696708823
89.797946833611
89.8508267878172
89.8229851967834
89.8522150575594
89.9685705458928
90.0598176150058
90.0440302903124
90.0370187245342
90.0852019920084
90.0930413006774
90.0904510006217
90.1375779653053
90.1890695174154
90.2246230336865
90.2006394166362
90.1818411259548
90.2106202406014
90.274147126885
90.3204926680861
90.3351787316268
90.3060987417975
90.3731266731776
90.4446348042167
90.4448350488628
90.4319788987973
90.4335515263574
90.4159534372082
90.4205599262815
90.3996219568577
90.3802092940546
90.3839050519375
90.4074341666403
90.4173630328777
90.3907226813626
90.3639729708623
90.3746375283889
90.3926439590703
90.4246985595555
90.4432833679927
90.4606740486991
90.4005760429124
90.3224361624039
90.2896140311977
90.2820333374769
90.2241875525133
90.2216774794402
90.2318406798035
90.1583616707475
90.083700553725
90.1288537615465
90.2011341083044
90.2204874557969
90.1616045994419
90.1018409888308
90.0838369024508
90.0894142349909
90.0898872324274
90.0935234527352
90.0895753603304
90.100143006164
90.0691463107355
90.0291792814895
89.9661465437144
89.905895454208
89.8777405797467
89.9490130976719
89.9959768404792
89.9357957365437
89.8966948396233
89.9358135468438
89.9583051057072
89.9730014903757
90.0405942339741
90.1821678812605
90.2266448213884
90.2257451745253
90.220761408518
90.2338712791482
90.2676353692879
90.3076082690305
90.3271821577702
90.3697285650346
90.4002459700198
90.4567463122825
90.5013703802766
90.5028365949806
90.5506278880247
90.6166663990296
90.6252387808941
90.6836266904453
90.7329569354466
90.7246783512158
90.6685145362785
90.629742552896
90.6593804263351
90.7138095561379
90.7245765860776
90.7314079001272
90.7753886671111
90.7676920656499
90.7365297127958
90.7941665300358
90.8682196558309
90.9504385984729
90.9993601874149
90.9868917254266
90.922159421299
90.9056523044288
90.9450378711837
90.9867529865384
91.0316388402827
91.1375769436469
91.212287876027
91.2385566180613
91.2409399961943
91.2336538829398
91.2832300384581
91.4006585276052
91.4295009541645
91.4173757731503
91.4041438413076
91.4236658536594
91.4742483735487
91.5225234455777
91.565604242798
91.5688498909489
91.5437361499503
91.5897393730908
91.6170026968883
91.6218129434616
91.657580445622
91.7184403265088
91.760741869415
91.7663072087879
91.7476573692252
91.7483648097975
91.7674691304281
91.827842148503
91.836693065769
91.816444898727
91.7902769408969
91.8498579707005
91.9197180585152
91.8760034773038
91.8546075853528
91.9381189736905
91.98605137726
91.9804043534905
92.0127342029659
92.084187407932
92.0895546725757
92.0657215166249
92.0678600912198
92.077127166054
92.0734899210002
92.0841217847585
92.1094344123996
92.0957303982734
92.132816909029
92.1947248992914
92.1280255675247
92.0979047040188
92.1374128371292
92.1808140502811
92.2624915823889
92.2613394631294
92.2160420073302
92.2275390644649
92.2098799011026
92.2019163481733
92.2485266252531
92.3124612636371
92.3553325677159
92.3652545080976
92.3513487898999
92.3729082625655
92.378864462307
92.3727069350582
92.4077476183962
92.4258947029247
92.3776393735159
92.3762898236125
92.4220308567753
92.4631331227454
92.4890464339728
92.5048549689748
92.4972605406766
92.4563589027528
92.515237311103
92.5567353016829
92.4785358232391
92.4679180517278
92.537252482404
92.5560484001605
92.5526365048331
92.586346640233
92.6022609079997
92.5991820417691
92.6048839817483
92.6088934371332
92.6689353279297
92.7076868730258
92.6898233153864
92.6959246648655
92.690049698186
92.6766137211817
92.7227834619145
92.7272578139418
92.6834031677993
92.6805435623986
92.6736272501563
92.6854153362878
92.7318587324058
92.7278337939301
92.6827478151813
92.7337110481367
92.7996737042233
92.8193150666311
92.798306051443
92.7701067272263
92.7668993293236
92.8013798153305
92.8429490430879
92.8712548129173
92.9260098421726
92.9902200176077
92.9964203986072
92.9634700261228
92.9185497120967
92.9278746688524
92.9556448256248
92.9772232443798
92.9917636373327
93.0493797852602
93.1334642839606
93.2023042260309
93.2243048668194
93.1630678808508
93.0675069096694
93.1057696309829
93.1855715180614
93.2150827976312
93.207579969789
93.1927727837937
93.2233173489602
93.2394626518319
93.2557785292763
93.349874571864
93.4416167625746
93.4936236463921
93.5497537562884
93.5485391360065
93.481039491599
93.3895609609028
93.4321949356651
93.5572653680741
93.5411310050264
93.4853312163173
93.5122204108788
93.5640695883577
93.5961785932851
93.5661467867901
93.5297356208998
93.6064858638012
93.6616062635919
93.6257134088362
93.6620803173262
93.7529677676173
93.7791781094192
93.7653674750547
93.733147086553
93.7396115571486
93.8011277175626
93.8505979418386
93.8531605494736
93.7880267657944
93.7864423232983
93.8601385856397
93.7948185883825
93.7259151519022
93.7819742285972
93.8243581787192
93.8266743034668
93.8652930879408
93.9216286368252
93.9553698616923
93.9621770547127
93.8572901258036
93.7287976084205
93.741998118111
93.802461622176
93.8391783106586
93.8962493261931
93.9516572181408
93.9582835750518
93.9236183884251
93.9623456783442
94.0413836444675
93.9314361358196
93.8457459943685
93.9165989743563
93.95676064922
94.0046280803162
94.0121780832141
93.9886010108794
93.955606832849
93.9496447757346
93.9849692544946
94.0020378223804
94.0064794881144
94.0318490670852
93.9870182020862
93.969432584969
94.0140630780373
94.0862241070728
94.134846026997
94.0342187225856
93.9466527572943
94.0510309759621
94.0542255567425
93.983907220729
94.020960051191
94.0752914743465
94.0947468335886
94.0928797140235
94.081698129213
94.0585462913206
94.0332803964151
94.0889326476815
94.1400022734539
94.1860274217692
94.1834790531781
94.1214223653444
94.1045211101133
94.1418714426876
94.1587401071276
94.1733451908818
94.1590707412054
94.232282584405
94.270800786575
94.217475956231
94.1431270801824
94.1464317867123
94.2084448476711
94.2179337923168
94.1766026425665
94.1598889859429
94.1884358315684
94.2003082171554
94.2046321766568
94.2226175118847
94.2048371623257
94.1764167444096
94.1981745016358
94.2067075966975
94.1748549235972
94.1047157303862
94.0752215816689
94.1024608323832
94.0988171009844
94.1133621440839
94.1201327497903
94.0956688770534
94.0549640660747
94.0014891784283
93.9698141320269
94.0180731563174
94.1143422857761
94.1778780235279
94.2115903022202
94.3106051489148
94.3707519883819
94.2830491260238
94.3444173919498
94.4625102456024
94.4382272216201
94.3810531062592
94.316603812936
94.2347571935803
94.1477328699453
94.0736148997366
94.0665162622026
94.123379465892
94.1973856022961
94.2376703417662
94.2603594755249
94.2562380391091
94.2511694696982
94.2519414451005
94.1690895069441
94.0630910919528
94.0213765303262
94.0469311872509
94.0757291627287
94.0698992475146
94.0692319109893
94.0986624921931
94.1682418643254
94.2858414628426
94.2870821541134
94.2310330993379
94.2875365314581
94.389206217399
94.4195570223774
94.2869089715237
94.2043716674032
94.3122628485977
94.3356024022266
94.3520708920248
94.4259694167929
94.4037905589771
94.3556289583436
94.4274292218822
94.4978222738396
94.5126442949638
94.5512748603125
94.6032247387304
94.7085833938551
94.8712054027959
94.8377929230259
94.7775445961871
94.792133182018
94.7893794100256
94.8558988217827
94.9350198531701
95.1369997631312
95.2933612984561
95.3719509011364
95.4151733446169
95.2451878320668
95.3028406700869
95.593083060036
95.5946842665417
95.3721006924431
95.2019686578355
95.2385331648206
95.3634714212313
95.4267617308091
95.6089537167679
95.7322402187174
95.800740212228
95.8301841108639
95.7531038857205
95.8543945226283
95.8571971704201
95.9326916506499
96.1267700566874
95.958370909911
95.901258849766
96.2008074022817
96.1443433586688
95.8345346552791
95.9351256185025
96.2173284390771
96.2747355287153
96.2799811590427
96.2425480610042
96.2463134479876
96.2077938772595
96.3088528000506
96.5443455954756
96.5876740225797
96.5635988354454
96.6297740674997
96.9043610976375
97.1742217243049
97.2164093148157
97.012031437713
97.1833404627373
97.3073438468345
97.0513221484253
96.888845040071
97.1818439751869
97.5189010331144
97.4642595956786
97.2298808655776
97.3591333025506
97.9862607353688
98.411183757124
97.9458349835569
97.625716108262
97.687920291572
97.6146852597548
97.4863919606112
97.4893599899792
97.2769554060701
96.8335918996543
96.6470939726145
96.8555399002054
96.8588678323081
96.5140655239945
96.5021839931859
96.5791007706646
96.3446599144899
96.2616473872939
96.246267109812
95.9359203363321
95.7004612505976
95.7351928267099
95.815119195055
95.7798657549389
95.7026026703538
95.7189652362023
95.7075358730504
95.6291770663608
95.5431071524225
95.5506631487377
95.6830270078053
95.7611183886335
95.7011062977262
95.8331923053202
95.8639047901871
95.7652330218487
95.7803342395686
95.9089800709895
95.9518805932083
95.8909675280944
95.8537516379631
95.8259512835932
95.7348124799606
95.7590001688572
95.8079449612533
95.924011657301
95.9998652228644
96.125215236338
96.155008558471
96.2141592594024
96.2263418981018
96.1816905179151
96.2972112815336
96.3836500504499
96.2594931036567
96.4335969461493
96.5901078003437
96.6210149475217
96.7511636995156
96.8609195079003
96.766459760806
96.7186198525425
96.8994668160031
97.1632473906486
97.2856169761758
97.351134923208
97.5186650435798
97.9619492733435
98.051161089763
98.0329378625741
98.1928813368946
97.9835908585957
98.0137023934372
98.5265058919315
98.1978067492724
97.6239897044533
97.5735060911563
98.0657303807969
98.258381294526
98.1444398843875
97.9267548370613
97.6583299040963
97.6234219452338
98.1043640257544
98.0041382262611
97.5893449500817
97.5918559041736
97.8207995907268
97.6853221768038
97.4792267548818
97.4047645955787
97.4503527725616
97.3860872563477
97.4038015366545
97.4535581563356
97.4812743416522
97.5338092848566
97.7121047391281
97.8234845259318
97.8508786869101
98.0200358157751
98.2545186027881
97.8634714670245
97.6174116300918
97.692097218092
97.7168026041167
97.7565308680627
97.7603713882282
97.5533827374732
97.7591605475312
97.6313661734411
97.1766691389702
97.0036051036087
97.1597738635826
97.0567935814036
96.8000339731437
96.8307023046048
96.9202250819536
96.7732655088777
96.6656582507973
96.6012705296551
96.6627306690209
96.6606691872735
96.4509890495509
96.3574427477022
96.3614194195283
96.3102217817091
96.2358090859082
96.1948722572724
96.3571692952478
96.3584318580499
96.2287864845238
96.1341535624215
96.0615211533806
96.0293666118858
96.1800057878616
96.2031920446741
96.1083860053962
96.0394414277017
96.0258501455771
96.0640477984321
96.0975582271448
96.0765750220194
96.0714379593479
96.0495483894146
96.0685740874411
96.1036256885334
96.0970412950341
95.976191883891
95.9091452108197
95.9769129145007
96.0779812994199
96.0598381215957
95.9684516160579
95.8795957108829
95.9620980259156
95.9973006411985
95.931899460639
95.8480148913926
95.9386290138373
96.0090425600152
95.9815734887506
96.0218807360684
95.9940095473243
95.9313458173861
95.9793642710803
95.9855615617536
95.9942940653392
96.0146269694941
95.9596647736635
95.9703083748438
95.9883695969078
95.9769221155986
95.9665445437471
95.9753688889838
95.9927090751404
95.9655139627574
96.0095198792787
96.0064391936479
95.9296544621433
95.9494287938965
95.9795836466007
96.028641704399
96.0875984145438
96.1060494275307
96.1016091371872
96.0941553686433
96.1195421575404
96.0778457532981
96.0178866874819
95.9811832681071
95.9890433795819
95.9951513063619
95.9952253396471
95.9612840874306
95.9621931218472
96.0051311588295
96.0018512701042
95.8781278357641
95.8049651837756
95.8865332144524
95.8789364362884
95.82439414646
95.8164251071898
95.770914820045
95.6737115367885
95.5842606753003
95.5131169503713
95.4622742002038
95.4139309869858
95.2989049027438
95.2888329581603
95.2332054094849
95.1940465493634
95.1372510682873
95.0648467286733
94.9657803869867
94.9073931837604
94.8316960158499
94.7786771355898
94.7261399957911
94.6832084780628
94.6313303648537
94.5838141149715
94.5633930758448
94.5320232749119
94.4434204476021
94.339494980665
94.3409501414388
94.3459569390962
94.1776093114873
94.1535387390591
94.1463037514768
94.0801978089396
93.9511911695335
93.7739490372671
93.6051809823193
93.4966950564552
93.3147184552667
93.1346212501785
93.0075922950623
92.8983071550042
92.7821599974405
92.5817150240873
92.3353142854503
92.0867902224211
91.9119786914837
91.7587744764858
91.4785950022232
91.421678278826
91.3202186035639
91.1018502015722
90.9798133141644
90.7047394870615
90.4068794806552
90.1773955253514
89.9211168236233
89.6586154089718
89.5493056644577
89.3664169663981
89.1339338885884
88.8397726085875
88.5545682518825
88.3791136012347
88.0898777790097
87.8183804867658
87.6218644441783
87.3878292749366
87.098756884227
86.8569581571538
86.6389278683523
86.3664848272914
86.050654724424
85.6422377574335
85.4402138725826
85.5272382137743
85.3198379354581
85.020202834628
84.8310539763401
84.6434160911958
84.369573909281
84.0865088091229
83.745549888387
83.484992010869
83.4880239462473
83.3458501224896
83.0210052846641
82.7325097045173
82.5128253678772
82.2694298023804
82.0380136109948
81.9103260471574
81.637928065436
81.3361866199703
81.231248389777
81.0796878330386
80.8008248673201
80.5505739043071
80.2737071616656
80.0392929876998
79.8080859951328
79.6094055726831
79.3999233238412
79.2218330330948
78.9965225970313
78.7876804160702
78.5972655715031
78.4568299404919
78.2890970750848
78.0980512645131
77.9272270921003
77.8089775437141
77.6556391830618
77.5122190541352
77.2779597630651
77.1462728038531
77.3473685949252
77.3065950852901
77.0643158492733
77.0643918330884
77.1051355835037
77.0530017153974
77.0480042122567
76.7606405448424
76.447645483036
77.1869901777841
77.6690685162426
77.7714898432947
77.8944691311511
77.9273571900765
78.1076775455237
78.1861334492069
78.2792063412016
78.4719957399258
78.6494147833568
79.4689106786367
80.2840410763387
80.3452051461854
80.4016094008384
80.8298383849297
81.0952462289149
81.2146230557298
81.4227692545116
81.708357949551
81.8231777174369
82.2548721046292
82.6867896734122
82.8490726224917
83.1354388736164
83.2325563478484
83.3329786902333
83.3373260355603
83.2771775289789
83.9703968148142
84.6059378953669
84.6739413985455
84.638583956202
84.6450946643844
84.8494401087172
85.2329440407472
85.3336254675703
85.2662840611421
85.4251898224017
85.6836954587018
85.8980298380872
85.9522098648538
85.9725050711086
86.0117686580552
85.9648779168335
85.9191524191195
85.850076791257
85.8771879406848
86.0404440611993
85.9294135248221
85.6578305425033
85.4085322916334
85.3557505045597
85.1941639218357
84.8493369560905
84.5961711234316
84.7880233620355
84.7549336584291
84.5253910157685
84.2883022412631
84.1103997464271
84.0128273940945
83.8482809817118
83.6641799880362
83.4999141488159
83.2333736043979
83.0457375125444
83.1066357446093
82.9375072273053
82.6456729296774
82.4175663300447
82.1878633898082
81.8872309105394
81.6210908486691
81.3282691136701
80.9459900386014
80.7657060850483
80.6147709872355
80.2960599333796
79.9368491457485
79.6190665715987
79.34603315954
79.0567467691994
78.823437127317
78.6729036814182
78.4646501854186
78.2495896911651
78.1469551912504
78.0286039502777
78.0633008119116
78.0615085822145
77.8988984438523
77.7483789508394
77.7991128946342
77.8622466508127
77.8511008726181
77.8744952054333
77.876842489816
77.891232482286
77.9366137972972
78.105187830807
78.2992661033049
78.3719501596275
78.494456903207
78.6290174087141
78.703520840962
78.8938915966395
79.1640101646669
79.3413102583612
79.4858358678882
79.6441207573756
79.8230701767339
79.9907136685467
80.1618907541458
80.3562436971311
80.5217734364739
80.6746319720948
80.8011124066717
80.9420859768742
81.1657095076832
81.3684713698599
81.5125645330285
81.6313153917176
81.7315838030612
81.8122108868326
81.9141865073636
82.0022109596404
82.0557791719301
82.103655008519
82.1817092029277
82.2815274407077
82.3585499182649
82.3943426812358
82.4683063544398
82.5324330658515
82.5819639396315
82.6517527864048
82.7250667683841
82.7816232726988
82.8652398827034
82.9639949116375
83.0521908613029
83.1412007477921
83.2368262211703
83.3151011563871
83.368225826262
83.4352725971647
83.5163034943519
83.5673163240003
83.6028824337588
83.6444838051893
83.703580721577
83.7498046296579
83.7686615491522
83.7896856077269
83.8260315831613
83.8485658714598
83.8659011382483
83.871152252836
83.8801048609926
83.9016472495418
83.9222364786495
83.9419050939875
83.9791604942607
83.9914121143518
84.0039044302583
84.027773732632
84.0492644668224
84.0602124230478
84.0752728026659
84.1067440550514
84.1191442939084
84.1167211092719
84.1275912555871
84.1376418794945
84.1571048129731
84.1663679339557
84.1653603807538
84.1904169881648
84.2215890413836
84.2543048697478
84.2735312766103
84.2852039083984
84.3264661955134
84.3774784875602
84.4329996260583
84.4898006354839
84.5561073398015
84.6177463083763
84.6831514114288
84.7638687260961
84.8361861128167
84.8849687173581
84.9411050274357
85.0340745926939
85.1244744787241
85.2043998624931
85.2716592749939
85.3284249096044
85.4006401741427
85.471203006308
85.5233891297993
85.5585972569333
85.5847709395326
85.614052737967
85.6271767558988
85.5958796143457
85.5702154037654
85.5293070474297
85.4817937854047
85.4630950926368
85.4391228506907
85.3811293912999
85.3304021468132
85.2911639996897
85.2363315234052
85.1728768212822
85.1424222888869
85.0640739596004
84.9656186740724
84.886748539098
84.8071530022846
84.7451434301526
84.6965901605553
84.6136402321359
84.5106627701644
84.4199480672991
84.3319561292218
84.2180700818081
84.1186393358337
84.0008290009662
83.8695646590886
83.7798845636082
83.7135196473123
83.6381834848927
83.5338736053273
83.4260029256195
83.3514558608496
83.2721009123051
83.1886731836128
83.1117400125105
83.0272023838331
82.9198223710554
82.8069250814694
82.6973482856201
82.5663482510026
82.3848889919883
82.2059168232462
82.0511074313678
81.9152963419273
81.7522244933875
81.5880658309788
81.4465505438916
81.2922330683836
81.1257930954828
80.9892169836796
80.8434203201059
80.6777252524205
80.5325367965567
80.3949540874086
80.2444559313168
80.1103188882209
79.9712439985651
79.8153764549292
79.6551529405596
79.5241250886821
79.4125764295798
79.2666652807107
79.0865848029919
78.919040904355
78.7797606012724
78.6508000884786
78.5113857216449
78.3920152809397
78.2932644263711
78.200743835122
78.1036482724646
78.0140317020201
77.9216224820738
77.8673763439771
77.8372860074947
77.8240223378776
77.8330686948593
77.8538644960685
77.8722475619181
77.9084321731566
77.9597387988841
78.0006931362868
78.0601164347701
78.1716401138569
78.2707103843183
78.3890548737787
78.5365882382803
78.6952069324613
78.8796758565068
79.0604489096697
79.231404338163
79.4064988261653
79.5943633864449
79.7916628733896
79.9638700533212
80.1362743561773
80.3118545182906
80.4768931352028
80.6559048049486
80.8410720508401
81.0177983701286
81.1671539756758
81.3142908476321
81.4540790550076
81.5607184861913
81.6808269712606
81.8161144756354
81.9475038001984
82.0601750429416
82.2111492805624
82.3724304726226
82.4954771132613
82.6349590184771
82.8094612737108
82.9382029138371
83.0494200453077
83.2099474969072
83.3348628534002
83.4450447348441
83.5770716604849
83.6873647314351
83.7826580360427
83.8868922417979
84.0009865965911
84.1030653425207
84.2308600702375
84.318458790446
84.4298742501741
84.5585238970736
84.6548535032961
84.7145983255213
84.8022318360485
84.8820182045151
84.9636365306585
85.0115667151967
85.0742288534322
85.1468238914574
85.194456935753
85.2426752313605
85.2969775521121
85.3633822581027
85.4300489207384
85.4773230030312
85.5409909407431
85.6076937489201
85.6403803380225
85.6886239164364
85.7452778597169
85.7955859268524
85.8392307281929
85.8324684082328
85.8368574448304
85.879189815883
85.9149183436357
85.9373666366821
85.945515126094
85.9149829382037
85.8920748964209
85.8821832860288
85.8890475314121
85.8715085556035
85.8424026455082
85.8050907348736
85.775057912496
85.7194788012782
85.675971504336
85.6430839819928
85.6177880681321
85.6258786698968
85.5933389357589
85.5918169297212
85.633400889352
85.6562223513332
85.6610046297067
85.6473878098492
85.6190810229283
85.5571953146318
85.4934419026242
85.3895573700332
85.2991986713543
85.1956280709044
85.1389268879682
85.0911060204799
84.9823430488738
84.8794335311009
84.8149577164419
84.7555554926728
84.6744390158735
84.5890878162574
84.537333838193
84.4534872605669
84.3886238582777
84.3276597747903
84.2091033141253
84.0697558556004
83.9500397046773
83.8632164450939
83.7839573976809
83.7202266361678
83.6411929683584
83.5581222070372
83.5157701937506
83.4766460333888
83.3989017047641
83.2952386750039
83.2296104465886
83.1716364592228
83.1317842219516
83.0531284307479
82.9587119503816
82.874716671892
82.8460836919218
82.7978528190492
82.7493948093407
82.7586362322873
82.7302641362368
82.6872904309976
82.6007687299285
82.5246556097707
82.4844063110201
82.4383086064921
82.4022629820649
82.3902669515003
82.3830884635214
82.3109591983484
82.2448845879599
82.2086183620192
82.1757341984049
82.1142237226429
82.0884518384338
82.0659230602628
82.016609881508
81.9600198350578
81.9263119773244
81.8772252449231
81.7973231039674
81.6991606488354
81.6401408366197
81.5934260303337
81.5197193855541
81.4348389511312
81.3652889873358
81.2207501400612
81.1183045509014
81.0671087817812
80.9743585170131
80.8549960897671
80.7749716327294
80.7352725960607
80.6514480355006
80.504497874329
80.4313810787357
80.3333558303489
80.1474379075735
80.0224416982325
79.9734570871824
79.8848569544896
79.7803898514649
79.7022811433707
79.6422560229481
79.5396755154726
79.4542367947659
79.4146983206396
79.3593275346973
79.2770881513201
79.2111828765145
79.0958409574875
79.0441793140162
78.9561110501308
78.8614214563452
78.80603280918
78.6602916341024
78.4416883900966
78.615998747477
78.5998692112108
78.399008134044
78.2746767897281
78.2062511487482
78.094236497273
77.979448645807
77.9047100497107
77.7861078809322
77.6464721605685
