1798
3999.43349933624
650.420452594757
1
128
4
94.4382222891574
94.4594226025723
94.2191790786213
94.151765100478
94.2060964836433
94.3118044419307
94.2493255668658
94.3268447137843
94.4560461121905
94.4652927293445
94.3235705903381
94.1886365282157
94.1201368640046
94.2804591395161
94.3497239365986
94.3512332154167
94.3330809770495
94.3675260205842
94.3653514326234
94.4004912423384
94.3509877451644
94.340653042267
94.3066164141339
94.3465643542112
94.3213001754921
94.3439854184801
94.3684744101005
94.3319148068057
94.2441925440196
94.3582891671133
94.3623647355835
94.2531385614599
94.2416582418895
94.3132639636526
94.2692984325498
94.2723631645666
94.2738967864689
94.3800028541117
94.3902889701088
94.3560957318559
94.2880901164058
94.3701974333704
94.439172688901
94.394665041722
94.2621019762462
94.2937970985056
94.3471634363851
94.4053480863355
94.4167352485778
94.4540442961381
94.3749230963912
94.2802010573619
94.0681859123814
94.047693766288
94.1715751559564
94.2820538618261
94.2454103164329
94.3379050022301
94.3273811019256
94.2892678924784
94.3445759595767
94.3489488118327
94.2077221129229
94.2930026523328
94.27836755207
94.308244370826
94.4088647651158
94.4471602067169
94.312477627567
94.2597036902026
94.1233709582908
94.1198469140344
94.146012939769
94.1832425377433
94.2780076627219
94.548400928743
94.7528614034546
94.7688298399411
94.4514704096219
94.0213485599879
94.0011901903376
94.3087121759596
94.5814816511804
94.7310228506788
94.5815355325201
94.4728622890389
94.3801509907176
94.2484932941682
94.2230665056389
94.3823659406834
94.3762362776742
94.4271390895481
94.5639180687617
94.6793196986382
94.6000401672971
94.4380122653493
94.1887725753393
94.210552950496
94.287014659656
94.3511092171404
94.4515692000664
94.5750749270978
94.6832486463071
94.7195009216723
94.5513409037853
94.6537469942336
94.6499022011009
94.4417680633367
94.4056648811167
94.5474772394004
94.5761291705818
94.6739663915383
94.7633825052097
94.8188294110969
94.7034742928227
94.651949846521
94.6824693964733
94.7614146725576
94.6757495998431
94.6689268243795
94.7682828939768
94.8644017727349
94.7743068156981
94.6462450027942
94.5906026584052
94.666819807804
94.5890935009259
94.5869329410804
94.5366404097475
94.5486147650066
94.6530671297937
94.7520422493482
94.7043886765667
94.6613554676343
94.4550947725747
94.3966617480429
94.520426100404
94.4337115136449
94.3497283110388
94.5717078426832
94.6193072451662
94.5555334693421
94.4124825115651
94.5173274008024
94.5681057918216
94.5939183359042
94.5671643475191
94.7325732751326
94.7286368152823
94.6481961184752
94.6965742846007
94.9034168712196
94.926139467567
94.8988805562152
94.7143535777431
94.5861361629139
94.6119949892214
94.7794163945186
94.8579939964768
94.9506707514596
94.9168574600531
94.8624679847076
94.8087609805583
94.9219035168616
95.1012885363447
95.094409331885
94.7225703969235
94.510575542736
94.5737568464606
94.8320891945463
94.9546286742321
95.0528338404895
94.9637746845233
94.8332353264415
94.6273516814021
94.5906618886981
94.4875188495807
94.3799137471618
94.4876520250346
94.7253858659251
94.8087285104136
94.9030782750451
94.8609867923863
94.816825534714
94.7249111930238
94.6793402152843
94.6134931399546
94.4381819997922
94.1347121643006
93.9827212272484
93.9963423071212
94.2422185402778
94.3941855385308
94.4641542697086
94.3518382435983
94.2545994690313
94.2031115333497
94.3232693334049
94.2935037773276
93.9200726750807
93.6632768972093
93.776148823854
93.9025854333405
93.9928717575577
93.8102474032166
93.6927227820395
93.6617765170408
93.6453925888832
93.5063795773301
93.5921476688852
93.5564127446777
93.4416839566845
93.3739146889264
93.4218222634795
93.320720830356
93.2763491948526
93.1359059234296
93.0143290379881
93.0537744579455
93.1916653532434
93.1097473572296
92.8967534993261
92.5954752763678
92.6153104769848
92.7355316860511
92.7587974098238
92.5955292711782
92.53763757644
92.5002250952332
92.5801609167253
92.5861401024354
92.4034371554808
92.1062271110111
92.0024094297791
91.9236787810588
91.9696458444795
91.9565362395744
92.0173528526057
91.9863800196978
91.9277123644193
91.8561373714265
91.8678572252533
91.7741537299083
91.6202927503197
91.4848921518099
91.5835539542977
91.5924440729
91.4654011083987
91.2755300213466
91.19089578878
91.0973787048692
91.1057504042709
91.1179823012531
91.09954256735
91.0804020762591
91.0828438652612
90.8170206910105
90.6215561606122
90.5789096832861
90.7042094026644
90.7206923913491
90.6618878357412
90.4902522810898
90.2915252594603
90.1440346288314
90.2353467312312
90.2152562651447
90.137947852925
90.0843875083035
90.0560704823735
89.9002429420048
89.863560717764
89.8604647717742
89.7826446872161
89.679090439444
89.6737902230488
89.5140780200893
89.451827476669
89.322379822078
89.280157659274
89.3619062532694
89.2945064005113
89.0961213463024
89.19715045663
89.2062136379517
89.0631159607234
88.9300306122097
88.8662401099435
88.6997670267662
88.6609543850141
88.6380889882545
88.6527312592645
88.5968383187947
88.5798273978804
88.5538016297817
88.446908429639
88.2180248537036
88.1956481894549
88.2245315291202
88.2205427216236
88.1608423442467
88.0993131060253
87.9706839295484
87.9960189393516
87.9737903786307
87.8868035565113
87.6664667449171
87.6324749464507
87.6799235371225
87.664518438765
87.5141297254269
87.4676338794825
87.4532013801204
87.4529545627109
87.4155295845529
87.4286767512498
87.3657786105882
87.3132955105231
87.1623506441439
87.1376245258017
87.1954557175245
87.1504318760674
86.935261966992
86.8703722835353
86.9196196429624
86.9971932864723
86.8799616486703
86.7777617251551
86.7757824134467
86.8593581165225
86.7664025840713
86.6812366751295
86.6245686770629
86.6289890411201
86.5352695467904
86.4732093715883
86.5292438912297
86.573502909501
86.4202603665756
86.4172405147244
86.4008817163585
86.3297371318338
86.2608162212416
86.3120636271001
86.3307283683691
86.2881573913208
86.1734340362023
86.1542048698932
86.1379200574228
86.1721190058596
86.127606813806
86.1386447646856
86.1079775052927
86.1199727783158
86.0930893782515
86.049887850536
85.9839029563547
86.0986173596575
86.0810089810834
85.98545193781
85.9309853740532
85.9277223887531
85.8412866518128
85.8263949144735
85.8415962035403
85.9097837540273
85.8674288650753
85.8620905276674
85.8663286174873
85.9204708314709
85.9441780759174
85.9704379386171
85.9478220175259
85.9312878149373
85.8067181216173
85.782852739187
85.8200336585082
85.8533391795198
85.8135398641526
85.8205531788668
85.748768790252
85.7852858688282
85.7976722340412
85.7689339663613
85.7188698033489
85.76321819508
85.7814618295304
85.8177588341669
85.7516562524316
85.6945320881907
85.6730524983426
85.7316032520702
85.7450899069958
85.7389051550598
85.6790940615571
85.6495540427881
85.612899619976
85.6585226661997
85.6250559798263
85.6978848890176
85.7729932463367
85.7411911141246
85.6144694267535
85.6855535789551
85.8008286518789
85.8660111410482
85.7482970916722
85.6420318869142
85.6905189082482
85.8112912180324
85.8443838654202
85.9064061724017
85.8452385384146
85.7751323172791
85.7630253786745
85.8294434372268
85.8016029195801
85.8073961822516
85.8346666490478
85.8782960423306
85.8440960452797
85.8868345304939
85.851133055985
85.7567820591214
85.7145683458476
85.8703367657265
85.8906974415261
85.9002559426
85.9921887580263
86.0900251903507
86.0459903012567
86.0587050355664
86.0158274675166
86.0448402757481
86.0756574294607
86.069861166027
86.0896154745577
86.1868936473892
86.2133934512535
86.2378432547217
86.1944128714357
86.274050282848
86.3742453358476
86.4077104313586
86.3392391243521
86.3504585898113
86.3572889630703
86.379381470665
86.4107287276762
86.5740732600201
86.6291150343454
86.5967796323896
86.5744198006756
86.7073225252354
86.786710244156
86.8027173170407
86.7718127506451
86.7781833141186
86.8063234542456
86.8998199340778
86.907176122127
86.9698247345571
86.9708981907089
86.9297362658004
86.9445117366472
87.0909737015515
87.2002616835249
87.1834221879884
87.1152726957685
87.1233501916226
87.1006127761782
87.2178532773148
87.3253599690445
87.4227058181938
87.4673589797931
87.474223470592
87.4142093227919
87.5032252134882
87.5667990705686
87.5608860738485
87.456928622648
87.4294185967561
87.5076802676889
87.6288302682354
87.6154103749983
87.5962400440428
87.5886446827632
87.6482910831023
87.6995930776362
87.7330802778591
87.7164575500028
87.8205464438611
87.9217730938221
87.953658008617
87.9214198823837
87.9111243745341
87.8613527370175
87.8933515578423
87.9493870661265
88.0124238121985
87.9964455618395
88.003015562812
88.0446986146349
88.0905010233041
88.0493426253454
88.0934274425993
88.0925690355211
88.0947205270853
88.1436460866557
88.2288719158731
88.2897734901846
88.3918163369801
88.422107456094
88.4141576133448
88.3355444347363
88.3909988745269
88.4843086786406
88.5093692739445
88.4891337493883
88.5446267288089
88.5362390706944
88.5596069878998
88.6138796778656
88.6231574202091
88.5496108808726
88.6496896272421
88.7479280682977
88.793285833222
88.8539291244545
88.9211822811056
88.8438199936916
88.7716836870189
88.7818251157711
88.8838165575648
88.8608230342811
88.7789238436803
88.8030872180499
88.9085494676959
88.8994799482475
88.9122904577464
88.9320275183429
88.8933316687125
88.7828603108779
88.7688302449071
88.7512764196912
88.7761760398353
88.7576994130699
88.7794221602324
88.766162889061
88.7048798424718
88.6080027356142
88.5647928630005
88.5184588761352
88.5091800079546
88.4409957995389
88.4336615455855
88.4299744924563
88.4009628894457
88.3204606686847
88.2439772550142
88.1627849665459
88.2005894073319
88.2425840827235
88.2609501989884
88.2105249288114
88.1711155211968
88.1126649625624
88.0979200849308
88.0686625036168
88.0679556772811
88.0275915746021
87.9843893668065
87.9297910022818
87.8994027104294
87.8588481500187
87.8790898512946
87.8728328169212
87.8487902920878
87.8464677196376
87.9112928213243
87.9733995399307
88.0308312008789
88.1457728387434
88.2907738483026
88.2875734553286
88.3110596051538
88.3647678036662
88.3984240959815
88.4051097501529
88.4594460273932
88.5089732288155
88.5509282370399
88.6068423749493
88.7191172055326
88.722649803019
88.7250362031172
88.749391851262
88.8184010905577
88.8687454300876
88.862061858104
88.8041466277378
88.814589123433
88.8374403642407
88.8287399526711
88.8291158282734
88.9465801812366
88.9761379672104
88.9508475094835
88.9058565798615
88.9240576834892
88.971879566225
89.0349925368284
89.0683600800469
89.0937981854636
89.1518292436607
89.2192944099048
89.218770958631
89.254687851089
89.2866528977032
89.3262307457558
89.3599213356712
89.4194163308581
89.5122699748493
89.597593318209
89.6009778257964
89.6363225032407
89.6914178410856
89.759288892352
89.7616270727076
89.7837052072229
89.8317205005625
89.8622092899619
89.846841409611
89.9079689205582
89.9399563480173
89.9475225276007
89.9873050464586
90.0653238956086
90.0745425115989
90.0676330678247
90.0838298169253
90.1225968134559
90.188992320088
90.2457217928665
90.2455087832551
90.2661209395723
90.2639839322279
90.2487249688446
90.3118644247418
90.4167938069733
90.3931193399445
90.3581083238054
90.3387883429689
90.363770901771
90.3736935445382
90.413849075791
90.4501194508518
90.5174386461172
90.5749536012912
90.5476613165644
90.5001993917232
90.5823672718501
90.6264568998443
90.6073382589251
90.6250996063879
90.6501677091155
90.6473238116312
90.6601396582297
90.7077415184439
90.7437347211002
90.7437990844021
90.7600170438795
90.7552582411047
90.7752272203951
90.8105734117171
90.8549552320836
90.8313860474245
90.8323558574395
90.8543236923357
90.8927202108329
90.8995621782647
90.8885454813962
90.8912750944893
90.8946006502142
90.866576130033
90.9275555350791
90.9737865082554
90.9882140110868
90.9850952778829
90.9666181663882
90.9683775640226
91.0286122168012
91.0823515190345
91.1077634490382
91.0745394210947
91.0743058924503
91.0958199944493
91.1256658807287
91.1418117904092
91.1758890702371
91.1961940750229
91.2199859606699
91.2306877025779
91.2555402046224
91.2473493657715
91.1986926043874
91.1867325177409
91.2357831602466
91.2485934058187
91.2634327844598
91.2965768605186
91.3186822166331
91.3105585894727
91.3409434060896
91.3412630106893
91.3368414212244
91.3621547195775
91.4045705213031
91.4013633814713
91.3840280338335
91.3745073428268
91.4067035081993
91.4222993896411
91.3957714181846
91.3936788269894
91.4708301569362
91.5278594253158
91.5396136761426
91.5352628713249
91.5726570910736
91.6089594436818
91.6121217298515
91.6264428460756
91.6561357269774
91.6130866009945
91.6236982637421
91.7089941925194
91.725127313913
91.6854972460703
91.7573518574538
91.86769816744
91.9322523277052
91.9087131378235
91.8694897779516
91.8391648209264
91.8988804185663
91.9612770965909
92.0066134773275
92.0102589901576
92.0236827292823
92.054389824421
92.1045330363015
92.1457009138335
92.1279076088888
92.0441774992666
92.1137593079119
92.1867623874491
92.157784675765
92.1548438558254
92.2241780083192
92.2803716793324
92.3459712593516
92.2922445210975
92.2288557858587
92.3020997242309
92.3779333374007
92.3764363946521
92.3911848149388
92.4105722164816
92.4664184916324
92.4738264177654
92.420415517204
92.3334866604545
92.3847890596404
92.49063609109
92.5449042899665
92.5454098789344
92.5399839902001
92.4852162836704
92.5078874393552
92.5520380860942
92.5448331862436
92.5615404588824
92.599040515267
92.6537323437922
92.6645895528473
92.5936677658151
92.5761527085375
92.6224473820279
92.6626151327678
92.6964293432659
92.6949966817771
92.6153304545226
92.6090316443285
92.6966057441985
92.8301910628272
92.811244802275
92.8103343958038
92.8787107086444
92.8175519223621
92.7371873030329
92.8294867133496
92.8922631096251
92.8559449817963
92.727734252911
92.6805379148341
92.785261644468
92.8588481181766
92.8200903812331
92.8069838915214
92.8097307892855
92.8443013086356
92.8961871445332
92.8758366848419
92.8073484532244
92.8885624466373
93.009277498805
93.0267251562261
92.9519466598777
92.8842454580477
92.9174740943503
93.0151648406623
92.9903768419887
92.9141499805385
92.9106936328237
92.986795635329
93.0366363167966
93.0399325644346
92.960414026683
92.9705211415585
93.036203900156
93.0243362366516
92.9995744682113
93.0632853152724
93.1101767400704
93.0947520820227
93.1000144462944
93.1016190512022
93.0737542983812
93.0701375803861
93.0878488002011
93.1286754602566
93.1032239362794
93.0645946411222
93.0767740934821
93.0467665301317
93.0059007203093
93.0837033628544
93.1180071016201
93.0674583192231
93.0631131157307
93.094288316051
93.1087794271511
93.0828725257364
93.0811142936557
93.1192408449384
93.1589126892197
93.1848767023197
93.1392368753568
93.1335252914171
93.1343300772238
93.0797619656992
93.0865671081169
93.1011285181679
93.089552292333
93.0606786471291
93.0531484527883
93.121334753689
93.0994329972472
93.0634934517285
93.0842563494324
93.063154881541
93.1137220867329
93.2640563171335
93.3634951092328
93.4184512696262
93.3829744286522
93.4193993438877
93.5088780832537
93.6020699318367
93.6667677859727
93.551277239609
93.3475124770433
93.2460426612465
93.3148397199827
93.4143434114523
93.3914899076908
93.3629172938815
93.4131435763693
93.3720185554882
93.2380983919568
93.2289801440378
93.2856289675376
93.3083670204567
93.3281630640244
93.3344460803976
93.3457655882024
93.3756414066386
93.2729585364492
93.0968011173155
93.1139168188361
93.2187307774952
93.2293544574371
93.2146908100506
93.2533722842357
93.2905881948712
93.2891350457331
93.2963354512776
93.3193733737239
93.3859933294366
93.3959429421602
93.346494429044
93.3240457367944
93.3566201437852
93.4039801737266
93.4018727715916
93.3977264557755
93.4987583438525
93.5726828066368
93.5984593366417
93.5916790943963
93.6264494585031
93.7248546898964
93.8072924697053
93.8418329803593
93.8494915920632
93.8471996589528
93.9235286555292
93.9255478032006
93.9304769403537
94.0007552001505
94.1583872289513
94.299088718029
94.3199646037171
94.2293291109945
94.2272925129204
94.3924714662777
94.4123326551712
94.3766130459666
94.5992975419738
94.6844043737841
94.690828528872
94.7004379348758
94.5707593908354
94.5487349708663
94.7070098209675
94.8170306961557
94.8465725913161
94.8389269147208
94.8332420220261
94.9624000623934
95.122015435568
95.1264668377134
95.2704502821303
95.3080877807825
95.3107921331484
95.3072993385285
95.0666016054856
94.9867454991349
95.2155019067488
95.4938452508507
95.7781862096427
95.7878006617266
95.6966955573224
95.6719503871779
95.713598652441
95.7038857771755
95.6462890730927
95.7080706892695
95.8757085599465
96.0128006094258
96.2757542843235
96.1290770861153
95.9176720908935
96.1809222538354
96.1917114565638
96.0765153131004
95.9942263474458
96.5419755324607
96.7123855770122
96.4493601177923
96.6404331803279
96.8644375393961
97.0857427802103
97.1862702902863
97.1676419880432
97.6248630710481
97.9331340082593
97.9223924294887
97.6499054231572
97.0882807940519
96.7684276568364
96.4517405585971
96.4756023110672
96.4264646632324
96.0946791176909
95.9973733788494
96.0365928414505
95.9451564598513
95.7059993503366
95.717006206695
95.7292565603271
95.5021529518416
95.2489860026021
95.1713722132235
95.1291425501462
95.069506024541
94.9459510579581
94.8533849215145
94.8479132710574
94.8358631425234
94.8579058328597
94.9376393337355
94.9576558930324
94.9519154000239
95.0059543631211
94.9107433115824
94.8312383569389
94.9064689424077
94.9517361073842
94.875828548129
94.9474867008902
95.065216943894
95.0547000609423
94.9371831519429
94.9230456823041
95.0464221361522
95.0299253565063
95.0048394054209
95.1414488251074
95.2037730633794
95.2187903884464
95.236224377077
95.2496505341313
95.1939759931874
95.2805877436834
95.5046619012684
95.6714650249105
95.5850050565011
95.3600563020913
95.4360935952498
95.7495651357922
95.8580343210474
96.0377239706297
96.3493360191521
96.6301601611641
96.5948030179081
96.496213144967
96.7227310708288
96.7216114281204
96.6917915898784
97.1479452632208
97.522018400811
97.5442123869522
97.3573075685426
97.3098961696486
97.6811084320491
97.9580968593758
97.8169921058266
97.64314503678
97.6257878017548
97.5137275840704
97.3593802995977
97.4760582157984
97.6096524892012
97.5258825027809
97.6394859871695
97.5764914169346
97.3187834663075
97.0347140033162
96.9144404102946
96.6632831405494
96.4231324237935
96.8282997830276
96.8812570075729
96.5872838790369
96.7723027486996
96.9152080664608
96.8724249120883
96.7774777651875
96.8535550602305
97.0615659133647
97.1063043915137
97.1023546252555
97.3607221099493
97.7127729179211
97.6762768396166
97.3886292149586
97.1024935819819
96.9869095276668
97.1823358008542
97.4144715017843
97.4378401602282
97.2038846948249
96.97236596948
96.8439408850249
96.6142749015389
96.345797661799
96.2854767998477
96.2008473108357
96.1411188048329
96.2845602361815
96.2337342398071
95.9768929482669
95.7460283788778
95.7261303433272
95.8524640253689
95.8900796470652
95.8012393238829
95.7421767118658
95.6944985701881
95.6172110675963
95.557344878783
95.5552430145352
95.476625046274
95.3811820198321
95.4397113336282
95.363967519316
95.2753761496075
95.4169961024931
95.4617298096418
95.3790281759978
95.3990374296523
95.2734235684599
95.2405220008007
95.3085744518197
95.3042981868811
95.2790910281206
95.322139735058
95.2850559107383
95.1663490354301
95.1468039684466
95.0392198467043
95.0823355792193
95.1303433918984
95.1883349258003
95.216290832719
95.2024460683307
95.2207719362789
95.1793868966765
95.1441610688552
95.2299358756921
95.1826022343379
94.9668744997319
95.0259592257436
95.1539451161371
95.1163632551229
95.0768418921854
95.0988077629763
95.1176047236368
95.1312229594129
95.138019909819
95.1610338615298
95.1937785971762
95.1267579668994
95.1527365488428
94.9619686336737
94.9302155733041
95.1000895812453
95.1788757085911
95.2027691337758
95.173328369225
95.1649263801146
95.1588189499252
94.9862145118185
95.0501072825093
95.0409693928234
95.064984667044
95.2099744422737
95.2207548899081
95.2022792845239
95.1859372449121
95.2274806882245
95.1965766502938
95.107319264413
95.1020854126251
95.1334441962134
95.1567406517417
95.1281293481163
95.0431221805361
95.0038052825985
95.007402620275
95.0570726111942
95.0912303853413
94.9151617649505
94.9105729519389
95.0043816321633
94.9776132125949
94.8718254327819
94.8891039659989
94.835916390987
94.7835884311107
94.8267404908806
94.7696567383489
94.6642097181041
94.3366089101229
94.3806467110423
94.3064880019723
94.349250296847
94.4372320489714
94.3157233849923
94.130393302481
94.1672721309519
94.0252270473113
94.0983495777787
94.0991411322515
93.8285767892123
93.6555492592696
93.5727285309925
93.6251922637311
93.5826588468394
93.558424145577
93.500730380083
93.4215105917509
93.5441891817258
93.0673171520913
92.9315121198931
93.0088449783754
92.9314546888353
92.9640409963336
92.8970539263126
92.7428662444099
92.6394534571311
92.438861737393
91.9197857475463
91.6151068883319
91.4259026809307
91.4217888381175
91.3398292985428
91.1293924040884
90.8078872099462
90.4448428086955
90.4249144973821
89.9627451961632
89.5447433346317
89.4891768004485
88.884845593642
88.9750081785813
88.8527432708898
88.5958427836965
88.3783770466917
88.1310907812897
87.2458097140544
87.0387231238126
86.9532669983378
86.8511899159507
86.6698314109409
86.1488595575107
85.9269918141192
85.5425279080525
85.0663369509606
84.9186090363203
84.841670617
84.4756925455921
84.0905114134555
83.950457111512
83.7271194624962
83.5253991755336
82.9724324309161
82.1407473661185
82.4459159164642
82.3755610298882
81.8665666307829
81.6891709562079
81.6906683938264
81.5309991421376
81.3407737839664
81.0084745628267
80.350061579735
80.2212841708286
80.2920226978712
80.1259539268372
79.8293386867463
79.6032716311757
79.351020591846
78.9956849722739
78.9472766267255
78.7621361679461
78.3066658779983
78.0796335141163
78.1008037919709
77.8215174186946
77.5577138896606
77.2955556310356
77.1221528219333
76.893661528406
76.6665297010507
76.4544160513248
76.2904486323515
76.0520099550152
75.8463749274479
75.6867559307509
75.5458835241247
75.3577824188518
75.238525589672
75.0665642388824
74.9204037030525
74.7963567744519
74.6910254695702
74.4251499589577
74.0003713758232
74.1592382989407
74.2860515985381
73.956378853454
73.8228975859086
74.0842172884891
74.0632953317245
74.1262580444137
73.9117086985135
73.0615470520389
73.6076007638956
74.5462271023652
74.6850378137968
75.0258990761811
75.1268571585417
75.4671158978539
75.7112913583983
75.7248972728628
75.8525951593507
75.8226686962743
76.469775236442
77.5947564110651
77.8427048713839
77.7674790897898
78.4244516463163
78.7931596589276
78.898127139129
79.0589843693766
79.4011513130995
79.359501505615
79.660553463296
80.2184837973256
80.2410176101282
80.7364099637202
81.0699954138877
81.2267366484803
81.1822595568395
80.7755658430566
81.4490144804406
82.5575955312103
82.8169440761004
82.8271503408244
82.8222650701594
82.9719614090529
83.4953409374168
83.7258191677828
83.481952614401
83.622300403843
83.9901744622161
84.3209092686014
84.4658365691392
84.4991298567496
84.646743458167
84.5925325808934
84.3919924704553
84.1627159813936
83.9602989193538
84.3176554538488
84.2968133700923
83.9902077178107
83.6197198203551
83.690658229679
83.5485168265849
83.0590267253268
82.3345264383173
82.5635727870915
82.7308695323032
82.6148286260909
82.4609798498621
82.2249949584886
82.1825780213977
82.1413215498224
82.0540122342454
81.9651676757272
81.659757214366
81.2031110285671
81.3895725337738
81.3431645140538
81.0378163487714
80.7967637909012
80.6741843084371
80.3806516017582
80.0078245572826
79.7557014020507
79.1738096627594
78.7946053503947
78.6878169256769
78.4025722106887
78.036609722165
77.6564195945915
77.3568693800086
76.9712260209009
76.5888788922015
76.4054703022648
76.1926027332593
75.8162684082343
75.703056764681
75.5433984658242
75.5702739636132
75.7120802259758
75.6293850118773
75.4291411729947
75.4376152521619
75.6201788496355
75.6488609013597
75.7102993349237
75.7465489436076
75.8040821627487
75.774687026461
75.9288224539045
76.2129632161801
76.3290962892568
76.4919758842561
76.7072687327167
76.7209281455201
76.8298658137988
77.199899043775
77.4678888589445
77.6499042933546
77.8240459389295
78.0065344021231
78.192659936908
78.3777694151443
78.5611511964076
78.7623427338194
78.9493486263071
79.0239185522248
79.0649983581954
79.2958406976455
79.5501660804489
79.751061779725
79.892396384104
80.0067957694071
80.0960604836813
80.1611064141344
80.2380217315364
80.3126646960602
80.3460098983718
80.3484768603155
80.4111333752776
80.4767195521624
80.5083850345934
80.5855057030103
80.6507655805597
80.7063786566616
80.7918466634926
80.8596392815675
80.9316946632026
81.0205192030863
81.0920807287084
81.161358847175
81.2664993574581
81.3929763427794
81.4896970609985
81.5610289317128
81.6459367129825
81.7520836695398
81.8164491010508
81.850373473303
81.8956377258098
81.9505040203359
81.9983476380651
82.0293788252674
82.0231573297948
82.0377509498176
82.0613704053845
82.0795084498839
82.1064597598738
82.109955527775
82.089875390881
82.1047628037767
82.1294440159809
82.1418686731292
82.1813523008674
82.2188997492391
82.2410168201226
82.2589269627166
82.2506400668265
82.2482004642746
82.2620327442493
82.2379258326031
82.2241738054752
82.2619888318208
82.2965181758691
82.3060841307737
82.3106011657032
82.3223190078484
82.3717305201787
82.4269627445282
82.4586820283084
82.4954639536586
82.5506014235038
82.6303149278664
82.7031007133128
82.7595771251155
82.835317086475
82.920162042274
83.0027166836976
83.100129696453
83.2039546645971
83.2856716101264
83.3688923166246
83.4796464258894
83.5816328043983
83.6906712861321
83.7903867396339
83.8599804795972
83.945493112993
84.0141279001355
84.0911050521783
84.1631412609492
84.1926943526301
84.2198850460794
84.2355069908234
84.2108876908716
84.1644061336805
84.1351212662243
84.0899443663099
84.0216111918844
83.9679449507716
83.9152857459881
83.8551173345529
83.7785299140327
83.686258500699
83.5803297573182
83.4659398219359
83.3859985874631
83.3039352139527
83.1787612323869
83.0345542533112
82.900793419237
82.7809822999902
82.6531486311769
82.5091313201769
82.3550763632569
82.1982214831715
82.0391341731869
81.8763655011935
81.7151937308191
81.5511339671141
81.3837412810623
81.2482770382449
81.0958455486738
80.9325907518698
80.8075660690519
80.6737696758404
80.5333411757056
80.3991869074913
80.2609996034646
80.1311708241183
80.0157472358339
79.8719523394899
79.6815623500399
79.4753615174995
79.2473835323896
79.0202747737918
78.8002010722007
78.5564844460878
78.3083458510571
78.0847182462754
77.8817411877027
77.6813852795668
77.4686899751064
77.2501414770261
77.0331553412184
76.8150208662274
76.6025163786043
76.399568164161
76.2267260574119
76.034058988505
75.8063005419315
75.594567787311
75.3952389577401
75.2054230209862
75.0100450332655
74.7864339441516
74.5792775804148
74.3944650295285
74.21070759858
74.0288145381718
73.8426196346471
73.694830685247
73.5748388084952
73.4461920394152
73.3327343538418
73.2344032511546
73.161721796123
73.0685495827432
72.9910345781978
72.951200201843
72.9201050855432
72.8957487370355
72.903640198505
72.8932434818119
72.9126545970711
72.9713340363893
73.0548892123151
73.144542414507
73.2513931865806
73.3739933890668
73.5141774876048
73.6686481316937
73.8860177571444
74.1031574699352
74.2997471069147
74.5292925685138
74.7644879870109
74.9791587627034
75.2006819317732
75.4243204049043
75.6433274114387
75.8722229719604
76.1067947508494
76.3030001423151
76.4961051419699
76.6751956929812
76.8662936323845
77.0392697873612
77.1781901891527
77.3205560413233
77.4784104744263
77.6333129209071
77.810044668147
77.9966286410763
78.1804632002379
78.3857618034098
78.6004067415947
78.8177523898277
79.0299277443385
79.2003166714378
79.3755434260499
79.5651073086375
79.7426086283231
79.8913486631697
80.0676501302082
80.2468361769458
80.4025819658121
80.5774761819261
80.7413854529059
80.8844564501565
81.0435220304239
81.1972442333375
81.3270499421416
81.4763080973278
81.618876366944
81.7181761034055
81.8403775213472
81.9321584841137
81.9818208665926
82.0530793126764
82.1507765706378
82.2136056273454
82.283780497414
82.3456749824092
82.3871126121017
82.462379607159
82.5143210529118
82.5877878519545
82.6996718085521
82.7758652871056
82.8302707069804
82.8814680764023
82.9813526660202
83.0869224449374
83.1179882668214
83.1112630748758
83.1260657936271
83.1333836203733
83.1591911167716
83.2116298781364
83.2523677154218
83.2530207903181
83.2670850859599
83.2707111961602
83.2809170635088
83.2798003351235
83.2788368340991
83.307406196406
83.3361697239067
83.3225210807066
83.3041806305579
83.24427804356
83.2323263781169
83.2589294640483
83.2978326254958
83.3192580581103
83.2957954122366
83.2752890450874
83.2929338102552
83.2839625669374
83.228093890831
83.1589391164391
83.0683286339137
82.9647000180932
82.8617453134521
82.7336727215819
82.6624822096935
82.6071141745227
82.5595425989393
82.5177767690063
82.4789972561486
82.4205160170591
82.3329458841736
82.2780132667713
82.2821086593929
82.2190489583382
82.1353451483028
82.0368910957701
81.9126009218227
81.7873078212247
81.6927738803927
81.5930519085644
81.5164688193767
81.460779494143
81.3808211436563
81.3223287521209
81.2593723641455
81.2150235998286
81.1736770140436
81.1147123815805
81.0451485370176
80.9571353146135
80.8923680153485
80.8517450024604
80.8310002557205
80.7747454882039
80.7425536702274
80.7138999747414
80.6850008421003
80.6469821583268
80.6300215264487
80.6157216815794
80.5892471435007
80.5054662918354
80.4374518671785
80.4008623798495
80.4131899226646
80.3971878462528
80.3101675756346
80.2279868004278
80.2677367558139
80.2528702274168
80.1586315389967
80.0773064706728
80.0512296376363
80.0097532587659
79.987448752973
79.9696367602562
79.9326446063578
79.8519467234369
79.771098651714
79.7020896995946
79.6716326134738
79.6275170520412
79.5352204363991
79.3925346388012
79.2982502874382
79.2532216292031
79.1610300160962
79.0472253036208
78.9995503757054
78.9168946015325
78.8115563101445
78.6751197993567
78.5430788809173
78.4168057470055
78.3799275699568
78.2677081230685
78.0989079990762
77.9611497578638
77.8568747653847
77.7302218129909
77.6919745439852
77.6546901690057
77.5756164191657
77.4955065659404
77.4606692550749
77.4177557456775
77.3283862874166
77.2350352954961
77.147092801871
77.0014490477138
76.9342097988189
76.8244928561725
76.7851402776348
76.7419753586543
76.6635252951627
76.4199334577599
76.606623880461
76.53345429475
76.2744497608644
76.1991208536607
76.0590436607841
75.9323514556634
75.8992135392056
75.8497044880322
75.673108779532
75.607989172543
