1798
3999.43349933624
650.420452594757
1
128
4
96.8076291007157
96.9017255781095
96.9111824690477
96.8103451121288
96.7775686084109
96.940909809298
96.8753883679025
96.5423028482701
96.5178072814247
96.656064107107
96.7866355766613
96.5198853421797
96.3525913097767
96.7878748572906
96.9848887806849
96.9351804583648
96.7021103085498
96.8101298517838
96.9516198969702
96.6966146765046
96.632701466289
96.782017093597
96.9622680812976
96.8098457145794
96.5348635029114
96.384913808233
96.3976788079164
96.5160421883345
96.6588181443583
96.8097086944802
96.6160630220223
96.5702624393656
96.7284674791438
96.7246887937896
96.7218782820731
96.5506567572276
96.5250982169854
96.7539258359928
96.8534522853555
96.743927632214
96.6123251944302
96.6217580768369
96.5473168170021
96.3990679428976
96.3501520151547
96.4551377889832
96.7082218008493
96.8032597350077
96.776602607153
96.6300688507694
96.5158082041798
96.4960278265586
96.6242328501909
96.802368583628
96.7658044909187
96.643392161303
96.6440626485114
96.7677730898734
96.8283084229283
96.6706648697443
96.5459914497237
96.6369360929676
96.7263458002109
96.723013958485
96.7385912425865
96.6938011577772
96.5395388252466
96.5396135339597
96.6732397652272
96.6081640762348
96.5574767160086
96.656302313835
96.7284346933731
96.7114491775933
96.6973401041882
96.6465231999537
96.5750330416009
96.5541917469723
96.5402326391636
96.7297407942739
96.9844351287437
96.9871079517128
96.7693772410721
96.5628327946349
96.5389319016521
96.5728478562214
96.566019802167
96.5577822546383
96.5727809013627
96.6776914379054
96.7377829706213
96.6967331178364
96.7295690532886
96.6586722897298
96.5387988457257
96.532843419257
96.6160158376563
96.7352033106487
96.8657989022664
96.9435242408665
96.8914061143394
96.7658236778691
96.681372796042
96.6173858026729
96.5901258773114
96.7148948238061
96.7522604285474
96.6203979490952
96.7507929387193
96.9322276320764
96.8709152278783
96.8067308729674
96.8037900730979
96.7308610450855
96.6704698162299
96.6294639848565
96.6174276446306
96.7170465159764
96.8346472417791
96.7877989923228
96.7367828041886
96.7586715947181
96.6870925678985
96.5098282945741
96.5668501761153
96.6915362811067
96.7602934158203
96.8482600880161
96.8533563842682
96.6904288697996
96.5488293061159
96.535166023124
96.5855839103264
96.5217983113639
96.4091215065039
96.4132577493816
96.6329507473143
96.7916802964251
96.7045365594182
96.6445938331728
96.6777614455877
96.6677507218642
96.6113279948769
96.693647810289
96.834899254527
96.8129026473583
96.7858919274752
96.7940859139842
96.6951461615183
96.7007541145372
96.7504399179104
96.7703943545347
96.7586909200576
96.7048667838742
96.8023634720449
96.8074940808004
96.7219246816649
96.6943992382341
96.7779917966415
96.8544015717489
96.7887119781091
96.7347807194942
96.7432684974638
96.7107091378448
96.6100175940046
96.6284971020571
96.7121269907916
96.7641898573859
96.9326823018284
96.9603728303103
96.8091401182409
96.6662326525494
96.5312323232046
96.5387089394319
96.6069456315129
96.6695509574347
96.7096714863656
96.7420317522196
96.7989328079961
96.8673692993397
96.8276188514976
96.7668235883991
96.7507732860989
96.646085616943
96.5879191068745
96.5742973119379
96.493537154822
96.4865557219673
96.6210056210267
96.6076081791573
96.6468769190164
96.79733417872
96.6842532488338
96.551352631208
96.5975909901242
96.5975042106944
96.5883231843305
96.5929351652462
96.5069456439635
96.5603803250248
96.617545607994
96.5610033979278
96.4892245479447
96.3928084925318
96.2970474244828
96.3161175338371
96.4811320015974
96.5314404279272
96.3903121663837
96.3234387471249
96.3132103495752
96.298818631324
96.3391918246839
96.3474908965367
96.1650277206285
96.1387902544144
96.2540347782552
96.2124194278727
96.2019646722691
96.1831711457919
96.1461699041233
96.2004684159129
96.2038125962678
96.1591874717891
96.2022717602457
96.1660135627409
96.1561963503767
96.1410014491062
96.0483393656366
96.0534742968733
95.9997672815828
95.8381148062594
95.8493068860639
95.9846297728535
96.0886458993184
96.0617354442406
95.9786226373385
95.9856864932744
95.929930168176
95.8330208496636
95.8039996209876
95.7845767399704
95.7799501579777
95.7541592179306
95.724439277318
95.7718139226691
95.8622883552056
95.8248871218546
95.7069531301318
95.720324481909
95.7510242228493
95.669367916189
95.5721767245383
95.5415750579188
95.5637875503168
95.6060508924569
95.659471068238
95.7596985970267
95.7213780745186
95.5937516757465
95.5797793142158
95.5559424051408
95.4529972921563
95.3296450435215
95.3175882163092
95.3893869793579
95.5069082987472
95.5619638788357
95.4700921489499
95.3530539281565
95.2285216043958
95.1853601632792
95.2877967617102
95.3695306065922
95.4126193478761
95.3796208529545
95.3303370884346
95.2801580469202
95.1919745921988
95.1676247248761
95.1908873178091
95.0929874569656
95.0461522342358
95.0950683576288
95.1139425949866
95.1564449934432
95.1893275466482
95.1776625940165
95.063331258174
94.9567354524505
94.976328475521
95.0567620679654
95.0785648130448
95.0709082562426
95.0902917896942
95.0408903993573
94.9044981751213
94.8185881267431
94.8466439277401
94.8814345352712
94.8464466690342
94.8150605895746
94.8392779831251
94.9745643422156
95.0253419064813
94.8425254422679
94.7559240481268
94.8111025624842
94.8089104352547
94.7572303132921
94.7806486032004
94.7894674859904
94.694530267404
94.6139086912136
94.6315432120959
94.6943490719613
94.751444416793
94.6941770109802
94.5856940736071
94.5864088696106
94.702676742655
94.7135147967931
94.6097872743129
94.5501463508329
94.6097769121674
94.6705262548526
94.6524607124698
94.6608154554942
94.5908727352165
94.5593373256762
94.5570585486248
94.4725456595147
94.4640290394435
94.5468276909604
94.6335385430215
94.5855542304356
94.5266068460928
94.6141109282385
94.6717521622962
94.6359360864426
94.6532735034591
94.6216718683445
94.4607369824233
94.363302422117
94.3806844484739
94.4268515510626
94.542405718077
94.6277230832031
94.5573176188714
94.4687626454335
94.4992233096815
94.4649396105397
94.3501275935132
94.3649530223059
94.4404264995149
94.448999820556
94.500671038301
94.5043245002413
94.460190716208
94.4603736085701
94.4854400860175
94.5183844377873
94.5250960837665
94.4603894483105
94.3660730692711
94.3500045030373
94.4026424785321
94.4060417185392
94.3963118040946
94.4703889257106
94.5155233334013
94.4799973607597
94.4104098954059
94.3999744255016
94.4629062261007
94.5381428470064
94.5852129801378
94.5568156969557
94.5230206326218
94.4734956615689
94.4208401977227
94.4136451223675
94.4376448968945
94.4471713438821
94.4374301263201
94.3894319673903
94.2998071804812
94.3102289232068
94.377517503978
94.3732627254696
94.433694493494
94.5445989331421
94.5600669732343
94.4799035589891
94.4174049140294
94.4818570590332
94.5105721066875
94.4654608264706
94.4060159805548
94.4250093326979
94.4416077178894
94.4385611950663
94.5150659044942
94.5843267219831
94.4431762352956
94.2726882523758
94.3553717852681
94.495755864705
94.464892439817
94.3832129183472
94.4448726555032
94.445419500296
94.4463794992094
94.5271193468371
94.5435665701547
94.4704070377356
94.4182486842797
94.4699329332855
94.501703054699
94.5030317331373
94.544259151422
94.4853084896342
94.4901097835492
94.6319605715141
94.6710144176955
94.5464902230544
94.4736308876738
94.4553638308021
94.4627231928309
94.5528836472667
94.5925615708898
94.5826623390505
94.5866316128601
94.5922970548122
94.5851936989806
94.5386240189103
94.5517488514928
94.630726818604
94.588509568091
94.5453035973952
94.5827876149065
94.6600854858981
94.6948820955511
94.6254285028418
94.5582952170733
94.629271456425
94.7012829371986
94.6199672447592
94.5692870262241
94.6312249066883
94.6791486790953
94.6844393514968
94.6860900525868
94.7070017186096
94.7561054248645
94.7856746201762
94.7099964655214
94.6349701605845
94.6665374168997
94.6982729773543
94.7294430573419
94.8079491289595
94.8573959347748
94.8272057024231
94.7429325456422
94.7432838407135
94.8300422895818
94.857844091723
94.8062195317581
94.7846157806114
94.8252976411851
94.862917814597
94.8747214849672
94.8622601618732
94.8127309776731
94.7902087212119
94.8194839027188
94.8682609544685
94.9254978183998
94.9586598659811
94.9602143518599
94.9532950448368
94.9155778870656
94.8841468638959
94.8769358870907
94.8188037213431
94.766814245976
94.8355605469179
94.9601782835046
95.0438143574088
95.0004077899189
94.906289727057
94.8933401187152
94.9077193538216
94.9736885985596
95.0888948854374
95.0942850163139
95.0385423445868
94.9860832156166
94.9608534595573
95.0139691499657
95.0609143558802
95.0108404764936
95.0031603021703
95.0215243243374
95.0325276845977
95.0394611469874
95.0363374149593
95.0956746264476
95.1530433904486
95.111929048615
95.0707189064482
95.0793617636319
95.1192460388582
95.1350851482732
95.1521846612306
95.1617110491077
95.1353974063141
95.1363795049733
95.1479570668574
95.1268931774092
95.1743554401375
95.1960748899066
95.1656446304501
95.1526312599999
95.1368609324211
95.1395735371734
95.206094987179
95.2606357967313
95.2725053125135
95.3353319525504
95.3555415448119
95.2428027011161
95.1364069021384
95.1228998358164
95.1867959969555
95.2343774326422
95.2474804585009
95.2487039826976
95.2425034029676
95.2617651964642
95.3389306226702
95.3366736931116
95.2731964122555
95.2560113696592
95.2425913922604
95.2012145926238
95.197143157423
95.1613890363354
95.1152246338843
95.1308535842963
95.1224107599859
95.1104735919755
95.130312639179
95.1503435790899
95.1391701990141
95.0816489758613
95.0586470503421
95.0937245281537
95.1177227138677
95.1016874757094
95.0981522345251
95.0945489960597
95.1341148793686
95.2270995141473
95.2776209407196
95.2622009184583
95.214019364227
95.1066090218895
95.0665004490067
95.1829837222809
95.2090451664998
95.1239721374794
95.1500131415501
95.1921906565854
95.2210542501811
95.208719549272
95.1946631713203
95.2513177661855
95.2901421950732
95.2687368191613
95.2822296934213
95.3199114054917
95.3382589180194
95.3422020443793
95.3500313469203
95.376116537608
95.3889644157813
95.378768255208
95.3979884173306
95.3923924476755
95.3578471827043
95.4074984469347
95.49188010407
95.4913565279441
95.4179412906802
95.3660733801972
95.3997970542218
95.436885729001
95.4381575942885
95.405117441925
95.3922667832698
95.415599141889
95.4313377111146
95.4396582431124
95.5086886768578
95.5622674434246
95.4937027713328
95.3898110486418
95.4065980229683
95.4635984769855
95.5274919950009
95.5705164819907
95.5754247139297
95.6098211655559
95.6530311716023
95.6320842178687
95.5866971546006
95.6109247715434
95.6453830593071
95.6554423580521
95.6673068656869
95.6900780127269
95.7471773880921
95.7919049928055
95.7959226597426
95.7342722956844
95.6989256235601
95.7515045614937
95.7613231260276
95.6831680183017
95.7108903134301
95.7759527486085
95.765895336852
95.7276051617125
95.7054109808136
95.7096816373564
95.7466154785916
95.8068462207447
95.8204293990323
95.7831814932826
95.7774288256188
95.766568777274
95.7773427144263
95.782475738981
95.7645289165318
95.749595799317
95.7621523521072
95.823137351564
95.8253576145371
95.7875935476281
95.8157749836829
95.8486538875852
95.8327960115686
95.7977034931334
95.766102019843
95.7770814571755
95.8335696580275
95.8327297861912
95.8507546406627
95.8943401395565
95.8613456168075
95.8321103924331
95.8359224633973
95.8233737706189
95.8583274469044
95.8597620609968
95.8507806715532
95.8752555005027
95.8711640883298
95.8507141935989
95.8638535722328
95.9390354829012
95.963848082071
95.9056727533532
95.8541784680423
95.8164106677305
95.8572938611932
95.9154918284216
95.9044564078389
95.856936516666
95.8184617404703
95.8575698108689
95.9562425752953
95.9758389925238
95.9707426262638
96.0185569212262
96.0619448402642
96.0694522988213
96.0477921355338
96.0247202464037
96.0429541248225
96.0526755375044
96.0227651005293
96.0165500156386
96.0254361181324
96.0150308877402
96.0345953081715
96.0551943708016
96.0544639706047
96.0562496877584
96.0594905519781
96.0774843055839
96.1035378980321
96.0905118907819
96.0682782865249
96.0594391173863
96.0580000667036
96.1021051245362
96.1553891984181
96.1608448404369
96.1736645165277
96.1736655493301
96.1498600844887
96.1386930245997
96.1362628368899
96.1204194137717
96.0901957249235
96.072290745062
96.0854615664857
96.0705257877694
96.0181981473325
95.9927696316691
96.0075575151422
96.0510980488673
96.0811123851579
96.0682373787763
96.0826184781084
96.0893672253123
96.0724531422952
96.0574704551609
96.0533009996998
96.0665344429108
96.052078948494
96.0337855635938
96.0964908376886
96.1488385901119
96.1331817711502
96.1605708070938
96.2194402443865
96.2577973309348
96.2868196810603
96.2408865966245
96.2218319969862
96.2865464302762
96.3339921513885
96.3217841882223
96.3347940737651
96.2934585241711
96.2232445396248
96.2251692835586
96.2517242176526
96.327225274264
96.4284412067282
96.4095203705792
96.3091667015241
96.2962347671408
96.4223471208857
96.5132172177813
96.4820551150353
96.4518956867007
96.4551083128647
96.464298660532
96.4447265062154
96.4737102880161
96.5481761765017
96.5096949862749
96.4794742034647
96.4713900036228
96.4799707501497
96.4924030512472
96.4808774675712
96.4995178980112
96.5497119620317
96.588481453204
96.5758388358892
96.569214258021
96.5957937072168
96.5641201148373
96.5211675132908
96.5785855047851
96.6337350966647
96.5950031409929
96.6152022968173
96.7072193756722
96.7074289466022
96.63662367064
96.6138406552684
96.6305324094574
96.6852475447218
96.7539906390138
96.7928727833748
96.7175935107323
96.643140418486
96.6900275666734
96.7360191993485
96.7367250627943
96.7855626688131
96.8204245064586
96.8113322661705
96.7091963163027
96.6267484906032
96.6929860061265
96.7843699828766
96.8171192631088
96.7645564017257
96.7336007258867
96.7375626804284
96.7408020534791
96.7604180670972
96.7168717659444
96.6938383376391
96.7172076410052
96.7313506412944
96.73273107765
96.743932334021
96.7624688293423
96.7749524347975
96.8277633410052
96.8174651177628
96.7324244885503
96.7393062804186
96.7755681404652
96.7739017618003
96.7443415739977
96.7182454229972
96.7093953189993
96.7366009748428
96.7208683428369
96.682700381667
96.6752642552186
96.6751057589226
96.7076672897465
96.738824532449
96.7389771106218
96.7305842084404
96.6765354477878
96.6525174420122
96.6732802836374
96.6781392981223
96.6905487313252
96.745297545356
96.7379343344032
96.7325085222395
96.7419603614608
96.7150108529024
96.7216022277718
96.7257091544523
96.7067718803715
96.7250351705911
96.7152001189785
96.694250196013
96.6518291038343
96.5873235364762
96.5966444685763
96.5629971902023
96.4863257221957
96.5081942142171
96.4883534087926
96.4301382703614
96.421417274006
96.4196176694177
96.4420526648422
96.4248148246492
96.4149745965736
96.4964292390759
96.5397201053535
96.5268249793168
96.5650079653684
96.5958936216961
96.5519053307575
96.5951137550183
96.749924041459
96.7999313485171
96.7916216433726
96.86950895051
96.967984146488
97.02583996337
97.0090305363125
97.0034989515976
97.0368585636196
97.083360434128
97.1067618814501
97.1096986590824
97.044052222049
96.933317820139
96.8442037887866
96.8001026548073
96.8119851095294
96.8272893251817
96.8749270530799
96.8740530668734
96.8566477778627
96.9003254188065
96.932491534917
96.944087841759
96.9239442772006
96.8835420033839
96.8322908624003
96.7512831095512
96.7236116970139
96.7612097331893
96.7987345721167
96.856762703877
96.8644905456556
96.8503097330853
96.8397075329978
96.84430052495
96.9150653432701
96.9543523308323
96.9457382158932
96.9517394415424
96.9924582096806
97.022779085952
97.0085247989748
96.9890071206452
96.9626707096472
96.9882690532168
97.0849494812349
97.08919029985
97.0442079542353
97.1125118363804
97.1297496721658
97.1120568425737
97.2702396554367
97.431968394496
97.4011062086674
97.3315601370529
97.3428878186123
97.3991975409293
97.5849557028772
97.705128283905
97.6353643148491
97.5578333208002
97.5001383886029
97.5784529049401
97.7351208568817
97.7524691570885
97.6923613004984
97.8121153623505
97.9164265981512
97.8970139075583
97.8022835672717
97.7787738923534
97.9217291132423
97.8998408123987
97.9228811121139
98.0787109094462
98.0067637350992
97.8694243444184
97.9372815357961
98.3113404484979
98.5911190499264
98.3866069498303
98.1268537850652
98.1340428723475
98.2960437208305
98.468146649129
98.3844418928659
98.3620907901578
98.44832666524
98.451174815949
98.3752999559352
98.2043648272607
98.2732946053135
98.5653278906968
98.7115934001718
98.7094272315654
98.557102836635
98.5516296346817
98.6372581801357
98.6283462317396
98.6933118018561
98.7321905201017
98.9499324877489
99.2358077503105
98.8948095312757
98.4905959263624
98.8272748733461
99.1791615673839
98.9781503988766
98.86351378908
98.9528822280456
99.0163929573198
98.814206347522
98.5757888546542
98.9360521425318
99.7207096025852
100.18196002694
99.8771340331545
99.4977079324611
99.0860344912364
98.8814023860149
99.1731331508996
99.1239386482258
98.7518846584915
98.5097754756093
98.5228798717493
98.8124050679068
98.9473310849732
98.5667669115797
98.2119185686408
98.3822293011403
98.5081040433956
98.3434253218329
98.0005211833862
97.8165254532592
98.0124781753522
98.0564577824878
97.8663283855464
97.8326226321946
97.8479797399144
97.8029650300225
97.7498562321289
97.7065559383944
97.7082514205844
97.7188446127765
97.8293181525886
97.968241277685
97.786056285023
97.6752968862686
97.798227292439
97.7994393367464
97.6738606111125
97.5416123483549
97.5384146878696
97.6454357769038
97.7593887505914
97.795588604002
97.6956548588409
97.6716040567785
97.7599665161499
97.8544014876629
97.9760266643564
98.0378747947961
97.9508256888133
97.8305974978412
97.8506676347606
97.9782911328687
97.9254876265033
97.8620963996007
98.0246733417602
98.1968095136355
98.1662676320832
98.1108507932043
98.2314147492251
98.2806352741177
98.3675809709382
98.5110736043397
98.5395047255865
98.7130074452935
98.8972551759921
98.7894121998837
99.002415902877
99.2381552219724
98.7429597882187
98.630304214642
99.0024070381492
99.1259356038295
99.3256255383636
99.5288459967902
99.3566568649126
99.2051341503339
99.0431276924427
98.8300270686468
98.9404478780788
99.0392459779184
99.004713459433
98.9820652640314
99.0174385947283
99.191722026848
99.0391234976645
98.6904274976358
98.6385574990613
98.6396734033435
98.6406708204043
98.7383901482149
98.7126048877696
98.7133945400322
98.5522358414015
98.395702621405
98.4718759038775
98.6670291357351
98.7853464024438
98.9585528460709
99.1067830016567
99.1495264928114
99.257732923799
99.0671987151279
98.8576529367527
98.8364613227815
98.6803202520256
98.6630469264887
98.6589106700371
98.6950925545921
98.6783978671522
98.4825090620257
98.370574775884
98.4114111072604
98.3760443330477
98.2952165047628
98.2718872893012
98.2302808039388
98.2341220852112
98.1880148262988
98.0753542815304
98.094235490967
98.1221884236522
98.1179170055944
98.1463073032994
98.1051920227684
98.019771023111
97.9534228519088
97.9133586344319
97.8786672530916
97.8046746106213
97.8004384555764
97.9401598535193
97.9239939766237
97.8321583238309
97.8534830058106
97.7768318861166
97.7069092172841
97.7278466706195
97.7111156221926
97.7228787432813
97.7442256404931
97.6586595395524
97.5579209346922
97.5888264689597
97.6652784007341
97.6407159389857
97.6211354701631
97.6767962057295
97.6915201460746
97.7187279565039
97.7180235767179
97.6609060954544
97.6181812894935
97.5613998342659
97.5052198954868
97.5018755918114
97.508842178361
97.4686024998409
97.5149747920194
97.629946723718
97.6512251897591
97.6672628599662
97.6574518261044
97.594750295744
97.601642716039
97.602449858732
97.5168349792268
97.458446542819
97.4385851202179
97.4719484286395
97.5382278107082
97.6213158161762
97.6273003174252
97.5525766353284
97.5151588237237
97.5268769519937
97.5341369048109
97.4777799249848
97.4245139085363
97.4774497528253
97.4982870791119
97.4845775448941
97.5130232443685
97.5290266011428
97.5524418419265
97.5637042329071
97.5415498279292
97.4994441633841
97.4561391641541
97.4107146624961
97.3818990148919
97.3620579124065
97.3569714196122
97.3837688490899
97.3979776776441
97.3871800081915
97.3540060028166
97.3172044513058
97.3241606488343
97.3632424390154
97.3822810308891
97.3583939096256
97.3021859542977
97.2799061456852
97.2454425372399
97.1771550345613
97.1874066805568
97.1757798532106
97.1170337514308
97.0873922351912
97.1331964218032
97.1066208317582
96.9289357085589
96.4991259593748
96.1332590032811
96.2720884125753
96.5717736045404
96.748688158751
96.8844739464047
96.9427492418715
96.9342641057265
96.939721398445
96.9857049573313
97.0375174341009
97.0022910742067
96.8952978825286
96.7826745430236
96.7738261333385
96.7962885466485
96.6953933426693
96.700829232502
96.7174987724591
96.6691979082503
96.6189468673794
96.4763088935342
96.3037530112765
96.1513962966131
95.993196636448
95.8675746602683
95.8810530555803
95.8338968381626
95.7262796560754
95.5402001064253
95.2809699034871
95.0371073126114
94.8205131884394
94.6337671918873
94.3956974312863
94.2413460483442
94.2319677710259
94.1416212127373
94.0940711719433
93.8957990907428
93.6075150481463
93.3490820537635
93.1423321637081
92.9516918459707
92.9921969469749
93.0091096750956
92.9114719704533
92.7244382216781
92.4645267768989
92.4185378670931
92.3613325477089
92.2582135684408
92.2632438552402
92.2621811619003
92.15646558869
92.038496486818
91.9633074858507
91.8847928742546
91.8093661625152
91.61307666929
91.4848304084743
91.826582430856
91.9669134112922
91.8560925788401
91.7776935228018
91.7660881088
91.6876303353346
91.5692507356528
91.4159577536271
91.261444523754
91.3703048048965
91.5142862138898
91.4703054632203
91.3326883051015
91.2188322100934
91.1564201028977
91.0800664075943
91.1075665497133
91.0721483288216
90.9364610101698
90.9085635261114
90.9942531232935
90.991616976049
90.9233120942728
90.8157273462633
90.7719715549868
90.7463759922499
90.7119071902496
90.6826488377704
90.6427335761255
90.6030786936456
90.5961150440676
90.577663677305
90.5247574646025
90.4535540414511
90.4273262300609
90.4190618786521
90.3550407559717
90.2881964169615
90.2560948550457
90.1788505576371
90.0723793514229
90.1672208263032
90.2759353566305
90.2153181219505
90.1374804430696
90.1396249439078
90.0674323119144
89.9767072339667
89.8262663123622
89.5536104007934
89.7344135009442
90.0528731755201
90.1299346952808
90.1248050604642
89.971185650039
89.8322721175348
89.6887678449448
89.4927294621202
89.4295168939237
89.3680856764318
89.4585937023479
89.6718852532369
89.6131758919922
89.3874809021159
89.344891938193
89.2888005037638
89.1207762436828
88.9600855570006
88.8893332544497
88.7794184886006
88.7211803237736
88.7848735797498
88.7373938253837
88.6822120596735
88.5399051293556
88.3522052088795
88.1809861962034
87.9879047778197
88.1378152036958
88.4076973146799
88.3745975463712
88.194776340425
88.0108991137563
87.948320756787
88.0328618068806
88.0361466219947
87.9097042683343
87.8830468271081
87.9881131899346
88.0688120637643
88.0339744653747
87.9219105458625
87.8564778247196
87.7712058178485
87.6576934562281
87.5703418290588
87.5671996880104
87.6837776104715
87.6594015032947
87.4784154350847
87.2529724598373
87.1491631071036
87.0175324037568
86.7071801647703
86.3913049144106
86.4066834979241
86.3808270768066
86.0493283839514
85.5423706470854
84.9746061502062
84.5182757381607
84.0436346408856
83.5182253492211
83.0330088584595
82.4824330922203
81.7795448859589
81.2613524912922
80.8890983673955
80.6063147435578
80.4395835236802
80.1630113929967
79.6559195181682
79.028499321559
78.4866717033702
77.8814914123953
77.304687648399
76.9386114968603
76.4754958888928
75.9393288048
75.3639724851326
74.8281646872977
74.3177729225189
73.8099033872809
73.3394806102366
72.8918606744553
72.3450604541853
71.8544448849495
71.3733195817904
70.8944291812918
70.5036597984885
70.0649844434657
69.4768530618992
68.9209727314382
68.5196842955536
68.1076693314216
67.6966713148494
67.3757750163446
67.1829651373908
67.1187844130243
67.2725228189459
67.7099359927368
68.1135431612597
68.4976280969219
68.9098640776598
69.2602628968298
69.6224681764295
70.1070833417899
70.5384262627029
70.9080070949112
71.2829616314712
71.7039463767884
72.1516234651576
72.6555610712642
73.1929231660932
73.7680533176948
74.3572704602935
74.8982550672715
75.4130749059088
76.0147174425985
76.6152596782939
77.1412040663552
77.5951645314966
78.0652058639622
78.5264495287805
78.9479139374975
79.3639482768842
79.7851830950789
80.1487965909853
80.4815042200803
80.8519910827128
81.2432691717424
81.5745808646886
81.8998150515523
82.2262535391234
82.5206425722589
82.8017105047845
83.0953127493583
83.3755386153658
83.6305348836654
83.8732508458297
84.1337746278667
84.3936559421803
84.630691681251
84.8410881933085
85.0445408766715
85.256288191713
85.4656872722945
85.6373030008883
85.8169865418937
86.0171203925594
86.2261705549991
86.4218642399362
86.5807902768503
86.7006660568964
86.8499321923665
87.0119560936298
87.1490494520491
87.2846895292652
87.4109372405451
87.5396049593094
87.659779781513
87.7582536494732
87.85340145328
87.9518689343116
88.0523006606466
88.154277547007
88.2581444324056
88.3730559360296
88.4925490429876
88.5997450366779
88.7138721786488
88.8103312553075
88.9019934023937
89.0094899236847
89.1147252790746
89.1992299251947
89.2737741343408
89.3350177146421
89.3901553144015
89.4295024469762
89.4575898089165
89.466607315837
89.4599687322585
89.4548871642408
89.438289305789
89.3745744185909
89.2762359368043
89.1494468372858
89.0173439185708
88.8688398108916
88.6832604920968
88.4725588267906
88.2359576127752
87.9633604949612
87.6509384236063
87.3177262943746
87.0118592030751
86.7393492628424
86.4838082412625
86.2427165993815
86.0222440118757
85.7926371531001
85.5793904408313
85.3747283491844
85.1807312826877
84.9851765771006
84.7852385792272
84.567828060089
84.3216925948878
84.0700720594413
83.8287067438645
83.5890836267564
83.3165866210771
83.0073637798755
82.6979991849955
82.3720271557629
82.0296008114769
81.6878278580223
81.3675346039156
81.0676240327387
80.7886967303126
80.4987636702104
80.2172520879834
79.925473816586
79.6182970291768
79.2908413985626
78.9815094119791
78.671150727575
78.3555164674297
78.015301535283
77.6550558759759
77.3321686226443
77.093538744031
76.9101017982586
76.7650025437691
76.6211498797172
76.4951749726152
76.3725829764017
76.2837070314804
76.2388376810584
76.2602457723054
76.3559924023226
76.5126119696904
76.7358499471822
77.0468172440781
77.360990374633
77.6693419804331
78.0109595247499
78.3806627379623
78.7761351023178
79.2232669563516
79.6922164286651
80.1889049101032
80.6766658564952
81.1574296845866
81.6329748801145
82.1041997994179
82.5621500822564
83.0122031876955
83.4176945720637
83.8014512917631
84.1926638860854
84.5751139035731
84.9204744090729
85.239167048207
85.5146289685922
85.7830261220309
86.0109194891944
86.2313332416089
86.419969214332
86.5567883089806
86.7160711447576
86.8717864018278
87.0384877793875
87.253502957648
87.4443204685753
87.6136527173592
87.7784915374651
87.9581959165992
88.1562219078816
88.3139162031762
88.3829848558576
88.4690577925834
88.6079703862818
88.7446770663864
88.8669750572507
88.9789282906715
89.0824548999763
89.1957825517752
89.2944502495947
89.3936053195371
89.4510763781514
89.5080217947825
89.583378927462
89.6569131545063
89.7151592355068
89.7592395729009
89.8131333382332
89.8537548868052
89.8576174989175
89.8336337066238
89.8222639977456
89.8001690938712
89.7299683890269
89.6595943872769
89.6994626739734
89.8301169145603
89.9606399643676
90.1043954118846
90.2616367598823
90.4468495334881
90.6499334865908
90.8143728156965
90.9291867527196
91.0541958739454
91.1899442191599
91.2977531730001
91.3514864545454
91.4210613615467
91.5063754624356
91.5872068267714
91.6557415141306
91.7255837501111
91.7684248376238
91.8073621892229
91.8745086640492
91.9257759591279
91.9539981213352
91.9976541008544
92.0460452019602
92.0424172788145
92.0453973768698
92.1068209986747
92.1126509923634
92.1309923080105
92.1853153491728
92.2270171556852
92.2134356104402
92.2115725544715
92.242744985912
92.2777877019009
92.3290455262288
92.3486354384859
92.3430798357498
92.3585659017095
92.3708883284977
92.3870297351382
92.4207847382383
92.4544926935292
92.4739418047738
92.4822438549291
92.4647597562507
92.4824920845969
92.4778202395556
92.4443789313052
92.4378892740804
92.460312936241
92.4036154895715
92.2812774342087
92.1819731505273
92.0579706526756
91.8885507965631
91.6859283968688
91.4343764495471
91.1418719093718
90.7687170267766
90.442555949766
90.1882641744412
89.9177002581221
89.6099606756085
89.3316745483097
89.1369656927873
89.0862472666248
89.1354741370586
89.2161576016623
89.37610831562
89.6282829460349
89.8966344691612
90.2016257222849
90.4590383663958
90.6609321711493
90.7804132641274
90.8422679411087
90.818874490015
90.677919478681
90.5025231002693
90.3032883461187
90.0050350761969
89.6156434824525
89.2288214145784
88.8870288229266
88.0074067186303
85.8275423283301
83.5294234120785
83.730095780808
86.1747925161256
88.5256676143116
89.9066685272467
90.6304530798553
90.9724695377047
91.1341496427088
91.2437325924161
91.3546253876632
91.436187218706
91.5298734474236
91.580914340735
91.5790733418455
91.5927542166626
91.6042614850227
91.5673275664083
91.57377115786
91.5641641263041
91.5571954715519
91.5717085980084
91.5757459485322
91.5704681482306
91.5577705802649
91.5529222617107
91.5707521263414
91.5324668547425
91.5340534151984
91.5829787283378
91.5791464679327
91.5633587857359
91.5371437601602
91.5086502409707
91.4750474817899
91.4665286471935
91.5079705920038
91.5132994743508
91.5092956410294
91.5017333261723
91.5000606635456
91.4743329340498
91.4613200802694
91.4612471402486
91.4562331032276
91.4682569940152
91.3903761807694
91.335962661465
91.3317764083174
91.2787160023874
91.2698006157645
91.2542308950241
91.1666064844008
91.1360638891285
91.1443686152143
91.0712164934217
91.0214047108712
90.9640172794646
90.8591133055275
90.7449041728052
90.6262619344043
90.4699976832446
90.3843573583553
90.2912527328352
90.1607344592294
90.0290451448758
89.9079292235686
89.8222722527087
89.7243605486718
89.7002548293822
89.7632395804563
89.7364648131463
89.7008805846677
89.7343749326038
89.7696491134768
89.7667421966278
89.7912711103648
89.8354080525858
89.8207575518614
89.827086774091
89.9231635740629
89.9738137536015
89.9772288772024
89.975236933312
89.9812605521437
90.0123727160084
90.3229328382681
90.4067029447665
90.2682995064662
90.1993352681218
90.2054815946882
90.2077486704149
90.0917808127825
90.0988858451419
90.0732795119604
89.9427381493734
