1798
3999.43349933624
650.420452594757
1
128
4
96.2375829916717
96.1892221006451
96.1343930451563
96.2281473080182
96.2031533809095
96.1133468977005
96.0010742938921
96.0647676257832
96.2110847477755
96.1941389727844
96.0690361512033
96.0731375299544
96.1664228665965
96.283964937045
96.2647972795988
96.210134924899
96.1603569575308
96.1375286249583
96.1623848456468
96.2256073613758
96.1576873005591
96.0766899892341
96.0083843744149
96.0178349868161
96.1112032470416
96.2051874609461
96.1171000005482
96.0509571525622
96.0765505731769
96.2031346498298
96.241369821316
96.1816932378591
96.1648816874263
96.235726027766
96.2453214853064
96.1687609456349
96.1436654776888
96.171897720156
96.1349297623222
96.133485936697
96.1088577452235
96.1346606349753
96.1615809718952
96.248087276118
96.2733813854834
96.3082751592775
96.3206892065736
96.2597502706632
96.1221893780946
96.1191923178843
96.1091038609821
96.0211794605478
96.0234930653112
96.1964331682129
96.2634965000285
96.246953075854
96.1121543844584
96.0805822169778
96.1705524272579
96.2433259630121
96.1824595002819
96.1331795895734
96.1802574925813
96.2589663746888
96.2942674186829
96.3066140241299
96.2017317898047
96.1612414920323
96.1193559512722
96.0577661688705
96.0710890008527
96.2644479437401
96.3543120231639
96.3388289884187
96.2239608314435
96.1179624068927
96.0264878589709
96.020525472732
96.0730607976856
96.2886296776949
96.4519907059998
96.4280100013535
96.2920926577047
96.1837665785995
96.0879362949401
96.1438324682528
96.1146002580394
96.1086028255186
96.2549966932665
96.3740322164862
96.3476260612277
96.3754564054088
96.2498223463587
96.1154836704504
96.0654524832908
96.1034927284379
96.1492324972769
96.3061406883905
96.3772767752059
96.3898722736608
96.3453082418069
96.2669539377632
96.1575259386682
96.0872935988748
96.0801207039799
96.1253448177995
96.097188356041
96.2194626463818
96.4853112137675
96.5040696095709
96.3294331361148
96.2860840467449
96.3278776959788
96.3945189951834
96.3448090341385
96.3485729511259
96.3050080344793
96.2404941063289
96.2281398326642
96.3681663613974
96.5139912550548
96.4416127753998
96.2155889767421
96.1611661498004
96.242611173689
96.3297231287443
96.3332696035785
96.4160658941804
96.4232098041947
96.3984434308079
96.4088256624043
96.3787053965427
96.1980462804389
96.0846104603598
96.3057172577262
96.4624266570259
96.4163942920799
96.5048545643099
96.5091595437693
96.3477481022214
96.1554807074877
96.0117372977669
96.082631138399
96.2690980638647
96.4131533559886
96.5122127819889
96.3513433614408
96.3306591023916
96.3768670971944
96.3529678333476
96.4128377026361
96.4181815419815
96.3216277623232
96.3407463943231
96.3879015867706
96.3976193579997
96.4868149336647
96.6683220879438
96.5857300666747
96.4220274385238
96.3787373425699
96.4589020043617
96.4451828945661
96.3699083709101
96.2881804061619
96.3043369296128
96.2957968626761
96.3518622524047
96.4332710106143
96.4451269305374
96.4058172676988
96.3261383861261
96.1579506911829
96.015388604067
96.0766917651551
96.3951830293561
96.3632701321743
96.3150445536647
96.5069638476665
96.6536826983245
96.4845246701116
96.287717132819
96.2757862012256
96.2090504099612
95.9716740307949
95.9751784426757
96.0101199090702
95.9852208279043
95.7768975657213
95.8225142621202
96.1525655043974
96.2447178927745
96.095283592783
96.0086962598623
95.9073639416269
95.7249162210008
95.6332713913627
95.7306108675765
95.5683461546567
95.4207876346022
95.5521169496987
95.7360240442698
95.7272961758461
95.4705942066251
95.3109572451259
95.5074800553009
95.518053608678
95.3452259329175
95.2670545204563
95.2350625317691
95.1753479038721
95.2458470736535
95.2737919773826
95.2074739046712
94.9597547441138
94.8602696783142
94.8880755705634
94.884079357882
94.8892150200769
94.8886884009765
94.8007762188239
94.7182618688054
94.7163657362832
94.8368199678893
94.6895523798293
94.5435870651077
94.5767791369539
94.6565880388695
94.5321649371043
94.3636542995534
94.3035058180701
94.2505105256027
94.1555692031235
94.1894382132053
94.2689105017391
94.3127975291379
94.1302654695834
93.998670324562
93.9297970685585
93.8445071017118
93.6828539731916
93.6705667108299
93.7180550478403
93.7254085962342
93.6273567632018
93.6238147465542
93.7011841361358
93.6603609209984
93.4918454679711
93.4496607793004
93.3525581954342
93.2963078765538
93.2410785713039
93.2030536213455
93.1523337421423
93.095317718645
93.0100831588099
93.028844771191
93.0488351977274
92.9828998849793
92.8056743148642
92.8036413762956
92.811940007034
92.7076050597325
92.5934130556447
92.4631669838031
92.4151198885411
92.4815819640741
92.4998920931533
92.4359348311505
92.3517037435675
92.4311410110301
92.3481091290041
92.2333964142176
92.2208862099797
92.1226368096177
92.0331667752722
92.0189319557648
91.8462500937286
91.7531193233198
91.7023510761894
91.6991092389304
91.6778565129402
91.6101549282897
91.614549175938
91.6372990043351
91.5681932722591
91.5514839423897
91.5218244792855
91.418140035054
91.3773617689457
91.2980831133693
91.1297217707002
91.1826559112659
91.24752040985
91.1526564749595
90.9043400910702
90.9205165832981
90.9973587103579
91.0018284785552
90.8961706734058
90.7888316537273
90.7383447952467
90.7820135697498
90.7339356372357
90.6649007331983
90.5379956632173
90.5468119544541
90.5611058499726
90.5242243184654
90.4827998077653
90.4107691497861
90.2884501175613
90.2898926232945
90.2752223484725
90.2942397139947
90.2861156506123
90.2444280446812
90.1288909622146
90.0969811981369
90.0999906959009
90.1239702109228
90.0282219480938
90.0071373217267
89.9580595892438
89.8680230348679
89.8477575350479
89.9086655881197
89.8159114405003
89.7064850809272
89.7682773258885
89.8030124886727
89.6240463554861
89.5029381722374
89.5097437534369
89.5489412917786
89.5537659803748
89.5904512458671
89.4504028589481
89.385197180647
89.4400874764364
89.4135422384548
89.2971693449363
89.2824551440189
89.3043788505556
89.2943823924987
89.2607992015717
89.2826425239126
89.2603908503969
89.2628297106549
89.2085244550309
89.1944130368066
89.1022692669118
89.0201899877708
89.0337334404977
89.1685781014587
89.1471557478235
89.0938395772133
89.0980643837144
89.1169740910083
88.9956885885072
88.8921238049484
88.9053418136841
88.9992283753055
88.9956880226742
88.8898613137267
88.817109288412
88.9596681566871
89.0523858774943
88.9777405047248
88.9155044197097
88.9653485079849
88.907008516661
88.8546268948232
88.8653183441377
88.9106026396441
88.8467115732977
88.8246534579793
88.9000476353406
88.9902789893618
88.9162217678162
88.7809864211469
88.7074692091861
88.771131277478
88.8051890552434
88.7792809017074
88.7207563840143
88.7075298134094
88.7098693749719
88.762096580088
88.7872012230473
88.78369209589
88.7123040313679
88.7396547071756
88.7350010950727
88.7374077551361
88.6297441813639
88.5967379238759
88.6378309006813
88.7094265580561
88.7053473815363
88.7396447176862
88.7446223168675
88.814155374626
88.801865725459
88.7910954179512
88.8236760913472
88.8136442320288
88.7899905010797
88.8735151644277
88.8841088645364
88.824246644568
88.7243632592304
88.6543487749828
88.6830154960468
88.8440364274198
88.8779303647831
88.7582228719763
88.6760882043049
88.7603077860426
88.9313416026775
88.9822505012765
88.9464873957984
88.8708288482926
88.7989738213947
88.8037772038069
88.8275673038725
88.965344489535
89.0357431342106
88.9984273501484
88.8506830156776
88.8567112139431
88.8719093550255
88.9320658790548
89.0768601841861
89.1641559075697
89.1861594234737
89.2232547886044
89.1750840504494
89.1511602399499
89.1715922916916
89.2288182457538
89.2679320760826
89.2542227957271
89.2169144545216
89.304463989972
89.4054197607788
89.3989447711495
89.3042448054868
89.3277636052823
89.4412220394267
89.5184640705962
89.5186845072634
89.5718313718464
89.6421307630682
89.7668714816547
89.7632328079973
89.6947231189741
89.6763214651411
89.7992857116352
89.8389996875831
89.8594196797823
89.866572813843
89.8418476231839
89.8679526817076
89.9813101912299
89.9807776066727
89.9115752670014
89.8939138757379
89.9576920503952
90.0384014541315
90.1185829620113
90.2283736012668
90.2491032749595
90.180983087277
90.2460287013815
90.2874527283142
90.2715251601524
90.2626542494614
90.351864983563
90.3986372133974
90.3218174639932
90.2575042246308
90.3072330610319
90.3388412923238
90.3361869234838
90.3296927723671
90.3576477741307
90.3753648071659
90.4548719433744
90.5108467283671
90.5081903476805
90.5226289883098
90.6010926171643
90.667990659765
90.639581654018
90.5292640623263
90.4956157099387
90.5352161967268
90.5757105397231
90.5479782958943
90.6087492225261
90.6498980679255
90.618756978163
90.6055937999352
90.7129001447766
90.720930763143
90.7799723613726
90.8502742717461
90.8456943431842
90.9131888141391
90.9523008462
90.9079721333862
90.9365055229409
90.9467500592372
90.9764201641542
91.0392136832644
91.0446741512693
91.0279349633233
91.0707854873291
91.0399758068826
91.0631728546786
91.1135309376377
91.1769799228751
91.211733330359
91.2672196859479
91.2430306329791
91.1797184540656
91.1773082245235
91.2352096354153
91.2939499265421
91.3335872521259
91.2445619541925
91.2125025816831
91.2966627485898
91.3628298218802
91.3233551400499
91.3359015804605
91.353126749225
91.3397326366919
91.2878489381844
91.2425800051509
91.2183608452011
91.235115305378
91.2062471939358
91.1164739585263
91.0424966805331
91.113592335232
91.0993529611587
91.00585312089
90.9557756810995
90.930306684278
90.9229954572379
90.8715912384018
90.8059954866388
90.8302642083336
90.7858316488523
90.7448404256806
90.7067603377963
90.6864778372067
90.6729857160833
90.6997105015547
90.6473945519646
90.5522894317145
90.5641234267147
90.5920984845357
90.5113996421759
90.4779660271086
90.4353612012899
90.3706812520878
90.3614522269034
90.3355510065231
90.2678306319198
90.2550864095212
90.2299614734307
90.2126612897783
90.1908758526881
90.2219418537373
90.1894403505894
90.1978489445431
90.2876958956728
90.4084798974542
90.5116521834612
90.5828530074105
90.6313497750984
90.7061248429209
90.7371989785007
90.7408351873761
90.6840028965633
90.7322612528404
90.8352630275956
90.8671583241424
90.8829947696478
90.9699850108797
90.9924122516714
90.9708193131882
90.963920468651
91.0165199755422
91.0236351391203
91.0321891317096
91.0297593800495
91.043122453495
91.0740947619855
91.0958369061506
91.1011243865162
91.0751557600528
91.0715106692216
91.1229556104366
91.1394794433345
91.1652340399892
91.1928187972339
91.211030263225
91.2205025544112
91.2830438058203
91.371112879709
91.3842871850587
91.3196040690206
91.3828743818031
91.4974563128096
91.5528577265294
91.6239350882203
91.6883836372695
91.7095652772555
91.7536303046747
91.8049434643157
91.8488348438599
91.8556435896622
91.8804973251703
91.868841353045
91.870610697731
91.9542171200172
91.9880851267855
91.9945493562612
92.0507444266634
92.0629846054713
92.1038790236681
92.126152116724
92.1640945851973
92.2000406372541
92.19369347793
92.1793385132341
92.1919758103272
92.2300985105659
92.2499204013466
92.2926383539274
92.3593955206181
92.3468365099517
92.3594060367895
92.4250668230209
92.4136458881786
92.3816613400346
92.4449796692935
92.4863425552167
92.5064358964581
92.49758134592
92.5016821382657
92.5483674146471
92.5717842622466
92.5345147537709
92.5587166487563
92.6389288171154
92.6775962903642
92.6489033753789
92.6200228943343
92.5857965091569
92.6005875738673
92.6652063039399
92.6698170077408
92.6419551777149
92.6665462889505
92.737161519118
92.7887634554689
92.7871661785014
92.7589096382435
92.7749679399444
92.8129134495486
92.7964828251822
92.7979804164123
92.81829450515
92.8127065162609
92.8166684128045
92.8276097929564
92.8282205292381
92.8332455362708
92.8267740681859
92.8258493221312
92.8587343165568
92.9413875772382
92.9658379687631
92.9617551295778
92.9830357538828
93.0104115045959
93.0158447188189
93.0345006608977
93.0200094810643
92.9787635897191
92.9449210340457
92.9664722446066
92.9773366277406
93.0050637073405
93.0815808656665
93.1473725530963
93.1307439346259
93.1120258096841
93.130289202761
93.1352748251256
93.1792375418207
93.2024805128432
93.1341980503662
93.1430568921083
93.1823608744614
93.2080505460022
93.2046863855751
93.2349699471377
93.2492688679883
93.2278753242927
93.2035714813008
93.2045841357194
93.1965494936116
93.2175492292668
93.2570238140263
93.3130897615549
93.2946753548927
93.2565857123872
93.264642851881
93.2848309661548
93.3353099061751
93.3732568144092
93.320805067544
93.3025131252029
93.3868802887032
93.4221745899792
93.3970302486663
93.425351423209
93.4736128065304
93.4911486209813
93.5171765863554
93.5158223186351
93.4804655996264
93.5789684024936
93.6514529753928
93.5999368423653
93.5565419724418
93.6035345438262
93.65694552274
93.6751381587118
93.6927482874186
93.7221404599037
93.7814873934555
93.8550912831451
93.8498165848181
93.8209807635195
93.8598319412141
93.9245270351216
93.9292896336715
93.9030621934657
93.9002164162993
93.880407875566
93.8756142524785
93.9594018589074
93.9858820603751
93.9813468909745
94.0323149483755
94.0288272496836
94.0475561597794
94.0578978193881
94.0358111327655
94.0212911951548
94.0377345681124
94.0838386939794
94.0998331630099
94.0755382448531
94.0577376672065
94.1271805885096
94.1455691755157
94.1767917330883
94.2064906241259
94.2478095192018
94.3158049654595
94.2663673813796
94.1960521968734
94.204225067031
94.2609591127266
94.2480571831986
94.2677964769366
94.3168738566428
94.3531802702061
94.3749605456134
94.2791647422169
94.2545786672255
94.3628405213357
94.4158887130373
94.4017284546345
94.38857898158
94.4032868561573
94.4209306907456
94.3671072509776
94.4120563368748
94.5292133024054
94.4915833545792
94.4072417994424
94.3636564723753
94.3325058628894
94.3601008642418
94.358179094164
94.3443026761901
94.3517373753905
94.3575268421868
94.439550699655
94.528345002152
94.5261305374779
94.5236418100937
94.497627336906
94.5133023824812
94.5709987065069
94.5160537299596
94.4155354300105
94.46014429907
94.548309489103
94.5255649680308
94.4568491515437
94.4633248630244
94.5100933162667
94.5597586232187
94.547945871826
94.540886725096
94.4859255098505
94.407979586302
94.5044766590692
94.5767186851402
94.544098462472
94.5753195488083
94.5987177133515
94.5449336371051
94.5435006247894
94.6010858092115
94.6574060024369
94.6844029840439
94.6926203367713
94.6391534049431
94.6065646240949
94.5870255132638
94.6231854616011
94.6934300868861
94.7163707603751
94.751769656728
94.7464975239001
94.7037946240212
94.6918884131823
94.6365676920567
94.6195439064691
94.6491639454692
94.6151128482617
94.6076497830427
94.6626487764658
94.6863137323618
94.7390676002151
94.751271079924
94.7293200667459
94.7310490168316
94.6989191320265
94.688169105764
94.6993655227622
94.6797615740367
94.6724739593269
94.6887009395469
94.7256617046089
94.7000894442351
94.6831205673372
94.6891906056256
94.6899963591279
94.658477850227
94.646035750014
94.6760972067164
94.6764776236175
94.7807790543828
94.8367722478233
94.8212126935136
94.7590971309167
94.7800202591628
94.9244161945141
94.9952495161583
94.9950417808672
95.0681534416625
95.0070916883505
94.9361914686566
94.89075641964
94.7997956365159
94.6786629777305
94.6182597113782
94.7817467921257
94.9165134918397
94.9149633962226
94.937142180465
94.9466341063128
94.9194252682293
94.9151827432835
94.8436789353572
94.7138727423936
94.5820461433317
94.5678830727123
94.6528804523747
94.7094832945233
94.7198729777591
94.7348323147256
94.8061399760815
94.7846473103891
94.7359629545897
94.7560829077188
94.7885352383566
94.8329012795963
94.842486524948
94.8495633867941
94.8634150525794
94.8921423954992
94.9802067551826
95.007610572605
94.8904866079877
94.8059616290296
94.8820153730884
94.9979004498624
95.1228503255935
95.0842733783431
95.0486484564919
95.1597795156266
95.3532045802814
95.4133317842573
95.3480479390872
95.3900189808642
95.4258988969517
95.4966645165586
95.5670276901675
95.5118971203416
95.4925547690748
95.6613928554356
95.7146927642337
95.8403424087976
95.8594377486274
95.8397735068357
95.8581004138036
95.7340218186467
95.6888741701906
95.8426147579605
96.0099919237947
95.8937642617142
95.8713644194441
96.0991442331729
96.2813083759078
96.2464540610484
96.1804047995493
96.0562854501498
95.9842529196923
96.1969077182395
96.2421764618568
96.2167425693692
96.1942064501879
96.4465221199741
96.3960272545065
96.3885016922182
96.6548252431684
96.5763099484603
96.4635714161127
96.3576314053157
96.4630273436463
96.5321892015342
96.6788095271131
97.0303252604362
97.0986985303064
96.8820528556183
96.9485144985371
97.0263485560328
96.8071728477498
96.7947135311656
96.8548736920474
97.0395333751258
97.3952385305856
97.3239847955274
97.3214281886865
97.4723461192059
97.707568709811
97.9280177263685
97.7461201787917
97.7611618095368
97.5376976920351
97.244540832954
97.7259679249615
98.5091107680473
98.5347536439671
98.3683207091743
97.6265803852513
97.4513118518645
97.7207618763043
97.7757322581395
97.4311217390207
97.0920649633461
96.7077717155501
96.809476988214
97.0727788628761
96.9906351897187
96.8928909407567
96.8583442386205
96.6685517938023
96.7160090342879
96.5989907033687
96.3869840637428
96.2625662476164
96.319820358551
96.3037219183575
96.230149428084
96.0263085179767
95.7569074098489
95.6558698365004
95.7957589491393
95.960652049251
96.0450783695141
96.0531228748672
96.0124334200348
96.0007072562818
95.9927781989789
95.9732200571355
95.971803222437
95.9884264761118
96.02308806257
96.167332572762
96.261396760025
96.1009431665115
96.1217022679584
96.128907331545
96.1588183295201
96.129252105027
96.1280067239544
96.1810025649943
96.3284019435507
96.5082458671066
96.5210721413206
96.5098231131897
96.3968556339236
96.4902379289011
96.5995278502667
96.7215508542716
96.8575880692847
96.7326111154601
96.841683381354
96.886490836908
96.7330977469466
96.607729352138
96.8031836854931
97.1313969068433
97.3651793468203
97.5489129527697
97.6906184375449
97.5259160041896
97.6751240056263
98.0433546594319
98.0910255410253
98.1240585873319
98.3589245523813
98.3223342133056
98.3512236574024
98.0801056821355
97.7948421603985
97.6791961882139
97.890005927418
98.160682019909
98.2893752126247
98.1885436311978
97.9921347144421
97.6448169988007
97.4957612501025
98.0043732377454
98.1448563407841
97.8762145734028
97.772273667543
97.6664414826842
97.6787003359584
97.4064500094452
97.3220150653404
97.4479551106866
97.3099542001677
97.1340308164677
97.5560789363292
97.8080652498953
97.7335886147398
97.5406290417358
97.7166385320924
98.2051340494224
98.2591883563915
98.0649476140131
98.0580131523406
97.9134771663754
97.7340008402215
97.7445165644911
97.7145792774791
97.2732841503103
97.1663862287032
97.3628415963556
97.1812265649712
96.9265756386671
96.7875176978911
96.8291720371339
96.9474966914851
97.0209156056246
97.0266705550034
96.8582934852082
96.8301075872073
96.9648288552752
96.9115035789861
96.6583264885108
96.5735994318086
96.6112862949257
96.6820939805255
96.5772974679959
96.5289372482878
96.6227135425261
96.530569230393
96.4308695511164
96.4505195157052
96.3273336750819
96.3468806031513
96.3781681183132
96.394260665209
96.3343860383863
96.2651896646771
96.216393898089
96.2509573556831
96.3343312798928
96.3047068164585
96.2638648622909
96.2844194751086
96.1916395516811
96.201363394553
96.2073268492737
96.2074414238136
96.2462730206772
96.2715221185071
96.212742227735
96.2145617491166
96.1913447400769
96.1247231805733
96.1396899957145
96.1762924517688
96.1388187772868
96.1292423167395
96.1278095938409
96.1499295916049
96.2074811578261
96.2517753255372
96.2487627175121
96.2157145754473
96.1444451104489
96.130248352954
96.2129462529035
96.1531970483693
96.0652730541326
96.1020375841542
96.2027838088563
96.2133038259056
96.2135492012287
96.2387041994297
96.2307776908019
96.2197585593939
96.182512831438
96.1548645457507
96.1397289920113
96.1364512041136
96.18767434312
96.1976179946412
96.188469159421
96.1728336641672
96.1823195020411
96.2151368969114
96.2467686253617
96.3002075072894
96.3042316960329
96.2559221188893
96.1968814870576
96.1892500034363
96.1994915587478
96.1885228994645
96.1904759063347
96.1604854568358
96.119261131015
96.0775439504613
96.03727322918
96.0543574735069
96.1466708952705
96.2060233405219
96.1578326135525
96.0656059798874
96.0534982800973
96.003671975585
95.9456757609563
95.9179654723691
95.8349351834635
95.7484327113892
95.730759852813
95.8488760785916
95.7958600436672
95.7689454567939
95.7431725671295
95.6258656292798
95.5484967808228
95.527139455697
95.4211950516403
95.3866901494438
95.320574594604
95.1928119136592
95.1129263976565
95.098658385706
95.0754007896122
95.0053363646692
94.9276193896008
94.8169689151236
94.7520006456088
94.7346488742276
94.4911757716234
94.4436603733595
94.5102168557696
94.4892606844704
94.3807576674345
94.2427042301242
94.0433776070291
93.8747081709046
93.661916575208
93.3888594457292
93.2979664058749
93.3362324292848
93.2795589213893
93.0560684558897
92.7954938289648
92.4759717978872
92.1466673232468
92.0752484279127
91.7242348134441
91.44057097387
91.5205333959924
91.2920764355511
91.1172041596305
90.9119810936646
90.5165680263983
90.1436940046395
89.9100192740273
89.4609612933416
89.2762244392248
89.2596455686558
89.0878159475998
88.768028117806
88.2351500188088
87.9997948800746
87.850571189473
87.4796781969848
87.2241358898169
87.161647039437
86.9239618131242
86.5396621742464
86.2779965409563
86.0473759660065
85.8576142603788
85.4381368295522
84.6386343276026
84.9365168481911
85.2237959464586
84.8937219780226
84.5098937448046
84.495186819624
84.3659393214868
84.1338815754436
83.8959863853133
83.4572421053009
83.3041145427514
83.4991086026969
83.4578615453371
83.1404441398133
82.8969468761866
82.8324645511653
82.5850372027542
82.4813851405394
82.4782320712698
82.1642281773038
81.8732969713917
81.9968967895794
81.9673096029705
81.7280111501181
81.4630954638802
81.333187210533
81.19260732705
81.0570787336904
80.9202218240039
80.7737957090598
80.6417253147136
80.5511223186498
80.4603843311279
80.3858141917948
80.2785164547611
80.1944109312969
80.1235340793858
80.0576349551472
79.9480701916548
79.8647629391266
79.7953588124655
79.4764785387285
79.4616966704262
79.7286548362632
79.650423841392
79.4569350374794
79.6038101573413
79.6158503576645
79.577347868922
79.5180457537526
78.9058504955839
79.058659524873
79.9768385821766
80.2999351036895
80.4309096283535
80.4422458790533
80.537676801795
80.6684488664454
80.6225894522597
80.7321256012359
80.8242857696846
81.2244221439145
82.0297761568399
82.3720381934272
82.2950501761178
82.533233808851
82.8098405588861
82.8826706920195
82.9291564867343
83.1666230544354
83.2174669783435
83.4595559017185
83.9178789803294
84.0643551754342
84.3084150922488
84.4346253054042
84.4580045554086
84.4560388172879
84.3259637659797
84.8965365173252
85.6926198781665
85.8964661567049
85.8173706934459
85.7445508604704
85.9059907696914
86.3538618478223
86.5597898435955
86.4692927731104
86.5900272206468
86.9306001417014
87.2599801949432
87.3845382420871
87.3579290019252
87.367361058183
87.2956344681385
87.2046494001767
87.1215790832752
87.0164669204369
87.1697989031204
87.1376979351737
86.8380896316816
86.4816130768326
86.3919523108138
86.2751722423919
85.9271935980892
85.4588075791121
85.6463838956874
85.8668671419793
85.7875853158677
85.5808641286229
85.3452483879957
85.3285135087244
85.3371357386793
85.2353705093653
85.1469843838233
84.9869438322157
84.7106545489045
84.8161700532586
84.9038759670755
84.7115752474238
84.4468438286885
84.3024433000602
84.0720783016627
83.7183672586697
83.5237653113369
83.1663296889163
82.8318424968611
82.7779449213127
82.599991861607
82.2918862265799
81.948382166287
81.6938916610476
81.4855592910212
81.226741762273
81.0732639846912
80.9591994757319
80.7338902119523
80.6779551998216
80.6450196612867
80.6262481215132
80.7382655705766
80.7627817115416
80.6273820792918
80.6011392192565
80.7718607443854
80.8518026517683
80.8728159922574
80.8776568140573
80.9281559224264
80.9477789924605
81.0348911993951
81.2376046110118
81.3507799079742
81.4577156594254
81.5965887018166
81.6536196909152
81.7799349785238
82.0436722383731
82.2466377237389
82.3652870265701
82.4772324659699
82.6107881598491
82.7278814782176
82.8592956019665
82.9977815368352
83.1164735425706
83.2299168458438
83.3033148278486
83.364542346892
83.5156539262541
83.6915968518534
83.8178613105882
83.8926116631971
83.9588762206771
83.9976267967055
84.0371221157627
84.0914174036229
84.1391039246477
84.1488946373681
84.158116680597
84.1918226444662
84.2370394482199
84.2671956975321
84.2910119878256
84.3173132876247
84.3703272407668
84.43315493635
84.4886134521106
84.5351910103264
84.5824095460373
84.6399152535115
84.7118017628116
84.8077910943171
84.8890586726784
84.9198910713431
84.9562791767787
85.0397267710387
85.1324119062759
85.1760202415857
85.1868000677213
85.1804661371358
85.1904178336582
85.2288662943828
85.2285324296508
85.1980207067166
85.1914141573563
85.1791121598819
85.1351653934589
85.107095103691
85.0829847665611
85.0558533545201
85.045760998114
85.0275195802272
85.0214711900304
85.0153986344539
84.9889035935198
84.9614903139392
84.9441415433519
84.9139689270649
84.8712798279984
84.8401348822262
84.8364286866368
84.8434402227832
84.8541418317148
84.8394289349537
84.83535302783
84.86208654596
84.8776474610635
84.8965611975281
84.9423298292923
84.9901409227616
85.0524534472486
85.1112148751104
85.1729902083655
85.2401009830028
85.3216540977854
85.4042080585133
85.4758222666522
85.5516653474696
85.6396205638231
85.7187692827445
85.8158602424731
85.9255418751108
86.0333721568156
86.1265849775534
86.2135916424176
86.3090013916536
86.403865327956
86.4873120101626
86.5230393760964
86.5575840448052
86.6055431970999
86.61725769784
86.6216601509912
86.6314957722405
86.5793825970285
86.5097316045776
86.4752628264103
86.4381326697165
86.3754811934573
86.3100034080113
86.2553186076701
86.1963576385164
86.1241073260363
86.0263523696339
85.9117415650807
85.8038334302244
85.7321724498609
85.6348240729536
85.5167376334034
85.4109815463843
85.304376973558
85.1829917934172
85.0665886550124
84.9466814110984
84.8031688644219
84.6492041869138
84.5131629926644
84.3415158597701
84.1486342935382
83.9691217149496
83.8057251669098
83.6421010898244
83.4906590125518
83.3717103730945
83.2728279331675
83.1804207376717
83.0755988025169
82.9807523940435
82.8741887050686
82.7774479893224
82.6984010275315
82.5847937498773
82.4400584429806
82.2647527364022
82.0876590841504
81.918112721594
81.7388301835632
81.5220194433509
81.3164573723301
81.1527646492061
80.9697972954664
80.7781731378846
80.5909737976193
80.4045027590405
80.2268193372709
80.0435778039855
79.8638607621559
79.6746693463538
79.5022059629948
79.3161635722985
79.1645671905608
79.0194080495644
78.8496462899757
78.6696474711591
78.4914848997845
78.3342674756938
78.1938515005999
78.0419177421168
77.89588646875
77.7578536841886
77.6223065914203
77.492236151588
77.382414328342
77.2711393861384
77.1761174353062
77.1105248727822
77.0549069505656
76.959383377
76.8835252409396
76.8430825482055
76.8225039245795
76.808391453955
76.8069984376386
76.8050677938568
76.845021274031
76.8995844672016
76.9611024619424
77.0317010275957
77.111684059639
77.2203976881716
77.3554501390732
77.4906006417751
77.648520554885
77.8383245455532
78.0332255297446
78.2388587191203
78.4493745814096
78.6271239397022
78.8169325437689
79.0164756167246
79.1791855595368
79.3520645353734
79.5286453936668
79.6972118847394
79.8325666848807
79.969072255137
80.1275434064671
80.2440315530526
80.3517160921925
80.4677027072921
80.5677599162056
80.6755490611295
80.7905861013091
80.9240708693599
81.0727350403796
81.1978580241272
81.3140438698087
81.470263490555
81.6599259566222
81.8374136343164
82.000619820957
82.1446944955063
82.2884708192867
82.4179347688699
82.5828445147325
82.7504954310062
82.8894256419171
83.0488178141287
83.1830797878103
83.3190967795859
83.4364858530035
83.5271335407987
83.6630659016336
83.8214131135834
83.9412302378942
84.0329945981399
84.1206033810877
84.2224262089612
84.2876069836661
84.3049846766951
84.3598903758305
84.4331884637416
84.4696098045466
84.5068192273679
84.5795995471456
84.651116542269
84.7327168984766
84.8058647529613
84.8770904455535
84.9416781377573
85.0011603759681
85.0563963253742
85.117212428863
85.1855664206675
85.239282849572
85.2785334579661
85.3234365291708
85.3420249632612
85.330799688442
85.3574509565564
85.3945617948385
85.3913952269059
85.4257838891492
85.4774699805127
85.5002177660807
85.4843960135002
85.5081524363162
85.5285248507629
85.5227401164233
85.5507373664528
85.5811028738764
85.5840105763167
85.6008451651216
85.6068455676745
85.6054548721926
85.5767651194032
85.5445865082343
85.518528323056
85.5121420487085
85.5084541468968
85.4351524443815
85.3721276455135
85.3657467748126
85.3120603278541
85.2207001738364
85.142475237793
85.057255253416
84.9985792178404
84.9785388042975
84.9575236150448
84.9461366218256
84.9086024444998
84.8811316484557
84.8607523527463
84.8226471412814
84.7641325026357
84.7060611255743
84.656624519404
84.5877898037924
84.5182163764067
84.4470664685837
84.3622947510634
84.3024970476396
84.2390600992008
84.1874751471126
84.1783721381542
84.1588622830133
84.1268114805428
84.1145606996402
84.0430292927692
84.0309825512283
84.0109724842638
83.9684304755342
83.9140738858244
83.8652937855025
83.8357906011511
83.8229038236957
83.7946841543903
83.7396636972345
83.7493918700829
83.753631988653
83.7713603740616
83.7444491310842
83.664472949956
83.6102798766061
83.5786475178842
83.5738395047224
83.5155562368888
83.4945195086098
83.5043056883944
83.4465628941504
83.3909574962939
83.3848228684189
83.3351811440608
83.3134930719905
83.3073370074473
83.3070649931071
83.2601827367179
83.2187724665844
83.2092312690105
83.2044303557651
83.1743816558466
83.0632428841698
82.9377047639454
82.8897455259105
82.839900040969
82.7454736986556
82.6444665129743
82.5785845540591
82.5238696065015
82.4620202997289
82.397377487151
82.3365007017649
82.2677833600129
82.1763187863027
82.0579020877641
81.9513353772876
81.821095416031
81.7627484610553
81.636838237876
81.4884475794167
81.3631937773925
81.2945996023574
81.2670203150473
81.2562808559459
81.2370953632726
81.1946061259124
81.1371230424977
81.128032475215
81.0267185355581
80.9222683699357
80.8633376265722
80.8117335588882
80.6739365227978
80.6064787088714
80.5829560446333
80.5718207672676
80.3799468068499
80.3737226948926
80.3719883517068
80.2538669123144
80.1301607009577
80.0072077158956
79.9702811473651
79.9235935185918
79.7846356836138
79.687916764743
79.6017407706764
