1798
3999.43349933624
650.420452594757
1
128
4
94.4067667696614
94.4944664218332
94.4519877423062
94.369253006508
94.4080812310553
94.3825119802389
94.3332821248602
94.4452449416324
94.4884374544389
94.450048762476
94.4035534260991
94.3930614884916
94.4836026574164
94.4836868214747
94.439851386881
94.3677485879575
94.2881158537944
94.3620314268959
94.458200725391
94.5750077555224
94.5859127032876
94.4884812007348
94.5404952895686
94.5395001141222
94.4254470220496
94.4971538564699
94.5980821931109
94.5265761265544
94.4261702810264
94.4656215674278
94.5329545701443
94.4865503998651
94.477208340587
94.5682559967278
94.6041901450494
94.4858235649402
94.3594893303734
94.4652795844322
94.5701628484113
94.5058683085622
94.4553509567227
94.4668544498747
94.4846041226595
94.5058987159977
94.5767437117703
94.5452629235446
94.4114455851464
94.4783286187075
94.6648084342225
94.6877919032568
94.5734726759357
94.4887419501786
94.4806468593082
94.5612140226492
94.6143960731311
94.5365510291808
94.4853488791888
94.5948826337725
94.6382081356229
94.5840186352648
94.5694809739229
94.5612422262045
94.5704094743703
94.5844929727835
94.5905958822719
94.6309154917406
94.7116079402482
94.7228057821535
94.6410750019153
94.6484809550041
94.6225064626807
94.5962505875967
94.6013421965236
94.5990530227678
94.6380080898204
94.6883076220587
94.8962294943469
95.0471913858185
94.7612882449792
94.3963083694026
94.3605903991509
94.5629569289586
94.7459975128764
94.8068194316817
94.8665852264239
94.9024309396289
94.8072545589619
94.6962189451343
94.5942961845335
94.5234414973928
94.5823516137416
94.7421471979539
94.8756242206942
94.8811750275067
94.8536905966405
94.8397265134894
94.6699655306711
94.5974362426395
94.6219453398737
94.6496178412608
94.7969548226486
94.8794297232094
94.8401742732737
94.8389546055176
94.8448878467211
94.9269283211685
94.9073337550059
94.7633507497666
94.7881154519437
94.8733011269984
94.9085406567972
94.9224055870481
94.8783135246133
94.8286414810586
94.8710725004714
94.8861668810638
94.8534768601358
94.9048361476596
94.8788903462611
94.8358594201982
94.9217052212376
94.9324682728995
94.837305884197
94.7537924552836
94.8019302018431
94.958071675377
94.939785528347
94.9643141802654
95.0439732631419
94.9803943692759
94.9469503896641
95.0378123285556
95.1351773481859
95.1273124969053
94.9876027089568
94.8846528580853
94.9661203570237
94.907630823815
94.8580621224691
95.0333691049542
95.1256204325393
95.0450276458958
94.9485619657876
94.9762973094258
94.9664066288234
94.9910146054823
95.0328919813179
95.0518822824603
95.0701438736073
95.0245834858633
94.994197432021
95.0669965013473
95.1770265903409
95.2499676534998
95.2263251897446
95.0621715558585
94.9615980604641
95.0204521062642
95.0964741879758
95.1724803619328
95.2211482113135
95.1986799116624
95.1661638581392
95.2601840555891
95.333890902369
95.2467559887656
95.0881502025381
94.9582362359777
94.9905968315978
95.2017152441621
95.293255692435
95.2224483296529
95.178476606536
95.2350573553702
95.1210689776889
94.9530650469921
94.9598892116608
94.9909395611162
94.9329842340705
94.8732502099577
94.9148347871311
95.0240603334036
95.0567756039883
95.0350652324688
94.9015709310819
94.7839009256917
94.8608144504478
94.8695516036995
94.7118588490538
94.55592465765
94.5172139753873
94.5538821243552
94.6124547652877
94.7252188596052
94.6259494589891
94.5381366847257
94.6384376278279
94.5956409711193
94.4324058954521
94.2102554145326
94.0901320992594
94.1075352018783
94.1923667346226
94.2826049388794
94.1492639977282
93.9512719313727
93.8698095215178
93.8749990411121
93.8774924237805
93.8645573278753
93.8384058382439
93.7750260251302
93.7612350607683
93.7189638665729
93.5213455881006
93.4756180097484
93.5392653767225
93.4870401496053
93.4734885105959
93.4988324366729
93.3632764319364
93.1615135288699
93.0924939539625
93.117606163432
93.0726306020264
93.0297128296578
93.0531370361633
93.0032771694715
92.9356947490849
92.9384957172267
92.9254484842247
92.8290129030935
92.6296301249409
92.5537036390516
92.5609002665422
92.5489011278798
92.5041222219334
92.3585940790604
92.3014877447659
92.3259609706658
92.2009545994035
92.1685538701865
92.1325475282782
92.0079565930202
92.0197502003394
92.021252948636
92.0174241131292
91.9663935150871
91.7899850356568
91.7511675738743
91.7754933923103
91.7051189666603
91.6122399418425
91.5517203808523
91.5242449081987
91.4337652625247
91.2591751788132
91.1654061615215
91.1643906390701
91.2032938924592
91.1613138199659
91.0491121834746
91.0036530069292
90.893664462724
90.7805693734615
90.7905022515554
90.715648774993
90.664123524752
90.646326595755
90.5095886512059
90.4421181012816
90.5165095709336
90.5474113034252
90.4638806880865
90.2827725901763
90.1940831622126
90.1625336510941
90.1412648498435
90.0979510621713
90.0080089596091
89.9544910366429
89.9163377810544
89.8428272968191
89.8727107607112
89.903000450511
89.778613581202
89.6520989778823
89.6066292872249
89.568654440348
89.5475615770969
89.4693502921123
89.2940548322509
89.2075964745546
89.2714359732573
89.2626148113133
89.2018179718187
89.142527656988
89.1400988082839
89.1366930337752
89.0180160272332
88.8887438392685
88.8325188401472
88.7917952845339
88.808205523794
88.7950687393246
88.6639807959209
88.5335108850095
88.5484423269727
88.5834663549998
88.5246781559045
88.451499058602
88.4460551393339
88.3723421194618
88.2466799083747
88.2372610921587
88.2357535885048
88.1303228304499
88.1116792008559
88.1574880462961
88.11922658452
88.0577247095733
88.0085588051457
87.952792023007
87.8927314528227
87.816179000419
87.8020306248713
87.7869954955007
87.7573416068001
87.7115010033305
87.6558472914558
87.5789885964217
87.5579759297083
87.5644956198214
87.5223634598719
87.445050610506
87.4513015702743
87.5171043040203
87.437512923063
87.3493140782844
87.3967217951365
87.3654989213204
87.2441119778466
87.1837186638512
87.1205185165605
87.0292874826926
87.0029752764382
87.0523783901816
87.1052126551693
87.0553015388569
86.9985893217165
86.9756748724095
86.9596534654411
86.9845295720477
87.0078760345116
86.9489321338304
86.9343910845223
86.9420341764567
86.93524568051
86.8879783822939
86.8757842670898
86.8807688404232
86.7856663704715
86.7239601711354
86.7750830504756
86.7451140781719
86.694348898639
86.7395733580536
86.7514442107558
86.7225404621776
86.7608297958767
86.7689939615452
86.7280231033206
86.7199507702734
86.7058279446934
86.6940686441285
86.77614669978
86.7763862519406
86.6380077562197
86.5856699870323
86.6614833747984
86.6820307648673
86.6104039593318
86.6066954664538
86.6731267057993
86.678604360128
86.684951125649
86.6734790868985
86.6929913100592
86.6703335032229
86.6230360961927
86.6700361081253
86.7122646808656
86.6797337652177
86.6460287756689
86.6490054663921
86.7193593008107
86.7718237975046
86.7507006270107
86.7096874377634
86.6946319196385
86.6709594344389
86.7403192086316
86.8460819981383
86.8433544041922
86.8120043451509
86.7914930351497
86.7647034453705
86.8011400739737
86.9095263480731
86.928949385891
86.8321471539172
86.8439169517863
86.8166786850348
86.7515560287767
86.7936407406542
86.8669551178233
86.919144019144
87.0022134596639
87.0445290940982
87.0321189866822
86.976279439173
86.920144754158
86.9015968748378
86.9300679338533
86.9470477852259
86.9654169760511
86.9935064094219
87.0328255683989
87.0743096786409
87.1112605019827
87.1281759134346
87.1336361157558
87.1553047593034
87.217459959381
87.2638964233287
87.3225997177587
87.3179825941831
87.2486121902974
87.2897355215384
87.3754110705272
87.3812212540336
87.3904194541103
87.44090082912
87.4687578583382
87.4599213936916
87.4923728881496
87.5288217066316
87.6113375481369
87.6981561845567
87.7130188247201
87.6855043705105
87.7098150878009
87.7824005467985
87.8704888027207
87.9196756205793
87.9408781415818
87.9215035778831
87.9067361371751
87.9767929927745
88.0319490294213
87.9958285869305
88.0449486022012
88.0904539021459
88.1082191258009
88.1418403294344
88.1343964094673
88.144949061757
88.2137813812722
88.2444084904298
88.2850016038499
88.3543908560359
88.453856616952
88.4931111846319
88.4834045069442
88.5334159431614
88.5811364862707
88.5638141815834
88.5548447240025
88.5890800296574
88.6323097672481
88.6837800548184
88.7412528639437
88.7451766111463
88.7480970436799
88.7023165972325
88.6564168868129
88.7238045370678
88.8555270514989
88.8876246919295
88.8463819871451
88.8661686059857
88.9649914059225
89.0051151707439
88.9922427319794
89.0212015367976
89.084256409575
89.0749239515536
89.0514927502591
89.0741861408389
89.0986063283108
89.1372992165103
89.1839585863598
89.2252689599629
89.3028413140005
89.3488212200172
89.3620255589099
89.3402717492865
89.3537850137889
89.4433335612947
89.4490390853775
89.3730736068775
89.4741944857548
89.5805218509232
89.5527433357719
89.5532967081698
89.6279076497968
89.6842547890629
89.7284964529949
89.733722965682
89.7276116512895
89.7550379851672
89.7864983499514
89.7846147546807
89.7917151200699
89.8287249609733
89.8784384312888
89.9528511902892
90.0279101202755
90.0381780428984
90.0306987789259
90.0081603482181
89.9898705831321
89.9839543102083
90.0027109708873
90.0268629220007
90.0589161622651
90.0603204880905
90.057056237317
90.0464093443571
90.0853366112568
90.1122511286595
90.0356806025948
89.9580003063753
89.9694396919725
89.9725726110334
89.9840422318665
90.0439205572057
89.9848058579874
89.8928894002743
89.9183259876112
89.8852382314373
89.7772974872802
89.7026046285332
89.7146747634908
89.6992976954502
89.6877261015446
89.717358806479
89.7211335432486
89.6878223502296
89.6280799863644
89.590881528272
89.5974048423211
89.601351463824
89.6579301275571
89.6565103433047
89.5948484471268
89.5620111724013
89.5194795521335
89.4874004386799
89.4283126736118
89.3510769099253
89.368723516117
89.3503756824619
89.329023175262
89.3575611836088
89.371339937125
89.3422538512426
89.3354939161377
89.3978142280735
89.4556024999756
89.4727957814162
89.5568961363318
89.7125342661373
89.8076095453557
89.7913389436834
89.7983752962495
89.8555741958663
89.9254356434684
89.9607172239179
89.9946561452045
90.0680665884967
90.1593792058254
90.1698666173316
90.1614471647109
90.1895863711659
90.2544314971623
90.3134198355563
90.3157531209543
90.3391615057587
90.3956581982745
90.3673958271886
90.3201482292705
90.3227198931338
90.366866560719
90.4480064195087
90.4892610571328
90.4785346559422
90.5163842975757
90.583540683468
90.6320126966387
90.6288151445538
90.6600471205561
90.6856628742219
90.7168624353263
90.75395642165
90.7474038182503
90.7556715032478
90.8105843880524
90.9080315945675
90.9890861596859
90.983448804078
90.9831367145029
91.0195498811814
91.0928086675069
91.2248650257411
91.3283871264717
91.3435779825666
91.3568743732866
91.3406595084991
91.3514274415961
91.4120614866105
91.4519568767595
91.4656695773976
91.4997398250297
91.5679312349671
91.606359417095
91.5582868670198
91.5612890578968
91.6428337032903
91.6794989199257
91.7026583212785
91.7273890717305
91.7241399232711
91.7758898052094
91.842361212752
91.8570634072927
91.8782589293828
91.9028029924507
91.8747397896358
91.8760848182081
91.9058025681686
91.917478543983
91.9477605482108
92.0052501033203
92.0069430772237
91.9895443208401
92.0188765438503
92.0811361110395
92.1041638763965
92.0670059561461
92.0536243766673
92.1156888723079
92.1528018664408
92.1335259518003
92.1592275681551
92.1997189823275
92.1622392719826
92.1816397158701
92.2530982472487
92.2477368429847
92.2288124312923
92.2694387594701
92.3138604239594
92.320206065739
92.3030387121095
92.3166752874915
92.3558386836951
92.4218403855342
92.4576415152502
92.4060658286358
92.3800082271007
92.3984631978853
92.3892216132136
92.4207402594698
92.4645984898835
92.4589191986692
92.4752651180115
92.506822976356
92.5348174663907
92.6016075750854
92.6458706939156
92.6241033154623
92.5769699316394
92.5849058052519
92.6254528171259
92.6307865793161
92.6447532050099
92.6837529932767
92.6886181371479
92.682446038953
92.6820848122332
92.6808251920691
92.6847704875488
92.708513535783
92.7407276275679
92.7842825679085
92.7912740655991
92.788606116285
92.8048150488117
92.8551990168319
92.8784378428779
92.8707323148145
92.8856138355
92.8868199526159
92.866991464276
92.8945296768647
92.9135944562431
92.9028985375339
92.9019955776538
92.9413252583247
92.9655345639264
92.9316606211397
92.8820824639796
92.8857347254692
92.9298566241035
92.9746472141602
92.9494113855561
92.9092392638575
92.9504154423203
93.0114191887936
93.026395539596
93.0716803526798
93.0860485493797
93.0365709851682
93.0727960346482
93.1967713452637
93.2778825762216
93.2346149579996
93.1808870964019
93.2087538212366
93.2662559319559
93.3217751228179
93.330506048211
93.3751577346186
93.4051499509269
93.3481964598454
93.277982208841
93.3687740483656
93.5344284748227
93.5561030523077
93.5369539605715
93.5351346603405
93.494591142081
93.5358470003835
93.5823593181895
93.6714675748534
93.7385565846231
93.6586966822093
93.605327228902
93.6740222544941
93.763959165045
93.7597860734587
93.7605497518929
93.8063020221202
93.7439151014361
93.7286135353336
93.8109950734722
93.8448503854191
93.8331470526268
93.8897806275821
93.9499797780229
93.9196595135607
93.9160155986149
94.001840306173
94.0041431703161
93.9715402784338
93.9688106524913
93.9506089071269
94.000779280949
94.0940382920538
94.026251389453
93.9464452535688
93.9892175005168
94.0641973198031
94.1008825952593
94.0715443558395
94.1251347415839
94.2591156612095
94.2521456787994
94.1805938741236
94.2071142187114
94.2303591322163
94.1420514934092
94.0608068314748
94.123127177236
94.2176416500755
94.2255649538453
94.2111688957712
94.217493664692
94.2518564552836
94.2688201673907
94.2875763464201
94.3644390015102
94.3478647113467
94.2780007345077
94.3278846876631
94.367513024303
94.3177143723487
94.3072627817133
94.2642387746191
94.2402365736539
94.2730710361331
94.322629660612
94.40795492568
94.431205966943
94.4503918387046
94.4211199611801
94.3758117461948
94.4087817973378
94.4491296220779
94.4967521933276
94.4517265722728
94.4042829328077
94.4008749168292
94.3921518467158
94.4696088539314
94.5210910911292
94.4531491773956
94.454414670151
94.475027878047
94.4566837323525
94.4699312725264
94.4993098188535
94.5622527146928
94.5893996988397
94.5888433354785
94.5888063858533
94.5581596228133
94.5835916063003
94.6726711718458
94.6493865418751
94.6260643373822
94.6582432655923
94.6700493968207
94.6990970617802
94.6645590233572
94.6836203439544
94.7042243325104
94.6727327103407
94.6900728035605
94.7441639239592
94.7853765176242
94.7113487477659
94.599559040089
94.6670212287817
94.7599340685004
94.7405019862126
94.7082384274072
94.6780046091891
94.6723349553181
94.6754716870891
94.6418835524546
94.649931638648
94.6894867445015
94.6492535587826
94.6086816259229
94.6592234379446
94.7062922251908
94.6846713803402
94.6806426681051
94.702258241677
94.7371979616103
94.7554361997735
94.7366712935222
94.7724095675543
94.8056516936681
94.8661462078139
94.909328867496
94.9085786795129
94.8369257345424
94.759545491972
94.7928177155572
94.7928613658105
94.7391168885485
94.6712985030099
94.6276247555891
94.6400169492505
94.6909834315109
94.7621662289395
94.8063104888757
94.7919559812193
94.7383687526348
94.7150583760137
94.7766242533737
94.7946460233258
94.7316101764655
94.7046219325146
94.6582306296484
94.5270132441744
94.4338889388892
94.5248777548644
94.6686914363393
94.7239175293489
94.725281807463
94.6871877602725
94.6885842109786
94.7514226450877
94.7742300602867
94.6951746086492
94.6483157527361
94.7739507512928
94.8567495238889
94.8530853035973
94.8993556411234
94.9340232246177
94.9168489258744
94.8842249717713
94.8790892554271
94.9764745686768
95.0672468629841
95.1023427240222
95.1679962084987
95.2162563901811
95.1131430592277
95.1306459708392
95.3176547385316
95.4709741233034
95.6610812103476
95.7203055284087
95.5862263453434
95.5513361645688
95.6535140392941
95.6982619869772
95.6965625652724
95.8545249119603
95.9157409420873
95.9027719799144
95.9362670442694
95.890919730421
95.8901410076667
96.0149088346142
96.0577756804191
96.0700752647122
96.1374265447401
96.1451538636941
96.1440153824012
96.2288415468609
96.2249306010505
96.2592097586107
96.4266845647651
96.5282316754396
96.5146870500962
96.5701613041994
96.4974747669126
96.4487442728776
96.3124565234185
96.5008343532884
96.9000978812094
96.8070196401073
96.631570108461
96.7774194574108
96.7531216045345
96.5659092952303
96.7352765973633
96.965704466776
96.7444522761244
96.7282045340546
97.1086253702461
97.254585932246
97.1129858341308
97.1821027061102
97.4542404138738
97.5768874732254
97.39652932742
97.5521018766592
97.6729382150389
97.5378042861262
97.5034912986674
97.9043402372727
98.0783981439107
97.8757635090998
97.9049686062218
98.2380928901659
98.4863712543624
98.8393206890566
98.5229772043334
98.025860576522
98.2638777016248
98.7085209592939
98.670156565385
98.0636570889377
97.6963094100622
97.6879004209572
97.728978909268
97.804831544763
97.6496218313513
97.3998523389538
97.4549545700372
97.4482952679325
97.3521246575747
97.3509415013438
97.1582010134654
96.9571966811872
96.907830947169
96.8839613732504
96.7438818922393
96.6173682636545
96.648265648554
96.5772850727358
96.326325459729
96.1911601228987
96.186605967834
96.2553520376715
96.2821313022143
96.4866644370191
96.6157142190476
96.5582632484074
96.5382551758188
96.5015285288605
96.4297948785404
96.5001472194891
96.6476297662125
96.6909453602406
96.6004817032159
96.486632059456
96.4018528258913
96.5412646150941
96.6554132450628
96.57908166065
96.4580134170659
96.5081336961896
96.6967488624264
96.7647141085691
96.771227971887
96.930507338848
96.7308683803543
96.6967094788165
96.8834804537703
96.838279775464
97.0543527828521
97.3842335156579
97.3835503581135
97.4168267139373
97.5013212719397
97.5125190939696
97.4991869730657
97.5331813148297
97.7895148442818
98.1537165289628
98.1760984135833
97.9553431211571
97.97743711015
98.3436534599587
98.4221284409986
98.4472236029475
98.5984674735718
98.6491824561432
98.6206889566265
98.7176745447791
98.8534330083924
98.8106250043058
98.4915428411558
98.5242532870544
98.8345331169649
98.6362581146449
98.4873321876117
98.5677282143352
98.4459072165038
98.2432987242895
98.2186837947926
98.5858994368717
98.5775013394397
98.0369202231399
97.679975774075
97.8161380406624
97.9668188545051
98.04189054891
97.8926759253167
97.8826971100672
98.108799320143
98.2402006545748
98.1804373623506
98.2525007093532
98.3383240780996
98.4889852924359
98.5527262195743
98.5806913051686
98.4513432015254
98.3619266786184
98.4456477030921
98.2694469352607
98.1169835418398
98.1907056969562
98.1243110051809
98.1296588927764
98.0781458095643
97.7780435491535
97.5935036622178
97.637092349311
97.4640688485921
97.3591137533546
97.3722563105033
97.4059318193172
97.5125193519726
97.5352101820864
97.3910264150476
97.2973170509708
97.3244835559109
97.3140459360143
97.1098858944879
96.9480559662625
96.9803470047409
96.9699828678948
96.9128531301515
96.999655144688
97.0624325757659
97.065388768145
96.9514817888399
96.847494079621
96.8478025511705
96.8766638240972
96.8270529677051
96.7717046906056
96.8236343229941
96.8858743851882
96.8190325472338
96.8013013676478
96.7695396599314
96.7684990420478
96.8822813949409
96.9163621892001
96.7512698435991
96.7043581189063
96.7244445558222
96.7387588484333
96.7087971044707
96.6905757797189
96.7593085662071
96.7277063544364
96.7055613969183
96.7502328147746
96.725331924866
96.7530773231197
96.8228936312407
96.7743639598128
96.6960479104142
96.7101517042627
96.7231656540818
96.7021213356053
96.6615722881206
96.6456715107008
96.6422776255536
96.6813117236869
96.7126078189211
96.7542304931698
96.7689228715128
96.7313352570479
96.7151774831643
96.7013813725777
96.6616060712839
96.6924974973397
96.7207364355266
96.7039897879536
96.7201893017087
96.6994229551897
96.6590772195969
96.6578511638034
96.6158081529983
96.6321970419347
96.667663877145
96.7194912218115
96.7414103445592
96.7614941329378
96.7265572042205
96.6432209525575
96.6103416818656
96.5923793794475
96.5659546409461
96.5648902491659
96.5232863565229
96.4605761824826
96.4401613577494
96.4445233794676
96.3841281544662
96.2765201372296
96.1914814887788
96.1657365501035
96.1020489039968
96.0147498525211
95.9545692774592
95.9171470737242
95.8756981257366
95.8096346030179
95.6903531268337
95.5927282084536
95.4439572291002
95.2879802078934
95.1460333946456
95.0831708637272
95.0140222299326
94.9655476942565
94.9150650037881
94.8221629284077
94.6681132301237
94.612897410868
94.577270758195
94.4400160961893
94.2696381993468
94.1609204310323
94.0855438868781
93.9688951436392
93.828685823601
93.7395836932967
93.685263797411
93.6373221234821
93.4103571180987
93.1568688087807
92.9879848485925
92.8378685939295
92.7181898419545
92.5824215593709
92.4118176843121
92.2810123367061
92.1315067213459
91.8877799975054
91.5875506036104
91.3516875842164
91.2288142724947
91.1177752567075
90.9195033023453
90.7032018934863
90.4879114748427
90.3064839769098
90.0654430210746
89.7429239439286
89.4753529362003
89.1605754489302
88.9192582290832
88.7374928066032
88.5492706925622
88.3253263641377
88.0175505142614
87.5787736561922
87.1910477565261
86.9275823556453
86.6292800969611
86.3517793909658
86.0068245773193
85.6662887414268
85.3124529074283
84.9432394540164
84.6311036201259
84.3549037249101
83.9885652096897
83.6317649937475
83.3675011734973
83.101600103889
82.7642891649697
82.3375027469632
81.9093418488546
81.7610425310816
81.505969344442
81.1594808084631
80.9055352119817
80.684219639701
80.4570668169816
80.2132579475817
79.9135954501022
79.5447952145293
79.2815379499512
79.1587176448567
78.9455595938358
78.7083058382868
78.4899489145426
78.2525349096409
77.992582518488
77.8337605134564
77.6098903521277
77.3093966301334
77.082468949307
76.8960728685455
76.6591477606418
76.4201536385299
76.168863147855
75.9452405883407
75.724430832144
75.5031131704821
75.2870684807163
75.0953643237365
74.8910323880193
74.7164373267915
74.5741155420621
74.4353961199809
74.2817912609468
74.1823947793948
74.1160475504547
74.0757969213834
74.063579049953
74.0421537362524
73.9146217508246
73.814014047943
73.9906869532878
74.1200806463031
74.0685751041284
74.0963945405745
74.2403230592756
74.4045036803203
74.5519289038188
74.4852472012103
74.3346039352068
74.7765132373218
75.2689569497136
75.533901964355
75.7978055316596
76.0219550418763
76.3185882206317
76.6073294789079
76.8687264515885
77.1084564991233
77.2887212102174
77.869882917853
78.5969247097675
78.8878079220291
79.1270789053406
79.6281976114356
80.0247797523021
80.2677609730422
80.5762500342548
80.9313155126671
81.1585021438501
81.4948106466596
81.8857040596433
82.0757216435268
82.3848958581353
82.7076869518537
82.9723985969435
83.1072587383703
83.1229359526588
83.5576223432413
84.1500635501492
84.3867131879054
84.5140393670552
84.6641750709686
84.9607818902487
85.3051652368048
85.4979234193305
85.5864127497826
85.7563398874839
85.9565253582429
86.1311387079759
86.2491566577503
86.337755708143
86.3897295691266
86.3593640633208
86.2534897046888
86.0529649001527
85.8031405427729
85.7093138121206
85.5545885467199
85.2568304631033
84.9412636753927
84.7828371582601
84.5842792830737
84.2298049847448
83.8161036510892
83.6765667407197
83.5947317794017
83.4050943770311
83.1874171048817
82.9681701080509
82.8284385895517
82.6694220309786
82.4841798161225
82.3043147963291
82.052818292812
81.7751845834239
81.652805098433
81.4661521572457
81.1476451767386
80.8631091053016
80.5984271286216
80.2949207139219
79.9854678650944
79.6672525717667
79.2868378633903
78.9858550397394
78.7990592067316
78.5543217103169
78.3125281714793
78.1012999080595
77.8977622767954
77.6887878003995
77.5148735044562
77.4112478769449
77.3141767271276
77.1828396337917
77.1375342219605
77.0803171541127
77.077438445246
77.128058090965
77.1002245175197
77.0443263165087
77.0586001023287
77.1383051843919
77.1798495989873
77.230321653412
77.3199295037259
77.3870991015809
77.4437521697373
77.6033575107867
77.8065331373955
77.9684847069883
78.1505738828319
78.3459582519768
78.5085750586779
78.6938851181179
78.9535078239085
79.1781227131543
79.3488310115236
79.532356097133
79.7517405427356
79.9410200910447
80.1212011410665
80.3121307042661
80.5088344849661
80.704415933942
80.8499908434356
80.9470737404556
81.1112739734917
81.2850048646326
81.4234792674079
81.558620351615
81.6821843966903
81.79808755349
81.89926502489
81.9955213510031
82.0888497240595
82.167754248106
82.2447762563158
82.3210564918518
82.3959941865983
82.4629900923061
82.5345483371695
82.6275561484143
82.7083629919964
82.7809258520037
82.8599731809866
82.9261515816121
83.0031869844859
83.0853464623842
83.1425181956505
83.2053341632865
83.282058999446
83.3302561760444
83.3651670018214
83.4074916773658
83.4650059657161
83.5060584750149
83.5108235120332
83.4903380313685
83.4735810302836
83.4639293040358
83.4457506229306
83.4167608855846
83.390895708725
83.3812248774258
83.3370989713272
83.2790169707325
83.2464855192403
83.2232356806777
83.1902000303048
83.1555192497808
83.1432669964452
83.1697964003349
83.1687787860047
83.1529012892879
83.1306238237505
83.095110308727
83.0757465720467
83.0651318537524
83.0584218870694
83.0418205727662
83.0514430231569
83.0776127092655
83.1012163761717
83.135154594838
83.1755409466703
83.2219479563558
83.2820319131481
83.3477719302286
83.4294344101944
83.5005129355571
83.5723928076601
83.6483546813414
83.7328346687667
83.8412932852826
83.9529274128083
84.0429190746971
84.1241814395925
84.2129818983139
84.3163652685888
84.4035648078866
84.4837915401782
84.5945263875798
84.6981765975251
84.7608600061494
84.8187566746921
84.8850264886574
84.9297454533818
84.9456034047957
84.9522088346294
84.9210329022334
84.8797787048052
84.8360631016746
84.7888530940628
84.7310295467526
84.6434341170553
84.5594709156214
84.5127037373044
84.4533320611597
84.3920502498422
84.3170630485858
84.208705478777
84.0936032528813
84.0114374706158
83.93194063433
83.8417218872924
83.7361221322269
83.621924107367
83.5125319015443
83.4246547104862
83.3207703000544
83.1822418241044
83.0303457313084
82.8816543391854
82.726490691651
82.5569438632595
82.3569973659391
82.1291567518731
81.9253595311382
81.7491873910134
81.568038750043
81.4284581252924
81.2867336757017
81.1516488044276
81.0529781523499
80.9602396278231
80.8586228538788
80.7678457069847
80.6597408344496
80.52938997231
80.389416425135
80.2580873068009
80.1297537586754
79.9649017207919
79.753843026889
79.5447367740078
79.3489874737822
79.1376927610531
78.9148483234821
78.6967932868856
78.4527468307145
78.26394672736
78.0905710387562
77.8808810588786
77.6791906920589
77.4966587871831
77.3189930388215
77.1552355986263
77.0031015094722
76.866710442667
76.7540395319935
76.651759228039
76.5317690119345
76.4185476970807
76.3260616212359
76.1947152952378
76.0714918723806
75.9652480341348
75.8390144202643
75.7129377002941
75.599159299777
75.5249453255939
75.4678437784616
75.3914564521241
75.300097590821
75.2393368204345
75.2310535380443
75.2567409643804
75.2896900898547
75.3385923708596
75.4184922512244
75.5019191492983
75.6090159137861
75.748877910061
75.8732609403401
76.0323349587057
76.2131949558189
76.38815684045
76.5860285620035
76.8203734238778
77.0815525414662
77.3243553254273
77.5652982464228
77.8349090337946
78.0847693080549
78.3435388946021
78.6088041902857
78.8678091609617
79.1194987305814
79.3805278045431
79.621528621909
79.838761998686
80.0540157738563
80.2862639012585
80.4993500012292
80.68831284647
80.8651608617545
81.0584631783445
81.2503086418009
81.411068489795
81.5630793801315
81.7151891905002
81.8959149912556
82.0895274944307
82.2909222788172
82.4733980892372
82.6393015835201
82.8278502136031
82.9972659716044
83.1394433376128
83.2581750897399
83.3981695459918
83.5775642215758
83.7172552983567
83.8580571715485
84.0153256621633
84.1411675750116
84.2709042231339
84.3986469338046
84.5057332562667
84.6188340782093
84.732638356607
84.8550018923749
84.9556053721478
85.0578878444221
85.1872333331076
85.2726705846504
85.3338881943281
85.40729578773
85.4810096595667
85.5207286134887
85.5454128954257
85.5936963004285
85.6539345598987
85.7190304726348
85.8387977173729
85.9058058589819
85.9276478434971
85.9788922505016
86.0579771018227
86.0944016418921
86.1082416603687
86.1509770903128
86.1850931158594
86.2067006987136
86.2307233032099
86.2675775194836
86.2963821837144
86.2996077092519
86.2915920280285
86.2742385638537
86.2766856524732
86.2645465740851
86.2837869586795
86.2994317233917
86.2883653264755
86.2992067063057
86.2961961203208
86.2560529296848
86.2204532549001
86.2077068234232
86.2006374903236
86.190051317531
86.1474901856694
86.1008962048286
86.0885406585747
86.0438997286981
85.9963995694644
85.9149130216281
85.7711980311167
85.6717113737366
85.6076955072485
85.5386025430364
85.4524789030536
85.3290157886262
85.2205694125891
85.1391505241093
85.0701378151805
85.0020926642758
84.919028684814
84.8072055570946
84.7048560140561
84.6019352295099
84.5281203658313
84.4058523716287
84.2577997221619
84.1664755190941
84.0942754303118
83.9603875888415
83.8140192853183
83.691764966828
83.6054874614996
83.5596863268203
83.5238381451686
83.4620829190401
83.3505283978895
83.2753007892836
83.2120863591476
83.1196772133612
83.0135125664947
82.888824693693
82.8426222415565
82.8207199427731
82.7657462736167
82.7190122918111
82.6831214488338
82.6737224505352
82.6537342988222
82.6625433577828
82.6690339592573
82.6070097319311
82.5496800707317
82.5525995129914
82.5318317871634
82.4759634252649
82.4352064037979
82.4066253198966
82.3746110649881
82.3404989682203
82.2761471308338
82.2415767823441
82.2044794446341
82.1481254564731
82.1346179787659
82.1118059791773
82.0169989259786
81.9265411115893
81.8816398316271
81.8623255878903
81.8328562830771
81.7566341352435
81.6503385003743
81.5930307017453
81.5400059636819
81.4244897204616
81.3161057043968
81.2579453886966
81.1744626620366
81.0666101086362
80.9606879184389
80.85889307598
80.7888204571944
80.6769133479544
80.5634914211366
80.4715083991115
80.3965961961505
80.2671201015568
80.1566350132171
80.0545931560622
79.9277079058267
79.7915754086481
79.7078509754884
79.6441625838802
79.6443272308564
79.5791289532467
79.4569426914611
79.3825714992664
79.2587762776993
79.1158067317668
79.0586656402962
79.056864248861
78.9926656091075
78.832623229541
78.710076623953
78.6132712109616
78.462314743723
78.2072934011363
78.3464059197571
78.4029900122874
78.1562009378067
77.976743026162
77.8915053584624
77.8023987832081
77.7045404013141
77.6161665740443
77.5323521975315
77.4341194692859
