1798
3999.43349933624
650.420452594757
1
128
4
94.9589996198945
94.8959049059287
94.8669067760105
94.8679610846792
94.8955434257771
94.9372075276449
94.9531384990459
94.9966114976084
95.0072610099329
94.9471999186415
94.923352707863
94.9670733768962
95.013680510735
95.055214240356
95.0801745104949
95.1024505420672
94.9951751176595
94.8307697852381
94.833049043957
94.8611306355875
94.839523149781
94.8936270329002
94.9780128748339
94.9962918169021
94.9570575372936
94.9333066788978
94.9555495526716
95.0280056508412
95.0774849007583
95.1229084318826
95.0353954135322
94.9570421728963
95.0367111605205
95.0529950470879
94.9644933272487
94.8889931376135
94.8313589423359
94.9334083113473
95.086912894137
95.0731997010555
95.0607961251342
95.1348536032454
95.1313344348057
95.0691713557454
95.1042743209378
95.1401409453561
95.0446513408458
95.0535389203603
95.0630423536337
94.9278590073545
94.8807843636845
94.883551107625
94.9431868874784
95.1556001651812
95.1963002487553
95.1153645190437
95.0149880544812
95.0308348653448
95.1275514864528
95.0568030024425
94.9546666594356
94.9876766456384
95.0192087993546
95.0101548591987
95.0589452421382
95.0906044641599
95.0468157773287
95.0766057087911
95.0326615216895
94.9345015036584
95.0268991421044
95.1862470799983
95.151274061132
95.0997500746116
95.1359479245821
95.0987125924835
94.9522602181227
94.8923568701879
95.0392093271974
95.2273380261288
95.4013126274052
95.3959648081187
95.1760281698929
95.1237286203518
95.1689969289232
95.1668647312339
95.2105979718674
95.258549104223
95.2910398594791
95.3028912639756
95.2757987099727
95.2602845046105
95.2256842450779
95.1658458354045
95.2154324958295
95.261297660459
95.1428844613494
95.1729504824498
95.3356608658723
95.3689670878563
95.3277103323929
95.290526849043
95.1888932704626
95.1168393829489
95.0745886300199
95.1260198772863
95.2474395574081
95.3005105890086
95.3486022229856
95.3505142682486
95.2681725566038
95.2516234336419
95.2928689498174
95.3470609316607
95.3784201704451
95.3972012494503
95.2932095481443
95.2309965032108
95.3263864463674
95.393471671102
95.3942536472343
95.3635588086202
95.371757027686
95.3836852370195
95.2459407300368
95.2349355010756
95.3343412993175
95.3061198675907
95.2684544351055
95.3224376688585
95.3600740074227
95.2656338526443
95.1291090032289
95.1717457669803
95.2753409240444
95.3764987131584
95.4931580876907
95.5333483029883
95.3985641731386
95.2609869987248
95.3011026667045
95.3629998004675
95.3285322151747
95.4357924986117
95.5329874921757
95.4710643619776
95.449562807327
95.5252272652108
95.5376322687559
95.5520123524357
95.4977100536538
95.4399978305887
95.4268277202268
95.3823613027263
95.3571340180963
95.431694481065
95.5080067905116
95.5547395092557
95.5730056788491
95.5356265345212
95.4488162596464
95.4458789616966
95.4419110495414
95.4694666164683
95.5182734956627
95.453704790454
95.394953036825
95.48642348998
95.5670192529486
95.5951279623218
95.565091651488
95.4608766291959
95.3367607922319
95.2817564553702
95.30692369881
95.351359224821
95.4019032438562
95.4714110680522
95.4523561958168
95.4866494373069
95.4393795151517
95.3198438735152
95.2885368356124
95.2094448058197
95.1406615614488
95.1894194981402
95.0948696291308
94.953643077156
94.9918194922012
95.1395302342085
95.122523595921
95.0616751937617
95.0322445473851
95.0054613244951
94.950819635001
94.8126306254125
94.6534906871678
94.612126718903
94.7000545604431
94.751246412022
94.6887007898388
94.7002467534992
94.6860366144106
94.4887066095971
94.3201191721526
94.3549670763236
94.4682808517326
94.4929583955984
94.3085132302999
94.1084715836666
94.083598801111
94.1238740485469
94.0687575347457
94.0478211613031
94.0099252161933
93.8346765959113
93.7243818046083
93.8373034522107
93.8569265131378
93.7710824281828
93.7192471052804
93.6533594364919
93.609368585495
93.6084825223862
93.5524952482558
93.4621100585384
93.3509430152029
93.2703181942765
93.193265990449
93.0492559291903
92.8937174597517
92.9275646621373
93.0330864140447
93.0022535535595
92.9548221626732
92.9884441004998
92.9330958813062
92.8247337289398
92.7120016165241
92.5990737580778
92.4435171571541
92.3856303570889
92.4136310227035
92.3434351946584
92.2204956534231
92.2557184981411
92.2401416197531
92.0737220603211
92.0330890113911
92.1307169428999
92.0903557310641
91.9653025019798
91.8378100515179
91.7589940047893
91.7407109611972
91.7330931620643
91.7137477581802
91.6557066931325
91.5362798286773
91.4488389950432
91.3423766274468
91.2334309601568
91.1522058417698
91.1247505960661
91.1226458177256
91.1207643307916
91.0599435251797
90.9630774276186
90.922695087399
90.9081478195817
90.7865931387929
90.678376382612
90.6402625068964
90.6287932775407
90.5491353994179
90.4680392770677
90.489080398815
90.5229340272299
90.4242008734844
90.2317272754181
90.0992108095975
90.1342793665331
90.1356424150333
90.0252104696109
89.9420413897337
89.8996003218453
89.7974182487937
89.8132453713502
89.8036770858993
89.7309467946565
89.7109348510232
89.6244006381433
89.4887829341396
89.4769625179542
89.4983014715934
89.4024202566474
89.2780691774708
89.2270137130945
89.1910480533967
89.1800291455336
89.1432728581374
89.0964440236185
89.0021668644184
88.8542386789863
88.7606311856253
88.8207740588417
88.8710783066544
88.8046242688171
88.6756172511731
88.5826914111253
88.6109787145197
88.6581137082377
88.5635679916416
88.4596055808471
88.4039570666992
88.3648093836469
88.2799042869761
88.2199423742799
88.1836403574399
88.1240860446578
88.0534456775052
88.0535796172321
88.0344212286295
88.0012602185523
88.018158018819
88.0620180277524
87.9832633354637
87.8358962608707
87.7898922023037
87.7820388289895
87.7159324719247
87.6423961538289
87.6090900872767
87.6645089467219
87.6698479918684
87.6473887175933
87.5789951364314
87.5295338867319
87.4726488780497
87.3615900844044
87.3149293299948
87.3261191133431
87.309767445321
87.3077245818636
87.251146376492
87.2036097108823
87.2145601757443
87.206336101219
87.1809996090296
87.1486559985793
87.0944280183954
87.1559919762037
87.1222600383667
87.0659643196632
87.1360410589414
87.092056707908
86.9889622133221
86.8942420525057
86.7921909267754
86.8893551949141
86.9922878442619
86.9698499119887
86.876801097373
86.8446049968663
86.8550013993659
86.9053152367534
86.9120163785304
86.8664028306918
86.8276876632843
86.8118608788889
86.7819727798021
86.7916875017598
86.8203488438467
86.7779138981468
86.7799907221707
86.772244828651
86.7032993155712
86.7518715188071
86.7558445191314
86.7596520981834
86.7256380288824
86.660380615438
86.6588136352021
86.6604614666783
86.6306087181164
86.6421402099207
86.6169699704343
86.5433931671436
86.5340690555357
86.6058505560306
86.6320972175016
86.6387797877829
86.6515706357936
86.6845566864052
86.6897072733302
86.6884293675102
86.6076774157186
86.5753038273269
86.6514727119128
86.6912234376203
86.6663087105917
86.659627232661
86.702456100561
86.7645461365411
86.8186257241942
86.8019089022059
86.7234934087072
86.7552792472509
86.8085137718894
86.8496127181847
86.929595504602
86.9469958096012
86.8525048210049
86.8614172940784
86.8582332011098
86.807754474237
86.7984087296313
86.7989528570779
86.8080954888823
86.8744620493854
86.9809197474256
87.068105920058
87.0263808513928
87.0053322854646
87.0187126605251
86.9923009156045
86.9710119189563
87.0159837347335
87.0577440092558
87.0673268113784
87.0868402505795
87.1066968878595
87.0818251368786
87.1141009357699
87.1761801953464
87.2359298295652
87.2019663890146
87.1712157429562
87.2651161838552
87.3441810731591
87.3203528863516
87.3062738103669
87.3292309027709
87.4195590795971
87.4704860474991
87.4904087640246
87.5189820846853
87.6090767363249
87.5963288096886
87.5348840061672
87.5734379922279
87.642077896817
87.6544048837461
87.7036361437642
87.7918992932221
87.8824947614108
87.882219259969
87.8575764443088
87.9200622624231
88.0524704335523
88.0548058874231
88.0266082727849
88.0651008946012
88.085113441577
88.0935012796795
88.1056304202117
88.0942970359607
88.1364951098219
88.1772910970712
88.2249167005111
88.3144885275437
88.4220473287464
88.4575351314014
88.4692833136398
88.5399040746935
88.568675250948
88.443653622768
88.4812764099033
88.6426956313061
88.6711046500788
88.6312610166461
88.65799511078
88.6803199817241
88.6498598758782
88.6319526829792
88.7122529566486
88.7927737583006
88.8551691977431
88.8183773701104
88.7803842488716
88.8645290320173
88.9234928112193
88.9659803135107
89.036462216691
89.0261481194472
89.0361557145081
89.0540285305784
89.0242396647065
89.009908730943
89.1212351528887
89.2339012559564
89.2466265563809
89.1823379925771
89.1492949073981
89.1722218139755
89.1979494701576
89.2741576549592
89.3548906728338
89.3572777590627
89.3872164514826
89.4435223032791
89.5372834450817
89.5930115204296
89.5897403422986
89.6004025900858
89.6589039451964
89.635865484699
89.6284814497598
89.6872494948219
89.6845598699821
89.6618573120687
89.7934525996649
89.9074183593507
89.88451353799
89.8458437607445
89.8304742349894
89.8781246387949
89.9454308644921
89.90581082287
89.9222114623651
90.0012422912645
90.0449286002586
90.0515805685689
90.0261060862567
89.981956402635
89.9828598010669
89.993251202348
90.0378682379663
90.0651363068864
90.0333784320436
89.9655654573446
89.9426089700722
89.995924831079
90.0251924207857
89.9538834465795
89.9382616401469
89.9501400906439
89.8881290143767
89.8065068986429
89.7737086395553
89.7556643484119
89.7535741542796
89.7173867710131
89.6582390696085
89.615955760223
89.6225319096009
89.6391145454316
89.6445925336767
89.6275228869217
89.5874594756502
89.5463701500192
89.5601462742547
89.5261546564459
89.4887323992981
89.4812488376645
89.4947910148492
89.4950588414643
89.508486952983
89.4818008596856
89.4134166293499
89.2797243223544
89.1778779846969
89.2101386778241
89.3384377732261
89.3450946381229
89.2338664955521
89.1710343847032
89.1992566253183
89.2652619741129
89.3519395676443
89.4303677153016
89.5100548785706
89.568882255133
89.6018747757914
89.6263416053862
89.6787752791471
89.7346809821331
89.8128026385303
89.8647138104673
89.898196862199
89.9379872430938
90.0189556432093
90.118205328522
90.1558760006676
90.1142473356222
90.1111318234064
90.1757941418653
90.2383132304056
90.2439115032263
90.3015407555408
90.3536325091757
90.3011218336764
90.2746528571551
90.3244664463794
90.4111203900209
90.4676051818976
90.4699627075898
90.4301444842847
90.3937898151298
90.4354128024672
90.4953566137128
90.5514662169808
90.6165597994599
90.6635345660711
90.6939937502941
90.708501676819
90.6946443573565
90.7449105247569
90.8147559760122
90.8598106662586
90.8953427605512
90.9918127752139
91.0520128082578
91.0789313533882
91.1219578089009
91.1704404822188
91.2199869628842
91.2737025538495
91.3156465650753
91.3730275977616
91.3798667621263
91.3919014811093
91.444251048399
91.4990777899618
91.5090736431203
91.4911414225303
91.5062835684473
91.5401554044776
91.5615051278446
91.585300405865
91.6097780576863
91.6728485268564
91.732186875918
91.8014196899249
91.8324006389103
91.8060019544076
91.8072752505722
91.8320289220143
91.8116147139418
91.8301670772809
91.9135505072026
91.9603086592164
91.9223361497375
91.9103230206691
91.9285905151653
91.9329512085771
91.9679738931729
92.0250561358773
92.0527556395004
92.0566511882347
92.0152419010943
92.0364056887978
92.0993745651763
92.118502274667
92.1406193051445
92.1341873729967
92.1038243301352
92.1262430168199
92.152400150897
92.1573412885212
92.1617167709916
92.2222142222575
92.2613602486918
92.2551095325908
92.2689260125573
92.2981753561141
92.3180908132557
92.3274590029054
92.3450152816103
92.3581946640199
92.3561172003287
92.3775223019519
92.39756724056
92.4119919196606
92.4170965256185
92.3944306385544
92.3679840597664
92.4162467750566
92.4687524636599
92.4927767036731
92.483468983273
92.4961676412178
92.5499018002084
92.5803603840323
92.5849505194848
92.5883329387761
92.6166702670648
92.6306021779879
92.6263532337637
92.618908361784
92.5864633792371
92.5956398589038
92.6434517193745
92.6803573251846
92.6757221911903
92.6876006603442
92.7231681066837
92.7244271084166
92.7402871244065
92.7801727895761
92.7735238824401
92.7571781551422
92.7839592251093
92.7853496300904
92.7735825511079
92.8012239543596
92.8088345693364
92.8344396598929
92.857032785092
92.8349699381779
92.8077098522412
92.820371769149
92.8658096903967
92.9209379893507
92.9603655839501
92.9525963310634
92.9348944775658
92.9559795785612
92.9617836277609
92.9868491799763
93.0299711482281
93.0452821166133
93.0695788981189
93.0769792199393
93.0746649135777
93.1153000110747
93.1720901222745
93.1977963131524
93.2030447004994
93.2341072855997
93.2479591065777
93.2502929488342
93.2745704278208
93.2861456383952
93.3321807895308
93.387031380457
93.4472266829297
93.5045912226841
93.4377420251924
93.3791145053668
93.4429877714185
93.5823850389545
93.5699475716565
93.5276962226487
93.6326839813997
93.7175985293633
93.7404714885004
93.6904132129345
93.6115487864875
93.5867334154333
93.6593980705871
93.7031983744446
93.6901600457671
93.7293191401764
93.7037491274086
93.7194672413022
93.7796813197184
93.8075788139575
93.848708564348
93.8929075689333
93.8988606290143
93.91362972074
93.9042137759647
93.8940394666742
93.9762673646699
94.0061593681475
93.9338660651991
93.9747609032843
94.0759528308577
94.0626049523636
94.0553526440347
94.0727426776451
94.0488287729511
94.0420436349254
94.0797073108697
94.1468333260187
94.1483094098312
94.07185883765
94.0948240246499
94.2426172243434
94.2423274835909
94.0899395871402
94.0040118360713
94.0952639255062
94.2096047887137
94.1826186267087
94.1093228410539
94.1550098958089
94.1960981135155
94.213428872796
94.2725872754905
94.2836032366874
94.2004018210615
94.2800345146713
94.4585378217309
94.3929410229168
94.2339143447389
94.2419788059967
94.2983934959508
94.3125915036323
94.2917742520196
94.2588982976711
94.2886169440914
94.282491264523
94.2549902209924
94.3723108869537
94.5264458954394
94.4120281588475
94.2978798283307
94.3566863891427
94.4056964125591
94.4131516162194
94.4124771567034
94.4246656583416
94.3824487927501
94.2858646957815
94.2738830495842
94.3350915072194
94.42581689149
94.4955209602503
94.4748689783023
94.4554032929842
94.4888409969802
94.4886824137411
94.4522654465796
94.4483050207299
94.4831748892581
94.4993275325546
94.4606975171741
94.4689588775367
94.5575094866447
94.5726122296516
94.5206089325352
94.5617095111062
94.5327030273757
94.478990316965
94.5766793192809
94.6266630192304
94.5925612690437
94.602125237113
94.604186735976
94.5687997543361
94.5683640162745
94.5884179620687
94.6214290894993
94.6273036613711
94.6558436208709
94.6392881439628
94.6046138149529
94.5743275264527
94.5453534856484
94.5734213165379
94.5808425882849
94.5532602946717
94.5418117337192
94.5236903231663
94.5406804369716
94.5565848941392
94.5548701975204
94.5519098947487
94.5056873920273
94.458054591119
94.4212891090153
94.4434011343752
94.4923074255722
94.5260156457732
94.6489129025916
94.7314565521472
94.7933794324939
94.8026656647923
94.7949798962678
94.8675274133231
94.9378710676195
94.9001003583518
94.7941692147387
94.7058345808541
94.5574369975623
94.4070918137005
94.4379698380747
94.5383439702245
94.5538788087935
94.5869187773494
94.6560511339407
94.6234999824049
94.620112609756
94.688185189664
94.6569249165616
94.5864224386966
94.5445846671908
94.446761012983
94.4490077625729
94.5182010194376
94.5809283696479
94.5991477158194
94.6262646780597
94.7202771356609
94.727850610971
94.6936860475448
94.8082498239136
94.8953396240531
94.8086731771685
94.7516950848898
94.7723792286327
94.8087133865649
94.8682368210085
94.8794053279389
94.9159653708092
94.9061617159897
94.8957398115653
94.9271162007589
95.0131817973219
95.1641467041159
95.2072905841995
95.1808254758201
95.300945558813
95.4598208682035
95.4287732885994
95.4916338548872
95.706338237547
95.7731625698551
95.7724933072773
95.681832800152
95.68075430758
95.7897334087917
95.8101699921352
95.8903112458941
95.8919554641792
95.7859351918991
95.942144282467
96.092779890007
96.1757860509693
96.2489429039712
96.2258632570977
96.1961366993466
96.157284769195
96.1228875115126
96.1135793253515
96.0804888851782
96.3467434143094
96.4857915117847
96.3843052541017
96.3894285134781
96.5199825173575
96.5672167264345
96.5634437560296
96.7030194399412
96.6727943148905
96.6209027185749
96.6843349175486
96.695493019151
96.8205665416824
97.0480628719621
97.2734418152716
97.0230818067289
96.8735251209129
97.0730109682375
97.2654693111968
97.327027448322
97.1416999218389
97.1906149775208
97.485752256306
97.6360862319921
97.5666363153496
97.2915117169451
97.3131122173631
97.7840527204694
98.0079785092607
97.9386553533201
98.256094267799
98.3614584273649
98.3493689567644
98.1031970737512
97.9538320135318
98.1943407906546
98.3765232145502
98.4479715235324
98.7235129711473
98.8113655674247
98.801919955924
98.547048656294
98.5271161685805
98.6085515522834
98.1957982386103
98.0397736540296
98.0932190055417
97.8128160273651
97.6504361419988
97.5863815225238
97.3557399419773
97.1986280211181
97.23256950264
97.1770430450139
96.954818808524
96.6965680021719
96.4916845385099
96.4134707209162
96.3985084270703
96.3775257806075
96.572205542047
96.6179978977319
96.4466783864023
96.3185517783477
96.3495070008147
96.4610332039963
96.4473946049207
96.3206343849175
96.3500451077074
96.4362277124775
96.4581245808278
96.527242376747
96.5832783996592
96.5001626991544
96.5770529927922
96.6042436220217
96.4066377897716
96.4017241146062
96.6821754595322
96.6940320395928
96.4459729725081
96.4413385761926
96.671966374035
96.6880573990591
96.6852587667397
96.841596526097
96.9512414025761
97.0127043446516
96.9020953593891
96.8308509291455
96.9969709775526
97.0272861655982
97.031799379205
97.1776241435718
97.3446100349236
97.3806592025511
97.4430167033407
97.5445257547602
97.5365562243561
97.5874053217573
98.0663042808475
98.3303677414882
98.3911211387782
98.5603772568621
99.0157643431033
98.8995522736885
98.6744631145915
98.8640443944769
98.9551583095614
99.1656706034426
99.2760588056003
98.9871732671145
98.8772631051115
98.7403782287724
98.7101291610695
98.7786392263602
99.1534557024632
99.1047749369095
98.9156861895761
98.8534086072249
98.835274655065
98.672600597483
98.1596918631793
97.8741334362426
98.1557423482738
98.2452774753617
97.9227078147821
97.9894330851736
98.1269742812453
98.2281706238698
98.398330561904
98.3322618560096
98.1962082822661
98.1485410209069
98.2080947492105
98.3655299290173
98.5859551036276
98.5452574506903
98.7418736385554
98.9805820505677
98.7525324634315
98.6791675426402
98.7131179464585
98.4114225671183
98.340880290582
98.1903652906972
98.0078331752627
97.9691129357684
97.9258555098282
97.699116491532
97.5482873273686
97.5093026578055
97.4038808598557
97.2909956102336
97.3525518923559
97.3706159763532
97.2532430576846
97.247173274112
97.2535877909802
97.1848985389298
97.2418358495437
97.1692722689425
97.0523486951994
97.0035530548742
96.9683658558127
96.9118451589811
96.9218697706298
96.9076631968513
96.8632469282919
96.7993956323995
96.7692075593285
96.7555792483726
96.7005697958343
96.6451401937831
96.7164240112931
96.8279816781205
96.933676848294
96.8845859471261
96.7759156943076
96.6544721690621
96.5651881044176
96.5680656727647
96.5747281262253
96.5366874597017
96.5636592118472
96.6715293410973
96.6941477798338
96.611104459992
96.6003760794852
96.5912759130311
96.5352143680322
96.5320241894308
96.5652220738175
96.5898527182898
96.6052541542033
96.5846248439993
96.5117291810644
96.4490164168935
96.5135245758113
96.5631418178455
96.5156912227091
96.4449420334949
96.5139794594713
96.5826718691526
96.5793451049717
96.5095126152026
96.4891213941757
96.4990356726837
96.5219829772414
96.5346028116088
96.5441540359999
96.5297510610479
96.5333492961154
96.4751987938486
96.4345858772394
96.4655624081993
96.5096487512504
96.533915291165
96.5414839244041
96.5042989232738
96.5151753728073
96.5465377047421
96.5805150401242
96.5744090747453
96.5271292110332
96.4532992720177
96.4410329352833
96.4217639319834
96.4242716540325
96.3619787701969
96.3068108327062
96.2824084155323
96.267906670486
96.2249673147451
96.1905249985953
96.1630262077415
96.1347655573786
96.083865518109
96.0061247301296
95.9330541877896
95.8439971821809
95.7681537342652
95.7099443349679
95.5916679681982
95.473332231914
95.3505610226575
95.2056004871078
95.1176349994412
95.1186949967175
94.9941611777143
94.8966155390454
94.7800206047293
94.6426265151038
94.5501745095314
94.4808545861093
94.4200094992117
94.3504611726953
94.1832564436726
94.0335173110686
93.9485030187208
93.8977756567969
93.7915911407173
93.6621569334002
93.514420782135
93.3750456564221
93.2325842931853
93.0688741720689
92.8629336118777
92.8408446962975
92.8052263489218
92.670811517154
92.4469791262997
92.2112131608618
91.9528566165209
91.7243231235522
91.4790490620181
91.2681446246755
91.1872322704012
91.0889852586328
90.876260599769
90.6231691395891
90.3559173575851
90.0931387254688
89.846562833413
89.62963766896
89.3138407581676
89.1338570816485
89.0028666029892
88.7565821818067
88.5326169962904
88.2056587884701
87.8254887140452
87.4191334795264
87.0111804539086
86.723456210276
86.6281361663917
86.3563415812747
85.9308241843705
85.47186448098
85.0792894614139
84.8455699287379
84.5110251516486
84.1504381335334
83.872269236401
83.5381649396653
83.0778149970405
82.6656552870451
82.3230423246163
81.9405719456351
81.4950463349624
80.9892396531704
80.7651726842582
80.8768472666857
80.6018957405772
80.1941527776234
79.9493588858031
79.731347335805
79.3370609765292
78.9141896836494
78.5393233176861
78.2723462176781
78.2685996338733
78.1592578391811
77.8181516506381
77.4589065234786
77.1953287400373
76.9988625697364
76.8042243542826
76.6395148493677
76.3521504614033
76.0462773439584
75.922270818913
75.793101631937
75.5017196457681
75.1995350703078
74.9103821378292
74.6733072494047
74.4048313894474
74.1607460954969
73.9519028113848
73.7691093679676
73.5760577070227
73.3944895744693
73.2281282708694
73.0984045624484
72.943683979616
72.8107245399224
72.7277361851833
72.691602277303
72.6089068524252
72.5371350260853
72.3871239255579
72.3425111711214
72.6819730552706
72.7965569636489
72.6410837285633
72.7022496078458
72.9084987113088
72.9433532031543
72.9540884827361
72.7281177502637
72.5079630265459
73.4298478458764
74.159903489811
74.3404151470622
74.4893554756815
74.6118171260639
74.8684332359291
75.0194196781644
75.204223982306
75.5044174180458
75.8068461728729
76.6558823804967
77.5414183617141
77.711497014012
77.8249677140699
78.3587599389569
78.7310654336724
78.9369591950341
79.2292593980214
79.5870097313918
79.8126330733775
80.3336776968715
80.8654936953289
81.0832120891088
81.3709679358373
81.5402773124988
81.6957234357795
81.7530364740421
81.8325564563616
82.6549018915928
83.3883024267922
83.4781604765738
83.460635717783
83.5760835921511
83.9239766806412
84.3606274037359
84.5346144510981
84.559759083694
84.8142547506402
85.1344494205011
85.3379912626681
85.4075213292567
85.4437054475594
85.4614232618619
85.3928552338084
85.2909565124774
85.1771562321539
85.0918906629224
85.0411404105679
84.7428019542613
84.3443113402024
84.0074889889298
83.8270707519537
83.5548362204276
83.1388882356484
82.8025326685105
82.858603490721
82.7550504364728
82.4519561142786
82.1208519034497
81.8572239088729
81.7207974512231
81.5763071341979
81.3977639136815
81.1778666381798
80.8769772122142
80.6566508956509
80.6707446468923
80.4480056501853
80.0417093264888
79.7184585972323
79.4493124633984
79.0787581936624
78.7185592577011
78.3685124782809
77.9831867023822
77.7974273358841
77.6551532816107
77.3612429080262
77.0308267835888
76.7383289654234
76.5226752717217
76.3204183296646
76.1509298959767
76.0471603676017
75.8911877008266
75.728207116951
75.7171954822639
75.6873830535971
75.7422610574882
75.7853523256068
75.6888334529044
75.5951208457454
75.6803524720567
75.8067831319579
75.8413610236168
75.8822108551347
75.9429256477425
76.0071251982995
76.0838935742327
76.2822252150312
76.5088818393249
76.6460311022147
76.8060836585494
76.9831567043081
77.1474738221214
77.3963385645882
77.7100435183961
77.9581470314013
78.1441956480595
78.326711581949
78.53347522922
78.7415224148728
78.9575625862888
79.1417494185004
79.3155157070829
79.5094663552471
79.6645070794444
79.818813293338
80.0459933851287
80.2612281877323
80.4174023229279
80.5238146413691
80.6294389993968
80.7409207716965
80.8462092764852
80.9429057026798
81.0417408778502
81.1291126747454
81.1978276035516
81.2858081847239
81.3679279054844
81.4334049079583
81.5061100857514
81.5919197808684
81.6680436289778
81.7396951650261
81.8421133633089
81.9186574741602
81.9843671695003
82.0478613531185
82.1010066614667
82.1798068337014
82.2741925790715
82.3278157870525
82.3624556374197
82.4046071664423
82.4535851496765
82.479941406074
82.4834596966316
82.4919792569754
82.4948803136748
82.471283668538
82.4410330622456
82.4142045268209
82.3753730364223
82.3349737537223
82.2915636616343
82.2506219693197
82.196681243246
82.1359556869167
82.1144806082766
82.1029909265195
82.0773072004157
82.0491431750089
82.0312882452361
82.0153196130368
81.9876396993395
81.9688783224622
81.9653226228479
81.9570526415534
81.9491059021656
81.9317978618352
81.9332843169391
81.9334221236325
81.9584594812901
82.0075613997067
82.05699685432
82.1002797804599
82.1525339911264
82.2225401983076
82.3014593588307
82.3737409635035
82.4673028466472
82.5803232674249
82.6785554815771
82.7645254412824
82.8589194234335
82.9671460479084
83.0860635824016
83.176132077605
83.2498366777001
83.3472321860621
83.4468080666829
83.5454080605113
83.6551506226943
83.7597437368624
83.8365983133268
83.8993470174655
83.965918678283
84.0012747135445
83.9942974633947
83.961713756597
83.9320397800581
83.893617516639
83.843586671375
83.7909081895064
83.7027616483655
83.6050661696123
83.5341232383905
83.4748899852978
83.4143418435517
83.3389186642346
83.2181953165336
83.086636044888
82.9974819096685
82.9058086167498
82.8075469077515
82.7137472004097
82.6062766414989
82.5038149255068
82.4145685251334
82.2823191906232
82.1246649752616
81.9920954640387
81.8588472644109
81.6883205245357
81.4847817537894
81.2717242422443
81.0703949037713
80.8723887723797
80.659350357608
80.460495860776
80.2865785236595
80.1440615017092
80.0278329111749
79.8978311923061
79.7913163486708
79.7017798992561
79.6071665412668
79.5006085751849
79.3741941656813
79.2220000444308
79.0752961357052
78.9265744205127
78.7624811350646
78.5747736539353
78.3673732950649
78.134292720645
77.9174559124179
77.6773201261465
77.4274164449271
77.186755837929
76.975420625916
76.7699916592048
76.5578822641282
76.3376822503246
76.1549889941823
75.9716774228998
75.8006559194987
75.6471798399989
75.4801685997222
75.3046455882161
75.1479541526275
75.0253967208035
74.9340593262414
74.8199497150517
74.6716536721837
74.5340218355511
74.4310219610342
74.3172498148842
74.1893053030986
74.0731142690937
73.9767461021397
73.8759861557247
73.7932613960082
73.7301785340092
73.6592707269304
73.5946016452337
73.5908975950141
73.6306200340049
73.6844164121909
73.7458602739311
73.8379813713537
73.9498458794559
74.1060847797379
74.2492153256719
74.3976878348224
74.578352323328
74.7645916717999
74.9907263473619
75.2244706866388
75.4498924696885
75.7330154865469
76.0311949759472
76.3029479007539
76.5726360159041
76.8527443593336
77.115589959548
77.4099174496433
77.6877330841452
77.9294980127618
78.1687787482308
78.4242002992413
78.6671352104151
78.9088066355356
79.1207450885605
79.3294604197757
79.5546849960298
79.765649633164
79.9394757053929
80.0993039017601
80.248125908158
80.4197571303413
80.6413631174593
80.8503288110971
81.0381701363314
81.2255619959355
81.4167244382449
81.612561384782
81.7842938479059
81.9634915764473
82.1325168717873
82.2751312461972
82.4157276373064
82.5776551282669
82.7645055456621
82.9264745355983
83.0188391229281
83.1250925876791
83.2601012300827
83.4067565801265
83.5584112118316
83.7120071063328
83.8461602612561
83.977755018472
84.1005262734248
84.1698749407263
84.2130365014034
84.3000990195657
84.3983724348364
84.4957300678132
84.5642395936663
84.6170234250938
84.6655837899517
84.7266657226243
84.7974935648408
84.8447889609892
84.8837651188031
84.9761678710446
85.0485822119284
85.104748340146
85.1784332443092
85.2463933778504
85.2692488650008
85.2794930340389
85.2796928015782
85.2882923228277
85.3170637990539
85.346562974702
85.3709631633793
85.3653238616395
85.3577211545148
85.3856629810865
85.3762756998103
85.3562669478241
85.3476515881113
85.3484664722386
85.3663428304006
85.3736698611538
85.3774536361469
85.3717692218351
85.3408528107824
85.333196928455
85.2837380460576
85.2331735036622
85.1939589089027
85.1574419548126
85.1024149216326
85.0234251017367
84.9403107186488
84.8990154640645
84.8077067614817
84.6855599277122
84.5708870445412
84.4943053245693
84.3919200903636
84.2546791860025
84.1467696464307
84.0442820952567
83.9626571018263
83.8921325272042
83.7766480806447
83.6546235628596
83.5365513146678
83.3920623759333
83.2663162915941
83.1920978331867
83.0893403385884
82.9576932151278
82.8090063203076
82.6750921837105
82.5754563460687
82.5298944259249
82.4188826783583
82.3024181011554
82.2499622694969
82.2039276085547
82.061955899434
81.8978997978169
81.8069238421701
81.7669657549889
81.7214020828413
81.6484051837152
81.5428300366089
81.4912143458718
81.4586562783548
81.4354483253035
81.3857002151382
81.3387877110417
81.3246202796395
81.3179157910141
81.2666744679713
81.2147814677108
81.1567272043391
81.1260558527366
81.1175496930131
81.0421581464546
80.9889505293233
80.9752778224276
80.8883140519494
80.8175569795737
80.8193870040215
80.7739074311274
80.6796965874844
80.645917196708
80.5961861136187
80.5250483710434
80.4717815600809
80.424779268859
80.3721774729705
80.2949067197112
80.2170160153483
80.1767386564991
80.0513925017952
79.9290019603154
79.8246099821644
79.7405803583575
79.6421155723972
79.5187714151067
79.4128611201699
79.3532279155201
79.2869921767315
79.1868427550775
79.0430872938835
78.9408608372076
78.8103792580018
78.6887153533043
78.5955729776756
78.457999193443
78.26075504883
78.1401211298381
78.0568010487241
77.977520394283
77.9000116780563
77.8580010795078
77.7533207598979
77.692843198611
77.6380633561484
77.5168892326651
77.3865601969671
77.3315934420828
77.2437553400162
77.1702822321902
77.0403362932944
76.8829496985483
76.7537668302256
76.6596321710329
76.4712209263495
76.6222992903485
76.5503613742509
76.3113448950436
76.1246961657402
75.949972578401
75.8746613318514
75.8092491564398
75.7521135868913
75.6743552429903
75.4807644766071
