1798
3999.43349933624
650.420452594757
1
128
4
94.051013444899
93.9885125397375
93.9348663495123
94.0160775355337
94.0863255051818
94.147669955846
94.190654513792
94.1738449869884
94.0710405479295
94.0796110967291
94.1152170875312
94.1899525976999
94.1600920340984
94.1468502451483
94.1462549944137
94.1303719683059
94.1146615154722
94.2075593120052
94.2042638753141
94.1202013458746
94.0255112373889
94.0730268731743
94.2123437038168
94.2598483600379
94.1487691686223
94.1650055504978
94.1586576133438
94.1651954741567
94.1289110056971
94.1120504392856
94.1395123688836
94.1868610490676
94.2087908883538
94.2227829589387
94.1653544406593
94.1459244764982
94.099515475525
94.1685770550196
94.162142172703
94.1965074776066
94.1716997410517
94.1660001598734
94.2285292025212
94.1408744335594
94.0754932788273
94.2520051358772
94.3293034179041
94.2495609289301
94.1439696187741
94.1761554750686
94.1409435460805
94.1499166546172
94.0924760048618
94.1439579419882
94.2527536153146
94.3423495789141
94.3232963282937
94.3019568469783
94.2448676332799
94.2433224968904
94.2698877595253
94.2899984654909
94.2650904893955
94.3307171580702
94.2429067416534
94.1952817796019
94.2210831871875
94.2747107624518
94.3409827290762
94.3151939475108
94.2290250457738
94.3672537171773
94.4295765242057
94.3667537440443
94.3027857114176
94.329277190287
94.3013356031849
94.2785819455448
94.1591362980274
94.1847165448058
94.4378055316424
94.6577129393926
94.6202736647101
94.5513698681503
94.4220886123995
94.2858226142261
94.2033381133027
94.2201222239237
94.2530007678208
94.4017710123883
94.5111598584507
94.4967493468167
94.3932564618499
94.3391785378911
94.3066203571369
94.4460313520152
94.5041201163931
94.5157576490607
94.5637044542022
94.5261561381742
94.5523658962305
94.5321568537725
94.4439669171989
94.4536284967896
94.4280296799884
94.4235667142573
94.4403711608882
94.4980154997462
94.5300261371853
94.5755832671987
94.5209849350081
94.592943791017
94.607034201324
94.5750813185632
94.5117745030343
94.5418787726871
94.5991529150096
94.6060613885433
94.5374096665784
94.4939712558513
94.5720540467943
94.6371956264089
94.5967627954367
94.5459907538137
94.5314289477887
94.5485728694262
94.5003958493335
94.5657698111627
94.5888192846675
94.5829529839147
94.6555374888958
94.737345971973
94.6647664159607
94.4694530490636
94.4524810220611
94.6098829975846
94.5562067866274
94.4339126402657
94.5039898649266
94.782455343146
94.8418065668441
94.6381383322613
94.4279368716437
94.503511276814
94.6979071084835
94.8592694694227
94.8907686224136
94.8433587385596
94.6941098802618
94.6913318823407
94.7028852556292
94.6644868438884
94.604763390411
94.5562495262729
94.4470188269174
94.5136999744536
94.6102431987644
94.7684007914312
94.8214452418607
94.8719133779512
94.7465670119922
94.6858346746321
94.6608670593493
94.6798008586371
94.73290827019
94.7941700411311
94.7952184264695
94.7102011395497
94.6093171640938
94.6861216401167
94.6171607406389
94.5396275074578
94.5988276034507
94.6814250475197
94.5687595754708
94.5774693908981
94.5950494994011
94.4927291378609
94.3649755050414
94.4326697930397
94.4740844415345
94.4665153655037
94.3716229555633
94.3235950054758
94.2167772235534
94.1900047905681
94.1304594157459
93.9811526075837
93.8005552242797
93.8523538803264
93.9228902836613
93.8986772712721
93.7326664069274
93.6996115891966
93.636152372562
93.5711887774028
93.4799043271351
93.4525531975449
93.3096196747107
93.1688343380213
93.0199835269797
93.0407016549824
93.0070488067696
92.9429496939424
92.7651700679774
92.6513490634658
92.5605563958208
92.502951784516
92.4986844559286
92.4575050450012
92.2697864968373
92.235624271961
92.1707353150443
92.1051097073679
91.8848588129349
91.8138120825448
91.8488938029791
91.7172128720658
91.5059213024768
91.4809233889011
91.4003263605042
91.2879958129039
91.1405185555016
91.0814270055317
91.0770124620358
91.0228712422388
90.88356703644
90.8377548006358
90.7097392560862
90.6143465369541
90.5404670207753
90.3875123338855
90.2547160386201
90.2030646597852
90.0749468207335
90.0777346815069
89.9369375660117
89.808813887723
89.7227470597678
89.7155547303259
89.522774689004
89.3545345966482
89.2878159245363
89.1743032325288
88.9962879991835
88.8458488487322
88.8573468069987
89.0106686351352
88.795111416021
88.564134029747
88.5047460389571
88.4708787862252
88.355242493955
88.2489505840163
88.136373251426
88.1153496272298
87.9501147199142
87.7841580664439
87.6589767215871
87.652953469079
87.5671015331587
87.4078561777915
87.1800423562683
87.0664848680355
87.0068059438949
87.0882567513696
87.0492234614364
86.9482949279199
86.7740242902885
86.6360044847256
86.460456840002
86.3331594912548
86.302106119534
86.299902400588
86.1140687530727
86.0426288164117
86.0856462603328
86.0051427400069
85.8450773584123
85.7475097567347
85.5995486976031
85.5644935173522
85.4806207684316
85.3922624215292
85.2610867461561
85.1134880899705
84.9246859614259
84.8997046622558
84.8013128246777
84.7607960872182
84.6433046146975
84.565775222613
84.5096541836518
84.5089434586537
84.4576663060177
84.3849032252172
84.1318991592242
84.0181471668275
84.0540503254767
84.0900603102193
83.9827828551139
83.778449877822
83.6130441128345
83.6502904416657
83.5362415124702
83.5080655230308
83.4682180219407
83.3637995012487
83.2274138969702
83.159644081282
83.100406479807
83.1695536287852
83.078320503842
82.9537828872195
82.8936984468494
82.813266768292
82.5783713980871
82.4848286296865
82.474071072388
82.4979491584203
82.3799315458809
82.3043738573587
82.2411186834936
82.2689853439311
82.2043167407351
82.0605435408738
81.9509147388644
81.9988186241659
81.9396376496212
81.8141015943324
81.7417699467358
81.8160262209756
81.7824392889584
81.7628028688828
81.6334544666438
81.5348461490677
81.4244540935495
81.4148353315378
81.390083553107
81.4619231046383
81.4461176240162
81.340762151713
81.1446982128888
81.1095663412754
81.1439011763111
81.0845311708859
80.9911971161611
81.0444865284329
81.0398241532429
81.0035781329365
81.0295810515612
81.0580738715209
80.9127376278716
80.8681532215244
80.8426153625754
80.825624114691
80.7499363265302
80.7659235788224
80.7211677227082
80.7308021303902
80.7882288838053
80.8188299938753
80.7783952097292
80.8350746253319
80.7752547124387
80.6952997518965
80.6459383598347
80.6400412488422
80.6077032703126
80.6625645093719
80.7014052845658
80.7107878079015
80.6137081823572
80.4974410147037
80.5036508670928
80.5994885443689
80.4899542887113
80.5221277543766
80.5461174333199
80.4693084866366
80.3906377285019
80.4599688250779
80.3917919224551
80.2561131767172
80.2765499347412
80.3910616776156
80.3397881357128
80.3562882180499
80.3604882995295
80.3703692050018
80.3222661442912
80.3069674005854
80.3074957569915
80.3820039275217
80.4043066158373
80.4194580381359
80.2959455947662
80.293283384014
80.4125060429531
80.4819404313899
80.4362856583476
80.4657134658566
80.4127501576218
80.3830999362967
80.4048356899249
80.4516000528205
80.4674627600335
80.4370680959133
80.4158714887979
80.5323274009499
80.5397919064854
80.5755513035952
80.5670666272157
80.6097189441827
80.6402674509056
80.6461457537564
80.635297860347
80.7261919015248
80.6859447511364
80.6198663341905
80.6843928748209
80.735237781877
80.6989674742125
80.7840070164169
80.8267114472474
80.888592962268
80.8843142526509
80.9307348151863
80.9626649886876
80.9763506846274
80.939449396723
81.0411660035236
81.1277913440734
81.1583801076863
81.169121402447
81.259390660641
81.2187741036956
81.2048801191914
81.2648856673441
81.4153788687755
81.4880558598363
81.4847429551063
81.5285133931216
81.61231521893
81.5792726487544
81.6584788587162
81.7833042033121
81.9319627095213
81.9604540122319
82.0088208410153
82.0504006536548
82.1406294032288
82.1412505150327
82.105815865645
82.187268013146
82.3371303575083
82.3807109720179
82.4437152741892
82.4377176556162
82.4915868162164
82.5254923502929
82.613110840889
82.6698357446294
82.6415818695125
82.6632713150047
82.8398958449919
82.8667986083026
82.8870311331966
82.8793468737464
82.9240513505982
83.0358800634452
83.2122318557814
83.3087688586633
83.2934373501257
83.3216450056738
83.4258710302798
83.4369491148014
83.4471385110673
83.4502993285274
83.4772361872244
83.4963475412542
83.5287220594239
83.6113188418551
83.6989975097643
83.6891429364191
83.7366570087264
83.7878763442719
83.8454918703676
83.8748436752444
83.9035679639982
83.9508632520064
84.0062072881194
84.042947363643
84.1541665810463
84.1928236441358
84.1579776947986
84.1276070134971
84.1291281475888
84.1264595149239
84.173428322528
84.2188393916695
84.3451745311046
84.4082654906956
84.4450162194044
84.4245756471284
84.4565869721533
84.5414988942927
84.6285469518557
84.6084064401123
84.6432672498019
84.7346440458884
84.8118463743121
84.8439238732478
84.9420911779167
85.0051134374335
85.0344353639746
85.0449389829779
85.1228707912855
85.16379809681
85.1489131284234
85.115358807836
85.237442412613
85.2972376903828
85.3359837283876
85.3752203882982
85.4165598231531
85.4469601581505
85.4767364059051
85.6140857595219
85.6585064384526
85.6294643151361
85.6661863418017
85.6958941500499
85.7044522995436
85.7092383428952
85.7579146939902
85.6901347820745
85.693488513341
85.7727409186173
85.7994668308831
85.7621543701675
85.7143669437244
85.665327873699
85.6637099140666
85.623263565616
85.5819148094173
85.5648323590762
85.5744130742516
85.4757895773672
85.3510440985323
85.325653189859
85.3117480409296
85.2074895577813
85.1234512060803
85.056809070276
85.0023967052332
84.9768701908512
84.9614994815141
84.9233131198861
84.9120861377315
84.8132928188679
84.7274487606856
84.7484916070197
84.8062997115892
84.7634484302027
84.7144251364278
84.6984397792039
84.6424547048996
84.4817672751907
84.397071029377
84.3223867975088
84.2823232860746
84.2913528017092
84.2219134887747
84.1467114807082
84.1465968537761
84.1710510021938
84.2188797092696
84.2748678136805
84.3865720876076
84.4128526146957
84.4316279621157
84.5399956659388
84.6735175261749
84.7149486677508
84.8113765937616
84.8667537545364
84.9564422695482
85.0653971850574
85.1687327406132
85.1906079354922
85.2397963598438
85.2951252930436
85.3663153027637
85.4355675086056
85.5112421766351
85.5964373691623
85.6121785449962
85.5927609414162
85.6057544383154
85.6387037376335
85.6614367344975
85.6349810937514
85.7169967457177
85.7872718277573
85.7447557104917
85.7251754429414
85.7944501025193
85.8253220289848
85.8474307676281
85.9468005778045
86.1035152082362
86.0955903215337
86.0597406319841
86.0710796860987
86.1030630993785
86.1798058214013
86.2941598574541
86.3564372635264
86.4308281514295
86.5015083777403
86.6093217756357
86.7389008103865
86.8347869828397
86.8957361693911
86.9958182144758
87.0447891215186
87.1056935850319
87.1399682570909
87.1838968877822
87.2432391543147
87.3183778067118
87.3484858293909
87.3698986482505
87.4369392590087
87.4931036248899
87.5633813812569
87.6149788248184
87.633771359436
87.7263144046049
87.7250032504814
87.7035563764673
87.7734026225586
87.8140174698299
87.8310452314675
87.9209914855123
87.9682402003287
87.9572974776231
87.9828571432457
88.081738679324
88.1219704056205
88.1104600296426
88.1366392551467
88.1653276311297
88.1784105986681
88.2639954955233
88.3162863228969
88.3236923787317
88.3218878687276
88.3139491048322
88.3325906400897
88.3809525833289
88.4266432271431
88.5086773443581
88.5455909202908
88.5681679912908
88.546615605972
88.5590129115392
88.5807307283261
88.5837806338033
88.5950614741619
88.6525151176927
88.7191667353653
88.7385595406321
88.7088366018187
88.7493847707643
88.790717777803
88.786055028914
88.7983366066392
88.8140336127624
88.8520078335096
88.8408045966628
88.8608389238447
88.9404918664146
88.9588065170688
88.982876911935
89.0170845374576
89.0354594709254
89.0573299890527
89.0983762613513
89.1486142528187
89.1501282304614
89.0871219748049
89.0854483588767
89.1544329610742
89.2199356717592
89.2553893267564
89.2301425898051
89.2462980968895
89.3068168123439
89.3113399913171
89.3074952141982
89.3222133867832
89.33490210359
89.350157617541
89.3838965931023
89.394095688883
89.3977993001633
89.4414365558988
89.5527617590157
89.5799145348721
89.5479239422355
89.5157042006476
89.534814780205
89.5592870794256
89.5866115390518
89.6012273768837
89.5904838929262
89.5714224273288
89.5820705395993
89.609227139323
89.6640805113332
89.6789820389561
89.6571220509098
89.6892660185286
89.7238226355703
89.7318533572217
89.7718282804243
89.7978639697214
89.8051822160846
89.8373903630317
89.8469543388599
89.8521540902977
89.9428635411363
89.9967477186617
90.004850434572
90.0466057956781
90.1433241146675
90.1791425973915
90.1936163334044
90.248785355729
90.2522925547446
90.1929409115982
90.166901588292
90.2617887216729
90.3564178654848
90.3955289686825
90.4420474407351
90.4822367241697
90.4832567692968
90.5511793335096
90.6002573598773
90.5415651159971
90.5744975131401
90.7077330343004
90.7654030585162
90.735907754501
90.7222575984132
90.7382850411038
90.7644037100529
90.828703238923
90.7989267282839
90.7736153325368
90.9195800535252
91.0051429509757
91.0319986547884
91.0321389568637
91.0297288322353
90.9975307193974
91.0231724690239
90.9943136487947
91.0084855868714
91.0679066076531
91.193294397031
91.2297284435982
91.191393735127
91.1901295950841
91.1974970480274
91.1521984016509
91.0823715705418
91.2085060447008
91.3291626890381
91.3517586342647
91.3594614106431
91.2564324709983
91.3047055815622
91.4381909408025
91.4789069962865
91.4600878330245
91.4131455773044
91.4333752314703
91.4561729640226
91.4634583236681
91.4763697257512
91.4609339568786
91.5353484266959
91.5316507498722
91.4924432853495
91.5651595670581
91.574052732091
91.5284598098929
91.4868706400864
91.5194451316019
91.5331980954807
91.534403489167
91.5380327285046
91.5612806352596
91.6047829353205
91.6304234748688
91.6467936791763
91.7093784070494
91.7344785824368
91.6932167188754
91.6521171040411
91.6280333714332
91.7247856395609
91.8224444336684
91.7708196603136
91.7165878474317
91.7573233330193
91.7896427050016
91.8011344645009
91.7598317387326
91.8111193569208
91.8481044291411
91.7174593642783
91.7094957360917
91.7576580660795
91.8224818613439
91.8846235761186
91.8575679939749
91.8374410142153
91.8346063629966
91.8353395726676
91.8592514689549
91.9266798777456
92.0442293846854
92.038125378421
91.9993677710671
92.0293421908313
92.0409972185864
91.9934046757791
91.9837332963875
92.0210275967519
92.1450008594861
92.1184937636877
92.0641400455708
92.0426044122226
92.0262015735265
92.1026182836113
92.0945824369385
92.0804674397657
92.045594805729
92.0217969167181
92.0535448303305
92.0706864180327
92.0705002355156
92.0677882550235
92.1475343912886
92.1807759826949
92.0676310369418
92.0411452018954
92.1088663606135
92.0954673132109
92.1102305370877
92.1364327823356
92.072958887778
92.05682816253
92.0454967562893
92.0386275100952
92.066802713304
91.9842747312585
91.9566846411372
92.0247628133366
92.0922659445855
92.1592900901163
92.1790296049733
92.1891301064533
92.2694036685724
92.2881622156939
92.2722796282751
92.3503838316168
92.4346986110239
92.4071192735805
92.3481773966752
92.3048004101394
92.2601193479838
92.1760153767306
92.0788812326855
92.0797931953786
92.1332543148981
92.0787339179216
92.0968806943847
92.2126496600786
92.2439523108905
92.2316866912172
92.2090946650626
92.2062766803715
92.0905495399591
91.9139582949654
91.9710427134489
92.0357863579881
92.0769926899662
92.1141396606992
92.1572334584467
92.2377926588909
92.2588285843659
92.2708339573447
92.2747094083347
92.1908484509499
92.1621238593916
92.2640560435627
92.4005221790588
92.3474592409064
92.2779491254203
92.2998562749289
92.3010057616616
92.3726408919232
92.4020117069327
92.4098598870637
92.4734449353798
92.4725263724112
92.5375258184906
92.5753670254936
92.5877407025308
92.8366949987783
93.066482790377
93.091197494052
92.9936817837397
92.9100650675987
92.8678803112392
92.9245082506729
93.199658599113
93.4489057044556
93.4281408227876
93.406145530894
93.4490963817914
93.3742534666466
93.5160998800935
93.6438324775024
93.5890620495895
93.5144136155169
93.6236746454791
93.9107363780574
93.9968773958113
93.8811329821457
93.9640087759226
94.0616674325577
93.8620996909571
93.8870294933184
94.111981168771
94.29463490963
94.3992461394891
94.2995850351102
94.2335975688032
94.1790362224218
94.2390826243835
94.2090680013698
94.4361003075371
94.6678266838595
94.7310204298116
94.8128445257987
94.9152372381308
94.8176869369769
94.6921991130705
94.7788540220716
95.0692994793319
95.2153725729101
95.2190691714642
95.0677215021865
95.2036029597621
95.4853026867191
95.4377199016709
95.4043555115081
95.5739122494754
95.7382618418212
95.9975378895027
96.0583287719482
96.087743888791
96.1326988840521
96.308017435231
96.0990071144232
96.1911178281699
96.321369215877
96.3938803464333
96.6242282205812
96.9107508634048
97.1306025727449
97.2415089391978
96.9292194188513
96.7247829674943
96.5494083551486
96.2378593811729
96.0014013661534
95.969530680472
95.8504169325535
95.6896338126594
95.329294122768
95.2270781547489
95.3428216024717
95.1252373510597
95.0153417020811
94.9333188026676
94.6669553885315
94.654690206295
94.7336367792564
94.6669811460979
94.2879518295328
94.0698691667329
94.1028521010639
94.0628575336466
93.989254322731
94.1573282356935
94.2910462284227
94.2705457646427
94.2282115747096
94.1258155743198
93.9803097277851
94.1108281440907
94.3530805104536
94.4214270801157
94.4263763233552
94.2788164184931
94.2131033981598
94.3747784547497
94.347975027908
94.3341416297619
94.2820410842791
94.2136953083963
94.3447708523937
94.4995680672332
94.496197893801
94.606890953636
94.7332770583831
94.8695088329995
94.8490951291169
94.7678110938968
94.7341303487798
94.8113399516835
94.7079424465985
94.7434207044303
95.0954921767161
95.1427842087844
95.2356103458077
95.4601882730375
95.4872410829852
95.6782506680554
95.9891541189072
96.081337106422
96.2163252869151
96.4027288419817
96.721080763655
96.8463120348453
96.6338728222262
96.7473605247526
97.1258752224623
97.1406202100731
96.8932707529342
96.9810879767586
97.0332671386662
97.3130843575395
97.4232880031174
97.336477117659
96.9708158739067
96.8722928511484
97.0846385653153
97.1125616120623
96.9430720455618
96.7857051048069
96.6232660126857
96.7779978762227
96.6862512939881
96.6198828111115
96.3611769223902
96.2394457095284
96.4169027210065
96.4186867760943
96.3041668821362
96.2426024505399
96.2353638142343
96.464284626226
96.7343673787669
96.8607265487829
96.7095306349765
96.8768743461443
96.9938390910883
97.2542097992422
97.0800985648458
96.7689465176772
96.7817536185097
96.8732906788629
96.6504687899942
96.509393898676
96.5402886528379
96.632947920881
96.3648196672935
96.2110002376463
96.1247660354777
96.0588942515037
95.8793188901169
95.6712824746087
95.5558875401294
95.5574830197327
95.491394476662
95.3747526821561
95.3236360930342
95.2946316635726
95.192144504201
95.2448126218673
95.2567945089748
95.1598144315649
95.047218157147
94.9962590532217
94.9544389701447
94.9741342545704
94.8839406610798
94.8721831596082
94.8848949264507
94.8494812983744
94.7783987008889
94.7978631358516
94.771006583958
94.6597392187666
94.6040841470128
94.6259387264144
94.6793419067677
94.7246883708845
94.6535415870536
94.5995517242988
94.6188137896775
94.6286756114535
94.6302489363995
94.6721536977941
94.6516368674825
94.6314902387969
94.5771566639125
94.5621056673767
94.5516713293462
94.6023772641759
94.5865214853453
94.5462137291626
94.5152372965883
94.5102911698565
94.4981178320442
94.5461436466063
94.6108088068852
94.6329273091864
94.5925531098394
94.5410255993971
94.4817974553653
94.5735846009301
94.5288569821144
94.4915784366302
94.5372684320643
94.5734250796427
94.5326325396485
94.4703103876767
94.4607147624035
94.5107851594981
94.5550642332543
94.5958038394678
94.557895280422
94.5557985454015
94.5893778988495
94.5889231442202
94.5643982822567
94.5093116958283
94.518719455459
94.5898310322147
94.5876810801745
94.5969213529606
94.5967472288265
94.6159657559739
94.6353701954286
94.6216946752493
94.5594100758709
94.5216477466877
94.5165393666208
94.5213794767136
94.5058831016265
94.4801511323093
94.4646294137889
94.5162756103947
94.5127347463775
94.46166147709
94.4282051208777
94.4268943756705
94.3935451846377
94.333095399018
94.2677562706222
94.1890266471451
94.1360168896224
94.1494270756784
94.0992291898507
93.9869284202379
93.8703715640017
93.8452751277464
93.7803050223046
93.7879093131845
93.6902335582234
93.54543253233
93.4772640711198
93.4339752031079
93.3268082093921
93.3023140976443
93.189099971528
93.0361870707355
92.9125418826341
92.8442789364611
92.7630729171119
92.6750926477921
92.5598221730113
92.4431597279775
92.3432580381139
92.2845701300121
92.0425472127063
91.8966410410171
91.8280774190897
91.7640438971366
91.6223678521162
91.4184000279156
91.1647995601488
90.9937256409848
90.7411678269389
90.4246543409567
90.1804974678424
90.0088947048507
89.8098990885985
89.5571553474033
89.2018404537339
88.8308939489808
88.4984326238612
88.2647138422495
87.8894373090549
87.5248062370344
87.1937125154241
86.82448309143
86.5183021149956
86.1406144070535
85.662868731052
85.2446042075859
84.8203565462752
84.2625077113055
83.932570017477
83.6640539941681
83.2657334397338
82.7894583681118
82.2511403230291
81.8588971410154
81.4417677168625
80.9713837387515
80.5810277622752
80.2377526591544
79.79541564786
79.3204944791531
78.8792025536327
78.5415447258865
78.1805500278536
77.5970740553254
77.0328153103503
77.1424451430764
76.9587149437882
76.5726846680621
76.2805823264327
76.0880027125932
75.7960371171739
75.4910817560423
75.074171343089
74.6130884119634
74.5589488216843
74.6119695658283
74.4050447809751
74.1081917889542
73.8497974954339
73.5756530309354
73.3519939113428
73.3327449647979
73.1563638097529
72.822071690501
72.6709905868142
72.6280830279592
72.4056111201144
72.1354873801544
71.8637716322704
71.6636885562823
71.448936849515
71.2585113258329
71.0945902108003
70.9244036015449
70.6948234990786
70.5043417030237
70.3394485086658
70.2200758438463
70.0944984316698
69.9598428343013
69.7962808469011
69.6649444246762
69.5500119311933
69.4608269278083
69.214743164558
68.9785263744152
69.1391738549761
69.1982553331463
68.9296056592275
68.8368932641983
68.9010792713784
68.8347317200645
68.7630124449288
68.4645498293979
67.9120546749704
68.5579932067718
69.2385475887524
69.4704416185684
69.6106153137003
69.6265937877519
69.8180604782472
69.9789856090416
70.0775384013718
70.2453958001917
70.3334015542735
71.1909180478248
72.2245135834431
72.429114949514
72.4977355397526
73.0462671047545
73.3955535363876
73.5080763087794
73.7352510118148
74.0858095539707
74.2226781474002
74.7662382789945
75.3055998645489
75.5279614765559
75.9356127352559
76.1496225738435
76.3206502855932
76.3285848985719
76.1426054808249
77.1295414371704
78.2096048670049
78.4195524371774
78.3699157155597
78.3894724576986
78.7337052515783
79.3256193429745
79.5280996984867
79.4892678498302
79.7901889192914
80.2668032306976
80.6270945126599
80.7744506430618
80.8189862401396
80.9123801501768
80.8896624943176
80.7940851021365
80.6385380207967
80.5797709162205
80.7025192824401
80.4800484355681
80.0365923645604
79.6311526915741
79.490301289544
79.2445807165565
78.7639756982213
78.2935748141405
78.4863696356763
78.5720683115831
78.3796020639753
78.0946900632055
77.8667851894796
77.8273345948166
77.7774870307193
77.663971300141
77.5688648683588
77.3165777847139
77.0910812034504
77.2670606881268
77.2273088077834
76.9535197096695
76.6844294595136
76.3981387040457
76.017919739893
75.6565402729603
75.2903498178947
74.7550189503677
74.4333474205697
74.2546676891276
73.8907503051664
73.4380527506068
72.9690558135871
72.5652674940163
72.1532813829186
71.7895483552489
71.5893826641263
71.3554576268028
71.1141941990081
71.0395162800306
70.9385172290202
71.0064579541796
71.1125253075056
71.0286304782193
70.8906993850029
70.9568504301089
71.1147155809528
71.1969154407185
71.2520519974981
71.3079861068747
71.3696086514961
71.4147856934606
71.5991495694905
71.8680039056019
72.0401192970855
72.2490930325929
72.4634130365966
72.5621870121404
72.7852454404402
73.1703777362853
73.4569024405469
73.6296201248741
73.8076417425551
74.0095672806515
74.1942203422922
74.3948198629855
74.5864304738811
74.7776654806456
74.9689669152543
75.0959750391066
75.2422737680952
75.4939391011054
75.7230416401711
75.8950362940849
75.9947788243394
76.0832627969642
76.1643624560108
76.2390853605665
76.3050657822522
76.3585658008808
76.3706040047057
76.3828245067434
76.4543495697215
76.4965768212877
76.5102636189433
76.5754482915096
76.6416520304561
76.6804147990754
76.7566900083117
76.8439469534317
76.9350695399672
77.0354875673715
77.1377475711329
77.2551592559812
77.3771727666671
77.4903319350211
77.5784399014981
77.6755909663155
77.765678248886
77.8681072195975
77.9659724580355
77.9958100131684
78.0132587057019
78.0522652288141
78.067984093532
78.057329857074
78.0399777165455
78.0399803275624
78.0194104697631
77.995156631759
77.9692383564202
77.9077629456309
77.827129825781
77.8017558107163
77.7933747710529
77.760623743417
77.7369882297332
77.7195777254278
77.7134635631526
77.6981517443184
77.6681800429906
77.6295711657103
77.5899043509713
77.5598131655441
77.5397770337669
77.5531929721976
77.5599889905679
77.5910853789078
77.6291906072767
77.6672367937036
77.7064260591931
77.7636559652959
77.8267627679744
77.8958109295537
77.9922417152909
78.1092764063384
78.2015913026324
78.3177779644513
78.4575299057193
78.5887470016121
78.7191036072742
78.8321768559354
78.9440185565357
79.0919974712296
79.2528640559618
79.4031880665718
79.5689266025021
79.7405015088872
79.899016315613
80.034315788266
80.1502635002452
80.2634286089078
80.3549238289052
80.4025546416686
80.4157180987888
80.4240857317483
80.4173468637742
80.3859425530417
80.3353338584016
80.2602352938682
80.1603552118785
80.0531451551655
79.9570240923639
79.8576261170501
79.7335700619301
79.6074771446669
79.4865541446064
79.362059924793
79.2329929284696
79.1057731828433
78.9451657412837
78.7829204719241
78.6380731514045
78.4841128309254
78.311430536075
78.128794868292
77.9488604084156
77.753048473119
77.5512099246616
77.3269787083974
77.054467913223
76.7686773399201
76.5005023482232
76.2523531104402
75.9944492542801
75.7628461408189
75.5638133190432
75.3830145276299
75.2235027111116
75.0937183170518
74.9804185189281
74.8777219334426
74.7245098656518
74.5707243569631
74.4224061164909
74.2347451041353
73.9960576648543
73.7355100762337
73.4540153687265
73.1545244455428
72.8625516760124
72.5908003831797
72.3209074777201
72.0538644313586
71.7688848299037
71.473486004096
71.1763125814298
70.9106441078155
70.6426574290222
70.3767137616021
70.120049453572
69.8624144197871
69.6064353036969
69.3346288382593
69.039399590976
68.7838217278971
68.5482451037477
68.3099015604881
68.0573277273963
67.8065293387154
67.5619855387053
67.34310466572
67.1227242365229
66.9324859100023
66.7766927270087
66.6394795841897
66.4583844455652
66.3167005534743
66.2158883390943
66.1055763150031
65.9732520812242
65.8908282178078
65.8132454695903
65.7390862577724
65.7213933790733
65.735070174945
65.7462524659021
65.7688719164125
65.8086281366103
65.8990120417233
66.0318634430302
66.1880400168346
66.3747100036023
66.6065065246941
66.8362089889633
67.1044349726605
67.408904115429
67.7217365500109
68.0420884852688
68.3614417887673
68.6427957863504
68.9302981241354
69.2432505160496
69.5613054463861
69.8688315643222
70.1396160018497
70.3840212010062
70.6487291015981
70.8929448171759
71.1018985361796
71.2763239568494
71.4183360332182
71.5610535463902
71.7130696057082
71.8883764770799
72.0754901508674
72.2785891474827
72.5121231253342
72.7542127740025
73.0036225981004
73.2566313689092
73.5556646629257
73.8218800175353
74.0671962973427
74.3213387375715
74.5551492220618
74.7888278022192
75.029231528777
75.2768235595864
75.5150444906913
75.7335424679928
75.9513456971049
76.172933739192
76.4027789435759
76.6055539934381
76.7726355529684
76.9417618620564
77.1348467844514
77.3132556777099
77.46590012481
77.5981185554225
77.7065491638861
77.8139885105928
77.9075929729062
77.9703508349226
78.0512723468055
78.1425649779916
78.2260174014301
78.2897853519022
78.3751974366907
78.4795444625684
78.6222223547927
78.7548336343674
78.8411907610211
78.9270236749815
79.0229463160688
79.0676522991793
79.1024818255992
79.1401649226275
79.1667138760492
79.2233775838834
79.2707121222464
79.2787197225762
79.3067522835259
79.3777490101785
79.4187043017915
79.440276584752
79.4718253572262
79.5012994629856
79.5493853676905
79.5598651476827
79.5437779284818
79.5509958264925
79.5397617636196
79.5378939768895
79.5635581501817
79.5610837697146
79.5271683637302
79.4853542145771
79.4753395483253
79.4273231658948
79.383141738241
79.3794333829267
79.3181874232608
79.2233420986881
79.1217144363359
78.9754070904529
78.8647789354078
78.751904317844
78.6589536061207
78.5853295527646
78.490336086873
78.4368809829097
78.4415493898637
78.4188901529364
78.3450580695836
78.2579494121713
78.2014424511454
78.1122669007222
78.0008348334296
77.8927971036936
77.7427898150067
77.607601093133
77.5074091442906
77.4030579592151
77.2901945925553
77.1835239125156
77.1115685258128
77.0472552929253
77.0164707941218
76.9703757830748
76.9178246164041
76.8483613305173
76.7971381089172
76.7207380973467
76.6131888267386
76.5536785270661
76.4692404730735
76.3687802323732
76.3619026408512
76.3495586836118
76.2737327763351
76.2150256471148
76.1758660368248
76.1117639394443
76.0817016381513
76.0274765071321
75.9784326346869
75.9186215876009
75.8482998814043
75.7476535784474
75.6870338945441
75.6821036306895
75.6269558011549
75.5642356082122
75.547615499
75.452325730448
75.3522369403123
75.2796187289551
75.2236398876262
75.1334781345322
75.078140440743
75.0467293997319
74.9522308320746
74.8334780370934
74.7656470240443
74.6930077169551
74.6015524323828
74.4713557623615
74.3633097218813
74.2388929903775
74.1298754753152
74.0017028155347
73.896038954371
73.7882445592693
73.6880504048085
73.5212085675331
73.3353492681955
73.202309402872
73.0733229425906
72.9078665646173
72.7048018467001
72.513933580111
72.383195295197
72.264113759366
72.1870197025192
72.0726049104946
71.9905607537071
71.9463822636826
71.9550174765567
71.8494556170386
71.7175082249347
71.6280135404974
71.5739945681602
71.4663597530213
71.3522796324824
71.1690362659919
71.044295146315
70.9606209246152
70.8073592022387
70.5045919424182
70.6634857201949
70.6952096282344
70.4545691650991
70.3166524642389
70.1995201391941
70.1198739907897
70.0542568885717
69.9328147816651
69.783704083205
69.6181710108458
