1798
3999.43349933624
650.420452594757
1
128
4
91.6222907009195
91.6286254273268
91.6826684610607
91.7080532129999
91.749161833633
91.7154517360352
91.7145205257813
91.745880270114
91.7719736748501
91.7783954854083
91.7602173111945
91.7486384985001
91.7166313066385
91.6363924033362
91.7020365912441
91.7272031595262
91.6554319819287
91.6829052342385
91.7384620771111
91.7729082856517
91.8143084267133
91.7782928842749
91.6858619472917
91.741580945915
91.827129290751
91.7675628758197
91.8124266044018
91.7399122324633
91.7052009359672
91.8482781048877
91.858308724146
91.7622758847675
91.7836224837529
91.8189113282322
91.8873896021472
91.8287391250829
91.755417575163
91.7479695215115
91.7658243683481
91.7193682269028
91.756455235347
91.8483371572714
91.852728059872
91.8386559670303
91.9621602696064
91.9151399744847
91.8630596564367
91.8350565596239
91.7640132833888
91.792127875671
91.9234593146433
91.8173255127113
91.6402870217267
91.5550398614082
91.8146677269002
91.9148400865461
91.9519139527716
92.1457026046187
92.1013905025245
91.8813132068685
91.7560108024858
91.6695615073456
91.6783153345201
91.888921565147
91.8198330863441
91.5077200265077
91.8353427051119
92.1710796159677
92.271705419429
92.0221963689151
91.6931146847987
91.7320363430011
91.8580520115845
91.9991818459364
91.9013709678409
91.8454637310231
91.8958386998111
92.1046392444262
91.8994821573426
91.5137555791663
91.7642522776278
92.1666147815125
92.4753834387419
92.5435061807941
92.4850785612768
92.2294806048648
91.7965284001925
91.1149297791844
91.0713998720052
91.596747590276
92.0240060372257
92.0072829604625
92.2835119303193
92.5007692773708
92.6552210352512
92.6614586087282
92.3768308593327
91.9340963635903
91.6274720878391
91.7142682820193
92.2284405719511
92.4724565464365
92.2722713714784
92.2468992898324
92.0407977824355
91.9087646707854
92.2231323109194
92.1618110701537
92.080731659454
92.3955947700704
92.4995296023726
92.571997921264
92.5599304389125
92.1432170467298
91.8954364497472
91.9423167620739
92.3759417988478
92.5719690003131
92.2237386322131
92.0557438490807
92.2247802114749
92.5653872539526
92.5437288416476
92.3114898892929
92.3609025832412
92.4406182265259
92.3011957143517
92.3596731413019
92.277423473303
92.2640508550678
92.5898556049188
92.6656455672835
92.5850437835095
92.4638520909964
92.2869247101387
92.2121156992607
92.3462408658682
92.3707107502991
92.2328701358091
92.2555618245158
92.3005192534839
92.3741286529946
92.3578844885088
92.2736026785165
92.3770736009331
92.4964533179786
92.5967246407856
92.6430742982194
92.6007586619837
92.4515694022318
92.3050483484061
92.40689497242
92.6090784749789
92.6151175449901
92.6362586183865
92.6240103288703
92.5467636392723
92.4875166479337
92.6437302542009
92.7472592877836
92.6244686878256
92.5892506495746
92.7340577136552
92.829186270157
92.8177628357115
92.6963583897036
92.6337314571385
92.4884087774134
92.3481474575758
92.4248099603402
92.4959290885082
92.5832386145489
92.7368515370291
92.716616625766
92.4964340638853
92.2552367718471
92.4102867782642
92.4772310054279
92.4271534506732
92.4943376181317
92.5554666452031
92.5680127594427
92.4437727375383
92.3395722045386
92.2873518820619
92.0658029339976
92.0945359979857
92.0881920672277
91.8233985752203
91.719325874568
91.8820393183631
92.0651608249473
92.0974008087628
92.0624920734836
91.8970157115193
91.7814975107511
91.8471997150814
91.8121463149418
91.8097627613315
91.4615791781699
91.188845156395
91.2757103342904
91.4321271760605
91.3920946999509
91.1550918861674
90.9525043270756
91.014682322421
91.0694552110085
90.9175150714539
90.782988542523
90.7332465681728
90.73472427003
90.6848966247445
90.5714521314305
90.5738997809708
90.497104221233
90.3955497664317
90.3691758793531
90.2891868551607
90.2238494167787
90.2546474628151
90.0979675900568
89.9509611367821
89.888651505891
89.8442068200519
89.795187079797
89.7890074340096
89.6858355666512
89.5603862723557
89.4320479391656
89.3360278622156
89.1977805391695
89.075794307236
89.0614143089296
89.03378012149
88.9237274234534
88.9234244288894
88.8622201398881
88.6175649626082
88.4000157778804
88.4326992429841
88.4369046410719
88.4137073836072
88.367386313364
88.1918552880281
88.0328024058454
87.9984738456332
87.9446266487763
87.8393766242534
87.7543070224385
87.7112903508348
87.6189557151297
87.6174338676137
87.4858770516609
87.2863496214198
87.1891208873855
87.2287334948121
87.1750167006828
87.057223730401
86.9046896899892
86.8367418903155
86.8209957345466
86.833508295454
86.7750853300415
86.7266718454948
86.590020197766
86.3994816134746
86.2049700171023
86.1351021510858
86.1378319401466
86.1271493215581
85.8890656533515
85.7407309848248
85.6872288892467
85.756577405906
85.609359054704
85.4510907501606
85.3907456185652
85.3014399195935
85.2566464239984
85.2335298443116
85.1435546157822
85.05450107998
84.8736577867395
84.7522427099421
84.732055533857
84.7382662034633
84.572472747734
84.5226510936377
84.5614293703444
84.4540929825923
84.2652223352655
84.1990086754584
84.1353503203266
84.0844282488863
83.9620734495255
83.8638438291292
83.8424444817987
83.8541133210464
83.8233031993581
83.7328802569895
83.6460494799773
83.5193863947992
83.5111833799082
83.5148751404704
83.3989648805707
83.2217916374028
83.1891018096067
83.1610138448823
82.930805056178
82.9060460442511
82.9819271208933
82.9574384052387
82.8911189148753
82.8715928939141
82.6541628414021
82.5363292876296
82.6003530974032
82.5168140895237
82.3993076746891
82.3665870040636
82.3183543005625
82.2979692650875
82.1944641475912
82.1241751437955
82.1068879888346
82.0974843004958
82.0120062228605
81.9597407432255
81.9524338272773
81.9105444544177
81.8935528149127
81.924263471634
81.8644766196892
81.7471903183661
81.6642920279831
81.594944665081
81.5277027113642
81.4798557441019
81.4834241966036
81.4911825605767
81.4079583818609
81.3827867876962
81.4082123029909
81.4031656851608
81.3376731485388
81.2942256614083
81.1540351617364
81.1304092913695
81.1800302511601
81.1448858211291
81.1201764461965
81.1891876261884
81.2025342777971
81.0880178080701
80.9891914915053
81.0507279750662
81.0367071017339
81.0666111034836
81.0560942641502
80.9657083873346
80.8719945872579
80.9150436444581
80.9454197617021
80.9007551703151
80.8568036202667
80.8100260970129
80.7398321603558
80.7911929257201
80.793378792629
80.8172175279985
80.7663764901887
80.759827210722
80.7208286190351
80.6622734282612
80.6038108262208
80.6948638401191
80.6560886475198
80.6083303284996
80.5794462746643
80.5760489117409
80.5972895152638
80.604082841551
80.5416054125809
80.591217890763
80.5880789624715
80.4660517835287
80.4504516236299
80.5308490908149
80.5116718598142
80.4458603249751
80.4296934734822
80.4202571347379
80.3783303385091
80.4046051679762
80.4016755070056
80.4185898182306
80.4206149379127
80.4074822926948
80.4409678434763
80.5305413925002
80.5395383116862
80.4578508196815
80.4251762658002
80.4660245654677
80.4742997399193
80.4992442863449
80.5258052934195
80.5563383510561
80.6495828696576
80.6267998589815
80.5622422532889
80.5691498662137
80.6001343340977
80.6055669674867
80.5673222686491
80.675510158008
80.7514959058713
80.7263556079574
80.6430960433357
80.646332783296
80.7632773981917
80.8267322249386
80.8123136118521
80.8687062518927
80.8825013614162
80.839689775022
80.8535307907468
80.9105608056872
80.9663708316655
80.9823271916817
80.9816144546488
80.9881699004457
81.0408303516455
81.1939315986376
81.2916209001796
81.2606775043195
81.2767345188576
81.2952618601347
81.3524231945998
81.4687890419994
81.4882283108751
81.5057314487216
81.4899327823227
81.4567267859594
81.4961874055808
81.5532779450494
81.6228866967171
81.7774935189465
81.8556214585984
81.8717530664879
81.919455757459
81.9661852677934
82.0541496101294
82.1654552036325
82.1807310594326
82.191903337139
82.2190633018147
82.2374873343243
82.3499179865203
82.4656936061767
82.4524389644841
82.4744473338786
82.5058729810873
82.5848860522174
82.6483641140481
82.6997623455055
82.7073665798859
82.7559932311953
82.8056178375449
82.8772835303831
82.9362744015467
82.9935417922284
83.0082818175305
83.0661293378808
83.1175255300691
83.1746701192086
83.2715567441989
83.2911100931755
83.2744679949635
83.3161618919665
83.3480082251135
83.3687613248123
83.3616643948979
83.36338858395
83.3829884448219
83.4306721316764
83.5716323525468
83.6714315926666
83.7307298890209
83.7385193447687
83.7115764030925
83.7575685710364
83.7832264326327
83.7954632610792
83.8181742652192
83.8011586131801
83.8103901156306
83.8810756940971
83.9115748296507
83.9255595153596
83.9460435222419
83.9849035539135
84.0227206256107
84.0964660937007
84.2090050720969
84.282854991495
84.2414257660107
84.2785689419566
84.422213623487
84.4900472883588
84.4618212897099
84.4840215889425
84.5904487079589
84.6015315382925
84.6259220974933
84.7216661246509
84.8179729006808
84.7974224698331
84.7814291737917
84.8163950878688
84.8652474923615
84.890622586104
84.9462121308484
85.032506413053
85.0463986707396
85.0471141493009
85.110813776695
85.1474256911835
85.2336974334344
85.2691530831538
85.244216368735
85.2341527055695
85.267548497279
85.2643832081857
85.2731283354519
85.3584803861642
85.4034804149854
85.3559356507654
85.303466434521
85.2822948427676
85.329693626424
85.3877217724567
85.3337459939438
85.2476529070599
85.2044034846922
85.1501683280743
85.0915053235827
85.0222467141444
84.9636367637146
84.9315861486768
84.9027611992898
84.855931151751
84.7609198329839
84.6488857290205
84.5274870199179
84.4509118334097
84.4238940940775
84.3790468343726
84.3420915895997
84.3157393909751
84.2982119577189
84.2543763121407
84.2081456998188
84.1969202121615
84.0972878667901
83.997375667534
83.9988199184372
83.9917254930143
83.9138639985788
83.7843307332575
83.7025276254503
83.6517857418633
83.5982899279769
83.5045530541973
83.4599039154619
83.4712727882381
83.4941959029538
83.5345501714797
83.6304996488396
83.7509559894693
83.8862685796334
84.0081571607424
84.0260844271857
84.056351426988
84.1706667664702
84.2576456566034
84.3615485380488
84.5000541179988
84.5996348844889
84.6227085735919
84.6517540970196
84.7139739328116
84.7757239132829
84.907347141059
84.9947818846473
84.9772879708165
85.0207072256215
85.0179350166804
85.029488320565
85.1185827466623
85.1317600861787
85.1193596591043
85.1142883438137
85.1061709723847
85.1444272191346
85.1954724277195
85.2126680869436
85.2431204838364
85.2834690167762
85.2948444534642
85.3569412219493
85.4258998302981
85.413102058087
85.3846546640057
85.4580248814379
85.5595649421871
85.6626972441584
85.7565683709645
85.8389534842526
85.8811367016308
85.9738879482857
86.1401409039493
86.2703071199508
86.2917249871639
86.3471835216527
86.4419092544765
86.5174223675635
86.5525067141942
86.5761594013827
86.6466761566717
86.7461204035437
86.7928740348089
86.8398320432982
86.8979667641259
86.9185353549693
86.9807365950656
87.027613102864
87.0402937710795
87.0962816101332
87.1161178435368
87.1603762692515
87.2282621218306
87.2208401778168
87.23627946492
87.3403499856851
87.3542553919216
87.3473946547135
87.3986925211491
87.4789865554779
87.5207417538299
87.5029002184452
87.5558637984205
87.6268898808203
87.6180759329125
87.6347573445686
87.6886029369752
87.7009407008342
87.7262592874149
87.7506785613916
87.770871885308
87.8153287653839
87.8586556849487
87.8947173290234
87.8925542039789
87.9201260636205
87.9179210674824
87.9122021531957
87.9436824201169
88.0000032074011
88.0340198739632
88.0828502560788
88.0786076408455
88.089845654585
88.1566192641956
88.1886430452809
88.1579200875366
88.1660800014296
88.2061247917229
88.2412580723885
88.2362342576296
88.238474316638
88.2563574664954
88.276156758383
88.2568327751728
88.2652860202259
88.3330042578584
88.3956726527507
88.4002584264401
88.4264860949049
88.4332263003292
88.4203436368768
88.4599423732559
88.507942946573
88.5266627755645
88.577025306022
88.5844017871807
88.5706854478388
88.6127886479944
88.637401386008
88.621318480728
88.6568448476529
88.6910108335872
88.7244831130172
88.7284357380289
88.7462498697167
88.7621963045573
88.793619564688
88.8116294546637
88.8399942481887
88.863372075841
88.8837695799809
88.8766320795323
88.8855345779511
88.9100020588021
88.9395138319435
88.9589371204573
88.9795582156417
88.9872452293462
88.9961810803949
88.9454915177915
88.9236664561045
88.9525481816359
88.9792516747916
89.0355327316006
89.0905952611412
89.1038499352204
89.1312318332809
89.1363184663933
89.153039178231
89.2007803925115
89.2441703211451
89.3163345710718
89.3777032102793
89.3092290898693
89.2562838878079
89.3068618488258
89.440728706616
89.4620774568718
89.4278321001121
89.4391876817073
89.5431218986198
89.6144643180552
89.6178308665471
89.625350780452
89.7156548822721
89.8087312423697
89.8285710229929
89.7511612095448
89.7156277069359
89.8174277674064
89.8724768137431
89.8838278251381
89.9000755573452
89.9121557990637
89.9945537354496
90.0837379742205
90.1293590513766
90.0645643612141
90.0893195348632
90.1706997254135
90.1761386232341
90.1515645721117
90.2093234681689
90.2701123416983
90.3593257714551
90.4379045678711
90.4579678918784
90.3910177493853
90.3602984599771
90.3886493963971
90.4445886218121
90.4412475168712
90.4324935533695
90.4426123778621
90.5581618434025
90.5852655301708
90.5010574923081
90.5586405501906
90.6050866318075
90.5396299047547
90.5083716687628
90.5243969056164
90.6635643737556
90.7118593658449
90.7175751863687
90.7555136373465
90.8324976857271
90.8230293576983
90.7876894032801
90.7744376815901
90.7683670490315
90.8234718366299
90.8304306298067
90.776509881421
90.8458971975998
90.9205574280522
90.9221402135605
90.8688781523104
90.8764315924397
90.8707373015487
90.9140390237345
90.9890759206744
90.9895940031844
90.9374377758872
90.9764267570946
91.0024324028206
90.9969668019478
90.9786726388086
90.9146798015127
90.8679172988697
90.9742186957854
91.0456477830191
91.0967975758146
91.0890693522451
91.092271632768
91.1647505680488
91.2169519753467
91.1916127636817
91.1305724356498
91.0271860261698
91.1007722943668
91.1436754247731
91.1366456069354
91.2107668561948
91.2156996010421
91.159594116825
91.1652278555782
91.1763387808776
91.2065311954413
91.1544931395413
91.1767592609028
91.2271834898406
91.2534617571511
91.2509903831118
91.2647623692084
91.3044610926089
91.3104269602211
91.2721529341338
91.3225479714851
91.3932291660245
91.4372202052401
91.4662144638892
91.447067915754
91.3775439626372
91.392492886591
91.4209058151929
91.4110569808445
91.3976898490733
91.4335520045136
91.4686560035803
91.5020034866774
91.517257568916
91.4603633015282
91.4198153056781
91.4795169181677
91.5058059224304
91.4746012173703
91.4720580509985
91.5366905380764
91.5403955756287
91.5333600646378
91.5318913388403
91.509412675492
91.4601351484515
91.3974046382099
91.391523181096
91.4536197508823
91.4701522632059
91.5059890128573
91.537722765892
91.5117426588261
91.4371326621472
91.4685726728007
91.6394173794065
91.7591249589417
91.8004948394406
91.8525853924543
91.8586597947245
91.9331828254062
91.9610297818556
91.9771494367405
91.9110790809934
91.8530124865639
91.8626498160471
91.7583773425638
91.6793043692243
91.6614591978645
91.5916465173507
91.6005919944412
91.6358259343432
91.6774235671621
91.7219173393511
91.7599888894377
91.7555217344808
91.7519330295214
91.7796090823483
91.76299104458
91.58475893382
91.4342871033816
91.407034453045
91.4718215391893
91.5147063472791
91.5564221088028
91.5602485446473
91.6005894908705
91.6441607453984
91.6445028663871
91.6518580586706
91.7345659725684
91.7674711428682
91.7308090654549
91.6803341232446
91.6777460543075
91.6698451826708
91.7128563026333
91.723391094724
91.7824911633687
91.8915220457454
91.9066594036632
91.7826088531013
91.7355887440283
91.9028335551241
92.1203862110903
92.0719610244397
92.0786796796708
92.2983695268135
92.4501686639478
92.3893673118831
92.403695453411
92.5988768621352
92.654751105363
92.5643561133258
92.664794453496
92.7368128620423
92.738078341858
92.7754393362147
92.8010218236282
92.8487855480677
93.0312428155765
93.0614144319208
92.9953866847252
92.925240716481
93.112670768462
93.2879067150895
93.2708456467028
93.2479483940433
93.1421835355682
93.1408634556827
93.4676349680995
93.6960876142182
93.6757948844486
93.4746524247778
93.4237281830774
93.5100786862668
93.7290314580826
93.6639789068219
93.7658877342398
94.1593606524247
94.1663957388189
93.8092133493532
94.024413419232
94.2320585102695
94.1821560942407
94.1508023159901
94.0381047295689
93.7217207010047
93.9465660609703
94.5507725649386
94.5872131568166
94.1660729250263
94.3114883889831
94.6937129638338
94.9395884839251
94.8797989167306
94.9288059457165
94.9426237334869
95.0010179167999
95.2444603964184
95.3923742012216
95.3821652318151
95.5510952648834
95.4772749782246
95.5272365569494
95.4521129104682
95.3457756504426
95.4112655695912
96.0696513807456
96.5149212940146
96.4667897049879
96.3382814742801
96.2477703723197
95.9499337158016
95.5232205040154
95.1777056927814
95.137519462952
95.0159647436736
94.89641747489
94.9544204931253
94.7938200204365
94.4592245644443
94.4334491377233
94.2568694601718
94.0279013245516
93.8346718102696
93.864804733518
93.7949211360541
93.5676485452826
93.5355258142759
93.5674750895758
93.5370843921541
93.5135158116454
93.3874192260846
93.3709183151667
93.4868865432464
93.507071119817
93.3930632064624
93.4655381624833
93.5242351200229
93.5893458362968
93.7681446845284
93.8070932508168
93.6703690420514
93.7392363493899
93.8726438589697
93.8033196577122
93.5102522920455
93.585860136446
93.8030852059481
93.8570485909509
93.8265238770817
93.8719024138194
94.0131022681781
94.1612700833021
94.1836421177492
94.2115496450666
94.2195420012986
94.2420400247789
94.2927751753103
94.4114760203649
94.4271210786634
94.4327684498046
94.5535438425929
94.9191993217229
95.0214615966461
94.8787510484973
94.848786982487
95.0618678102194
95.3496380900867
95.6373711128544
95.7161782367348
95.7317214676803
95.9586461443322
96.4515539526508
96.6190286245401
96.6981491118723
96.5031726871114
96.2629616046022
96.377809741494
96.5956716232813
96.5454948735853
96.5256812754514
96.6569762506009
96.8524813869546
96.6849814768003
96.5676155731815
96.5279508732103
96.4687997133247
96.0847311454802
96.0622567835154
96.2591017034396
96.4872985483836
96.3543693768075
96.0675212813139
95.9307961838762
95.6214956704058
95.3064661800084
95.7099589927071
96.1194910728717
96.248358934257
96.1102158204366
95.8670903144049
95.7175136041741
95.8811260238587
96.2409521955654
96.7545833735693
96.8539288019776
96.3641020661547
95.9013320575674
96.1595307367054
96.4463568620844
96.2023381564112
95.7511211401992
95.8650442055307
96.0795381568099
96.0011849527227
95.6687391251891
95.4520505582015
95.327326229612
95.3846397355193
95.4610684012438
95.3877044636566
95.2632273329858
95.1892497985457
94.9149583522973
94.821997109156
94.8638372607193
94.8926893446885
94.7924778593476
94.7902068797715
94.7493334939203
94.6365627941963
94.5370408127457
94.5284116685238
94.5219347771362
94.4641491230468
94.4070313742555
94.3180320989765
94.2981009233391
94.3493765114672
94.324195672911
94.386277940244
94.3956533916196
94.2942512550573
94.2096280138092
94.2263362934724
94.2502651212385
94.3426008587056
94.3320232693513
94.2480974109977
94.1709759102437
94.1522082183459
94.1218063356194
94.1450100168727
94.1685206671044
94.1934679194138
94.2098929639212
94.2093402377663
94.1223118185437
94.1343300192041
94.2096449649358
94.1882395886678
94.0325167857894
93.9308443518779
93.999861508432
94.0654492344642
94.0398914468664
94.0745536083772
94.0566759792533
94.1172775883866
94.1635316339925
94.1531959268176
94.1119549849213
94.1197116024444
94.0652996112999
94.0180359730287
93.9984528724784
94.0186740262234
94.1021553655358
94.1109800359073
94.1027846445856
94.136008515977
94.1331711397725
94.0956296626726
94.0424412762393
94.0800790870786
94.1352076090991
94.1284039784851
94.2119793372032
94.1916512400664
94.1514723201177
94.2213911931955
94.2628943139415
94.2278083047848
94.1960176291288
94.1840253582748
94.1696842941731
94.1629147725385
94.1494191401095
94.0838353278137
94.0332072222221
94.0917402906342
94.1276269320059
94.1042161756718
94.0374389572155
94.0284122867423
94.1262810593341
94.125734275122
94.1050310111998
94.0745734152264
94.0614358977018
94.0253127171787
94.0721795419653
93.9852675604943
93.8934726373912
93.7439377748295
93.7666283599302
93.8186499870941
93.7778344941579
93.772366919258
93.6587128095751
93.5935176595121
93.5758016636309
93.4676862341454
93.3460024876416
93.3072220946178
93.0800854871193
92.9653772697253
92.943022189115
92.9026380928468
92.8125742585587
92.6738358075676
92.5880842913496
92.4702773871125
92.4185650325273
92.1548714578638
91.9254928033121
92.0842027606455
91.9922613683434
91.9173884924449
91.7455322947313
91.550588207388
91.336180356716
91.1187707310757
90.6700886093308
90.3964250359944
90.2987548180241
90.1593439732494
89.8965451258631
89.5369468775679
89.2155051145465
88.8788912844861
88.5738674110996
88.190192620926
87.5115075033884
87.420909473394
86.9885916133811
86.7311518030373
86.5231842764046
86.044998338199
85.5627262378759
85.0973178305594
84.3735329579243
83.9433719875754
83.9015065933796
83.4570686509881
83.0271585272741
82.4045591957769
82.0263692999309
81.6519528776192
81.1153189225809
80.7898640611569
80.5393814710338
80.0882480414575
79.5587650022759
79.241553367105
78.9504207435511
78.5026784198835
77.8529601616842
77.0858682589859
77.3929259209177
77.4483065057129
76.9136585065875
76.6356785580743
76.6488730130477
76.4822831597532
76.1673777430505
75.7840928780953
75.2913064983679
75.2299291640698
75.4717416046521
75.3355476634019
75.0544575817361
74.8111051277214
74.6552063634671
74.4664672543615
74.5065845079324
74.4100567335553
74.0359766998427
73.8723470129982
74.020801671158
73.8903314241859
73.6621987398955
73.4651045517122
73.3191856443895
73.1619848832758
72.9743924028728
72.8348004892826
72.7175449715442
72.5835355344809
72.4360619084148
72.3204791696019
72.2336734524817
72.1461616490945
72.0212913424492
71.9051726732074
71.7642194439029
71.6735692325722
71.5249305385378
71.2271853681685
70.798818673874
70.9419889063258
71.1119930417349
70.7822413879
70.4848350407223
70.581369661269
70.5458687737872
70.4128979488567
70.0874265520555
69.323086185261
69.7113186516948
70.7133249820023
70.92865877725
71.0422276948327
71.1385658112591
71.3235685670032
71.5445485462103
71.5024515489984
71.5340670318907
71.5406750367544
72.3105316170967
73.4211387426997
73.7097256094751
73.6244331622933
74.1461823721613
74.5610677044741
74.6198106875521
74.7969565373318
75.0816290363294
75.19368019568
75.4710419428461
76.0749177086161
76.2359013856895
76.6300208496702
77.0152603016195
77.1428004863982
77.0771407060039
76.8195394327338
77.6240965646544
78.8752881138951
79.2026790409567
79.1121247341623
79.1056162059271
79.4312088322567
80.0175239974618
80.2889274028912
80.1328697894084
80.3348590463541
80.8763584971694
81.2803194773282
81.4683557359335
81.5276947981655
81.6310316092857
81.604198546104
81.3854970664849
81.1887187779499
81.0562548617182
81.3074513903461
81.2152303731167
80.7463253212285
80.3243243990168
80.2750035374955
80.074196861603
79.4530120225444
78.8844849910519
79.1254069058353
79.438330587647
79.270407323874
79.1014370142203
78.8990144776272
78.9461893446299
78.9994956572111
78.987366131585
78.9206623871761
78.7191661672719
78.4344304174039
78.724929702444
78.8698384450231
78.6017390858503
78.3717774011834
78.211760972858
77.941527210344
77.5512838187155
77.1966769276562
76.5985644451125
76.1714216095821
76.1171716196778
75.751013185342
75.2274402041338
74.6712366222993
74.2020642152142
73.7451214944015
73.3045192448399
73.0165189090056
72.8233280986551
72.5294233088738
72.4230222913008
72.3853231176847
72.4530472560321
72.6644483113229
72.6621869646897
72.5389981190253
72.599857562883
72.869338974292
72.995925555251
73.0611393296499
73.1423019781222
73.2344481231203
73.3047510976894
73.4824990697227
73.7987662987732
73.9874280235245
74.1632309029132
74.360685198269
74.4484743393885
74.6031793845514
74.9962275573034
75.3057861639781
75.493290394108
75.6602305274468
75.8699157251304
76.0410822585653
76.1918439845471
76.371960308256
76.5534539509187
76.7057167837845
76.796868494575
76.8470103137253
77.05569506634
77.3033188686117
77.4724115359144
77.5756027044722
77.6662613308196
77.7437442034412
77.8001971565465
77.832789331532
77.8609359570077
77.8542832157421
77.8239669627017
77.8251519822791
77.8478423277316
77.8558480738379
77.8906363456228
77.9356615926377
77.9656202184089
78.010975748632
78.0805118791509
78.1530021408708
78.2479177681546
78.3604759266314
78.4622127580745
78.5415769340507
78.6474227266697
78.7697839548218
78.8855537626353
78.9734797071129
79.0645469720623
79.1598941650282
79.2262860851443
79.2286498116316
79.2395833649986
79.2711718381909
79.2806240575824
79.2735232389421
79.2504899322019
79.2191245846791
79.1955213254987
79.1474582606726
79.0867416932734
79.029383610051
78.9887420381455
78.9753314559011
78.9569167710992
78.9336900395712
78.902542946223
78.8555709324711
78.8007749294516
78.7347321849379
78.6879070373408
78.6692594597472
78.6532670674726
78.6073774325866
78.5861508557655
78.6108648646214
78.649739868852
78.6714788634692
78.6940541177854
78.7409923247247
78.8162005663597
78.9017169139951
78.9786221166562
79.0661242360567
79.18647352104
79.3093444540087
79.4522008695481
79.6024447556364
79.7538855259932
79.8864508184469
80.0336682614006
80.206875609069
80.3786696728211
80.5243928273626
80.7007692998387
80.8971414630835
81.0635821238551
81.2146040848501
81.3721921549131
81.5161154501023
81.6134380139012
81.6894662128518
81.7688292815823
81.8031064180661
81.8001323428558
81.7697314449861
81.7307192684117
81.6579099048633
81.5733532603771
81.5026918811108
81.4122387726158
81.2882272811456
81.168926873456
81.0504357589764
80.9323392724232
80.7983485460896
80.6708610983297
80.5300417156264
80.361516563264
80.1870848743673
80.0106488011382
79.8411755912724
79.6681239184106
79.4702753473559
79.2908623596209
79.1149736560918
78.9144387457325
78.6813658857503
78.4378943164085
78.1789178197695
77.8919697326522
77.6088881843024
77.3689521481987
77.1227013165147
76.905466977398
76.7252086774628
76.578888439349
76.4380065995601
76.3141625673796
76.209519576402
76.1138161936602
76.0045320955171
75.860933640351
75.6632106336998
75.4648626554766
75.2342736312463
74.9566052024846
74.6612870380765
74.3784815721709
74.0685126681965
73.7474908072032
73.4450399165132
73.1514155954574
72.8434898405348
72.5544325031225
72.2562164519058
71.974365810389
71.7151444291419
71.4523177026439
71.1723811263411
70.901662463245
70.6434808238163
70.3896430385921
70.1075435863931
69.8082587303846
69.5348086310423
69.3067573541383
69.082780101372
68.837336382882
68.5820209661709
68.3507030669227
68.1246217931844
67.9493633688428
67.8020861646499
67.6846290086396
67.5874129794494
67.4728456745458
67.3540253189033
67.2444054655028
67.1318044218684
67.0512878197521
67.0083074814714
66.9623029909015
66.9123968734367
66.9013379466746
66.9010265757087
66.9360612687321
67.0166726938547
67.1455180194106
67.2692633522971
67.4275612408629
67.6354914261874
67.8955069870054
68.1725080567791
68.4828555820978
68.8073352635887
69.1384887007624
69.4531103654376
69.7777943360482
70.1055177554259
70.4392165191697
70.7627880697096
71.0377034697039
71.2973066734928
71.5712903640938
71.8255169628762
72.0689801794375
72.2997169357817
72.4718411340143
72.5868097243022
72.7079794483743
72.8071284582137
72.9040621379157
73.0290275219172
73.1939609223323
73.3652289697912
73.536616760093
73.7338832973976
73.9841607376872
74.2368943526082
74.4988353729287
74.7911194052966
75.0566313158326
75.3007228708937
75.5792236778417
75.8591039524358
76.1114737145185
76.3252067872008
76.5690553021244
76.8146425007089
77.0527686807549
77.2848774351219
77.501143645879
77.6880443005811
77.898637911237
78.1031013164095
78.251028706581
78.38631486571
78.5148370146838
78.6111132379005
78.7268753106101
78.82458125276
78.9037375030462
78.9757284355595
79.0377380563477
79.074385046586
79.1240065618749
79.2023816382658
79.3205216796874
79.4551941740264
79.5762162015759
79.684732817809
79.8031602409539
79.8924206622978
79.9607798771401
80.0128545426668
80.0558113403508
80.0794664476831
80.1181118192367
80.1679837506131
80.1929996933148
80.20885549513
80.2636491217227
80.3119146175599
80.307750522266
80.3033508961692
80.3477036407824
80.4105965916635
80.4482319032387
80.438576740865
80.4543795739224
80.4840440566604
80.4949987610752
80.4625430458894
80.4198322177678
80.4265353891695
80.427057149247
80.3919027994068
80.348994466529
80.2857998289961
80.2487999570982
80.185536682325
80.1225839997337
80.0286091280485
79.9002681096266
79.7602513652077
79.6558623211371
79.5707987975431
79.4653061712865
79.3312931739969
79.2713218906526
79.2677620913167
79.2570570555809
79.23611289132
79.1968303927513
79.1034838884829
79.0354882756842
79.0198927714928
78.9613040948135
78.8469256841054
78.7161704594216
78.5801869533876
78.4679200171869
78.3676035377828
78.2675799829246
78.161654165126
78.1342042322777
78.1113248591046
78.1146234051959
78.0806430609009
78.0256930657712
77.9628565247462
77.8859719313222
77.8166080034612
77.7173719309923
77.5848922564371
77.5130764360253
77.4360466931584
77.3707479409008
77.3238124317651
77.3161739339252
77.3120750606364
77.3036229668534
77.241026958422
77.1756887520673
77.1103401866864
77.0871560634256
77.0395900521172
76.9737959186179
76.8865251672048
76.8235624884227
76.7633246923324
76.7215174333755
76.6278303507144
76.5338296407506
76.4753916344727
76.4288781180853
76.3470112713469
76.2642763599516
76.2079555017194
76.1574235503055
76.092254792118
76.041370747527
75.9436832930705
75.856745165233
75.7767460185304
75.6781910182051
75.5780679904956
75.412732218471
75.2926722504876
75.2218466369023
75.0908179467873
74.9987930838857
74.8676316031791
74.758950596095
74.6456860950429
74.5035747853173
74.3510393008565
74.1953508877531
74.0131976349095
73.8277318662196
73.640469618835
73.4862266125807
73.3692980031997
73.3541238213105
73.3084693318779
73.2536007843914
73.1756317453298
73.130285823907
73.0518945435005
72.9855555607513
72.9526470196724
72.8611193371755
72.6521197582248
72.5261220060532
72.4535532449836
72.3816984846302
72.2339139291469
72.1052315920888
71.81441988804
71.9528927944515
72.0346106539014
71.7110873012238
71.6076713085756
71.5455641002664
71.454054975623
71.3521065165291
71.2092860795365
71.0825927045601
70.9405245743126
