1798
3999.43349933624
650.420452594757
1
128
4
93.9613015264846
94.0219624410461
93.9938220493415
93.9678584753885
93.9671252066495
94.0296716466788
94.0471921990879
93.9866819295132
93.9832686409881
94.0317528922932
94.1010958939874
94.1265386959159
93.9809747539955
93.9669862928396
94.0316464014847
94.0176577149322
93.9440321912017
93.9271334970918
94.0180527091123
94.0648759895127
94.0131440172987
94.0890622745827
94.0129512641828
93.9159108223254
94.0435108530992
94.0984609860214
94.0647413884947
94.12609091495
94.0382111976604
93.9919419029563
94.0669678665253
94.0806362116193
93.9792086125211
93.9517294265567
94.0166388626033
94.0464195684587
94.0451628310767
94.1033853385354
94.1098529078054
94.1558101305268
94.1495960383185
94.0790658318659
94.0283694079594
93.9825350791797
93.9169156114132
94.0146207274169
94.1398123052615
94.2115120218969
94.220943187588
94.1884932903831
94.057726542777
93.9403899622217
93.8929448722385
93.9967957953486
94.1348258399957
94.1203153079725
93.956670564885
93.9153804274549
94.0225468433507
94.1406913709576
94.166429034637
94.0906273266946
94.0449000667626
94.1851582233021
94.1610656926239
94.0952542660319
94.125413809575
94.1255930507051
94.0806790564845
94.0720818593026
93.9624367382523
94.0898071115649
94.2520199230528
94.2620460506471
94.2895915353701
94.2550342042367
94.1474661865477
94.0757147155202
93.9631776918006
93.9484747398124
94.0946036488059
94.1923461941164
94.1382616375829
94.152003745652
94.1826008319586
94.1427508802639
94.0908819831029
94.0532475444821
94.1386748824911
94.3151345378694
94.3488596483447
94.3534508460625
94.2930151504391
94.2132320588399
94.236452979652
94.2789724833597
94.1893640525624
94.1642029468973
94.2119024761203
94.2262371960236
94.2561862911691
94.2973186215033
94.3526540469376
94.4183076843326
94.2572605028587
94.2760643280252
94.3696481382536
94.2377509499849
94.2086287623512
94.2635961954964
94.3211779397433
94.4198312496934
94.388281604963
94.3893012724639
94.4101030318494
94.42681814524
94.4477228110548
94.4864907794437
94.4899154106816
94.4158442320234
94.3187302234607
94.4411971639022
94.5640051088456
94.550079226102
94.5237920036231
94.5540163664896
94.5187798497899
94.4984119631662
94.5006336522173
94.507893464626
94.464724423331
94.4771511203641
94.4702345578325
94.4437543486192
94.342955303769
94.2179367511844
94.2217353508676
94.2490605591451
94.2285350929617
94.2455703171837
94.2722188894543
94.3590015551249
94.3619480980476
94.3763521206972
94.4374358974433
94.5673948129886
94.5460487484932
94.5869194944692
94.6254040093052
94.5833575329251
94.6037703984552
94.6580101643843
94.6448393923009
94.6733668817038
94.5728889027488
94.4278474004348
94.4335754150534
94.5277330829722
94.5977549737675
94.6657710183657
94.6394503648693
94.7095384312132
94.8587465408327
94.8094415840676
94.6136199466641
94.6046210777372
94.6087131937985
94.6103907086297
94.7034779065222
94.7407840589273
94.6910989829831
94.7518557767627
94.7421424570632
94.6273391228925
94.4018316227993
94.3724556559437
94.3452079412718
94.3964371311918
94.6336408132812
94.7301441532762
94.6461908987409
94.6052829590046
94.5500034392547
94.5932770993266
94.5900573212133
94.3922867442975
94.3008833442795
94.3572052704215
94.2712077619285
94.2371612273562
94.1769438063002
94.2066805833608
94.3371413546813
94.3610783486479
94.2819954037775
94.2708827505546
94.1717779841408
94.062039816634
94.0293926720064
93.9388560739637
93.8728815507653
93.8934002294553
93.8368204940932
93.7848358516852
93.5870866143667
93.4708038698361
93.5403900768096
93.6392831391114
93.5497360972923
93.4344233304028
93.3272080620674
93.3576596207646
93.5156496760156
93.5665510048432
93.3404678757968
93.2085441765122
93.2274765324642
93.2561925220225
93.2239865916513
93.1380472928138
93.0591346773323
92.9926522176066
92.8921520045692
92.9091959811689
92.8779121889117
92.8265161156285
92.8080658313907
92.8009577253849
92.6785942549882
92.6082442021627
92.5778340849779
92.5675355330156
92.4830399345654
92.3722312790907
92.3435074854512
92.4609744973624
92.4338017034629
92.2330946846722
92.1209004886927
92.1700421777914
92.1215623197339
92.0799021677773
92.0856423020132
92.0336636514716
91.8817702106744
91.8615882666197
91.8903138210935
91.8206062689262
91.6599613750649
91.5277099203268
91.394106484172
91.3274648331934
91.2731794055791
91.2831818778937
91.3383641804882
91.369323581591
91.2970752936561
91.2410189881149
91.1251568638293
91.0679591815548
91.0424429472659
91.0058372382476
91.0152186857805
90.9652155755078
90.7264329241712
90.6230587130447
90.5806018605823
90.6012853156935
90.6071766631056
90.5436808966211
90.4593122767822
90.4034009398843
90.3521439484259
90.3242046338625
90.3085835805126
90.284993016065
90.1330656771873
90.0501356033947
90.0171801870727
89.9597090893053
89.9368193519389
89.9208009574026
89.7908135501956
89.6431770382512
89.5431254548723
89.6217587604461
89.6504340369369
89.4606412176342
89.2735862984068
89.2819952412911
89.3540669317654
89.4234774558695
89.3236593876916
89.1950698419791
89.1802299006376
89.1803957517208
89.0679720880642
89.0178603012088
88.9712225748288
88.9071165480161
88.8689565183558
88.8104932305102
88.7817686526966
88.7958449594291
88.6242519171655
88.5171349278092
88.5044710079026
88.4988467263675
88.4840136905823
88.4465267311979
88.3022513152642
88.2778568886886
88.2864354842574
88.2932068391195
88.2480250974294
88.1160223880629
88.050943537927
88.0447010898511
87.9922009490409
87.96025360101
87.9068217867652
87.8562642341226
87.7966808362624
87.8045309931122
87.7669644927366
87.7785401525671
87.762139098143
87.5975107653053
87.5101667099366
87.5444634785877
87.5219878688327
87.5362882086594
87.4811043059196
87.5044107480463
87.4933974964811
87.3431236777213
87.2958032844229
87.3679466244527
87.3694114810649
87.3665626009101
87.3069535909047
87.2258241318081
87.1856467252493
87.2043627840033
87.1803380624819
87.141154930791
87.0686749020302
87.0798498743353
87.0033194126895
86.9443207833885
86.9758690714952
86.9477247877828
86.9638831345421
87.0437338439226
86.9541383572929
86.894517193213
86.8680142268336
86.8478279276249
86.8952607248641
86.9786568803972
86.8969199010475
86.7902686652083
86.7875587015398
86.8429850572035
86.904775448977
86.9396056357442
86.8506909187153
86.8274543699986
86.8853427626377
86.9255934663418
86.8382072659115
86.7439287615837
86.7103613313893
86.7583533302359
86.7709897739353
86.7108854815823
86.6789118085919
86.7533902103272
86.7949687700803
86.7450323774286
86.6365260658127
86.6355944071606
86.6644104773069
86.672587912091
86.6212714104043
86.6329724970386
86.7162753401071
86.7532675663159
86.6573241653427
86.6116303750415
86.6067596458979
86.6012017281522
86.6308235551873
86.671784046238
86.6025154777986
86.5961655727272
86.5877154486162
86.5738205130111
86.6552324866686
86.6975774028564
86.6125615181
86.578327055626
86.5829657275899
86.5551753796569
86.5138383152939
86.6276564455286
86.6999780768101
86.6660838537747
86.6546114064337
86.7175177136568
86.7248355669927
86.7063448973327
86.65546476077
86.6305018152225
86.6638004157702
86.7145743031384
86.6696221925517
86.5979342043079
86.5155858595439
86.591581844903
86.7421905992458
86.7545234372918
86.6651972422639
86.6892465652619
86.7123246221844
86.7434048174883
86.7665966926175
86.7631763716212
86.742665560467
86.7854765471495
86.7846437284313
86.7799886739342
86.8232790895367
86.9278336717614
86.9271472950058
86.8990963706833
86.8638085805258
86.8580130670367
86.8820358001993
86.9444900877719
86.9968740772181
87.0356006480027
87.0489894934741
87.0878604855068
87.1222001545834
87.1498837716862
87.1004099264859
87.1229225728407
87.185981599177
87.2444107963636
87.28700404886
87.2867167173569
87.2710591237591
87.3504538634741
87.4563091288239
87.5069240296396
87.473940154788
87.5078346894992
87.5447802339847
87.5478820200422
87.5703287783377
87.6204519853218
87.6306660456305
87.696142502373
87.6643762241981
87.6353412178139
87.6759708858138
87.735371018102
87.7571991488429
87.7879972671969
87.8543369892508
87.9278156777265
87.9286184002445
88.0223543772686
88.1067351869113
88.0581879262233
87.9902776001013
88.0122608025676
88.0438303405205
88.0671238867318
88.0276805815424
88.0764802489128
88.1510320882589
88.1860979076431
88.1782549336623
88.1745023178703
88.172380458898
88.1839064156984
88.2417907982336
88.318181114902
88.3317387852177
88.3885381346817
88.4184145656473
88.477770035383
88.4728526515593
88.4488948326082
88.4546327604945
88.4637787371245
88.4671512096173
88.5094217583987
88.5321852153933
88.5425894040569
88.5568171151054
88.6066666364537
88.6278325726205
88.6118454909488
88.6405462900349
88.7225123895861
88.7492161665409
88.7739301940705
88.7730863057753
88.8346884468024
88.896465978167
88.9675430795913
88.9913538377556
88.9702214164796
88.9619646825093
88.9829277057614
88.9944118379935
89.0435882161682
89.0741930898066
89.1060584918292
89.1039211173231
89.09270860666
89.1180388884358
89.2222087581667
89.2889363463695
89.2845245146893
89.2713366640841
89.323505183655
89.3480431686192
89.3283377296605
89.2680448761545
89.319016324787
89.3777991942469
89.3897475052965
89.3904166199744
89.3821505262137
89.3732934904897
89.4025639933599
89.3961393392441
89.3397085699463
89.2454311996762
89.2662095825465
89.3303928153925
89.3461147207271
89.3292378580937
89.2776647055601
89.2034409419967
89.2114083588608
89.1489645699633
89.084713189839
89.1068186198303
89.1546384229868
89.0957596491446
89.0671855108766
89.1156162585827
89.13295623876
89.0602646781651
88.9774622946545
88.9622153746926
89.0598814870642
89.0585569158748
88.9924513421473
88.9714102030728
88.9937764839277
89.0061716466952
89.0273938536463
88.9983847788864
88.9324390168978
88.8715367122306
88.8564498272707
88.8356761526927
88.8228287348561
88.8424487467031
88.863894340017
88.8324896071545
88.8640512002937
88.9133708367005
88.95128625523
88.9932204820764
89.0620585746794
89.0899143948194
89.0797910379071
89.0971041924776
89.1393358077448
89.1484241209932
89.180536578566
89.2007317249839
89.2648858602455
89.3176291573042
89.3685177499495
89.416651237542
89.4546599626369
89.4803721088571
89.5399776624454
89.5507491997507
89.5199951306906
89.5343997031912
89.602288265674
89.6331738663539
89.6056898611435
89.5509120062904
89.6062112041106
89.661274296112
89.6482752253442
89.6384636597984
89.6401165822516
89.6469066669227
89.6943388545088
89.731969651497
89.8008813181602
89.8589633156633
89.9332468320268
89.9931697932657
89.9805334711234
89.9605241141194
89.9975502646491
90.0281679998476
90.0712132711788
90.1040931402455
90.1545459958645
90.1900390043305
90.2670125331021
90.3087557492051
90.2992618949499
90.317694132747
90.3629633764791
90.3922801005642
90.4528861905903
90.4629391412812
90.4430141935037
90.447681917853
90.4983777350157
90.5814912440362
90.6492206836499
90.6324932918558
90.6117056211949
90.6240673615583
90.6673245996607
90.677571528275
90.6749406991188
90.6562140998506
90.691368807326
90.7504849440027
90.8079916772807
90.7894782787746
90.7618314954287
90.7882596589143
90.8669345314167
90.9314325299188
90.9420018613311
90.8847315769121
90.8757203146976
90.9265386870702
90.9669700082057
90.9830956334674
91.0428343587201
91.0535132989703
91.056230886453
91.0830298848743
91.0851812883334
91.0854440022692
91.1273664024825
91.1625640829709
91.1625757973352
91.1169251461688
91.1547868216963
91.1568419373828
91.1192763590645
91.1771625984232
91.2475340294572
91.2425267655283
91.2355230475927
91.2334309662861
91.2738399252647
91.2900067750908
91.3105517627973
91.3207792861706
91.2943493707814
91.2692628214043
91.30653026402
91.3434524575678
91.3690969414207
91.3895629605095
91.3816712268729
91.3669473004877
91.4241628334831
91.4818600150306
91.4930775959349
91.4871338239528
91.4872372538409
91.480001344474
91.4987293103978
91.5249724132587
91.5236897082248
91.519113690583
91.5666358972259
91.6006548988939
91.5978708358443
91.5767027032237
91.5867904697204
91.6226636098578
91.6462914172145
91.6403927069259
91.651235380299
91.6572172071495
91.6436716838007
91.6656609648797
91.7497934469464
91.7765706276278
91.7278164335008
91.6887535596002
91.7276291933949
91.765310084192
91.7527343940993
91.7795952306531
91.8437894422164
91.8294430356025
91.7825770536149
91.8086683845683
91.8678112694753
91.8261399394482
91.7602515004963
91.8035282517647
91.8919678549411
91.8773856986559
91.8581257503709
91.9076798196271
91.9460476242925
91.937200751184
91.9520075302061
91.9855175832142
91.9843268396923
91.9818329037826
92.0363507686014
92.1232461757376
92.1967108838252
92.1938137610053
92.1743914194099
92.1535297321587
92.1992705250182
92.224598863318
92.1919988554496
92.1842107921835
92.2556744972378
92.3749083960856
92.4127248443122
92.3748386340694
92.3880401680057
92.4283249132307
92.457462578319
92.4222594484531
92.4132114203942
92.4588816505647
92.5376884993805
92.5909562310195
92.638642318811
92.61881527926
92.5835574041815
92.6317894434451
92.6542071881767
92.6374086616144
92.6179515443019
92.625181413052
92.6773904474269
92.7294948622902
92.7471342799336
92.671073255689
92.611591753636
92.6498175604956
92.7534656612018
92.7798239265498
92.71955112754
92.7877053512115
92.9550570682036
92.9613604975285
92.9452511327768
92.9508255901342
92.9107402613843
92.8891663492996
92.9381487812385
93.024986094768
92.9734920707945
92.8848770123253
92.9300805390563
93.0225663837435
93.0072679121322
92.9881831904367
93.0405340291241
93.0259997041101
93.0287319658102
92.9946802450739
92.9921801087559
92.9980327417108
93.0263469962724
93.0666712948905
93.0833884681643
93.0897002851605
93.0907888334211
93.0566018091528
93.0604263746191
93.1310969906394
93.1797161892029
93.1578062706262
93.1775287423633
93.1915698361636
93.1968379689317
93.2051099848639
93.1582578868684
93.0751678626773
93.0442865685428
93.0982578686638
93.2057353443447
93.267791302486
93.2444744245321
93.1628138675379
93.1368756568988
93.1755361972576
93.1936471888938
93.2019217273979
93.2060654785402
93.2170417856362
93.2377565602679
93.2031458472146
93.2291317252864
93.2617844039704
93.2707664162493
93.2693665760945
93.245868295935
93.2417255999138
93.1922895460021
93.2257887821317
93.4103971289716
93.4668070928605
93.4151787913507
93.3712756530089
93.3394611459968
93.3573012604139
93.4167509904732
93.3874436483788
93.3890295178308
93.4279858583217
93.437395526487
93.3757355480412
93.3262720753595
93.3546451171976
93.4178406857339
93.4576536608912
93.4026939475421
93.3264154058396
93.3882321947545
93.4854101080325
93.4745204303424
93.3693574774243
93.3339365969595
93.400747053464
93.4594050358521
93.4350622743266
93.3837547402009
93.4400242259297
93.4749628330195
93.4129782830934
93.4067814034336
93.4248935882022
93.4251026029216
93.4108208409912
93.3524784419225
93.3349575738307
93.3700053255681
93.3474530575344
93.293267328563
93.3497694102233
93.5156471229008
93.5566472587747
93.5637803602461
93.6243123858313
93.6252848255105
93.6562675076029
93.6577032995517
93.5494527565274
93.5423359149321
93.597022920049
93.6379683763419
93.6141017421632
93.5729207119365
93.5475936137763
93.4905960527737
93.4053945072726
93.3534601983093
93.3915510388696
93.4710702155578
93.4994706963744
93.5110482347353
93.480630021015
93.435020141042
93.4600765287278
93.4418457863002
93.3747341152747
93.3217627433094
93.3319314561423
93.4495163770295
93.5361533664909
93.4751685711573
93.4647986804904
93.489579861247
93.5077552876041
93.5667023709073
93.5844846052693
93.5176475477836
93.5212568852549
93.6364492374735
93.6981812573369
93.6865980246297
93.6848554590065
93.7456015794102
93.8004210070125
93.7699992223613
93.7611656893239
93.7724994946297
93.7960251120207
93.7821888118036
93.8447453358677
94.0811293007299
94.1331017924504
94.0666817020727
94.2703189264522
94.4365472151802
94.325881926457
94.2941968298313
94.3587403003253
94.4080288743615
94.5843479191868
94.5638423632765
94.4616060013611
94.5242642790909
94.5086385081603
94.5390091526913
94.7429597403426
94.8866205845143
94.8335064834248
94.727517962414
94.8167628820379
94.9988961761754
95.1085335037737
95.2320028925498
95.1144564262757
94.9629363178235
95.0231774181155
95.1251011985878
95.1229696304227
95.3165332662419
95.6283482368967
95.4059606154631
95.3197184445719
95.6252638482396
95.6390598115784
95.5059609753943
95.5845652076913
95.4808110088176
95.4330782543687
95.6988812016293
95.7971835505496
95.5949534121548
95.5820827948612
95.9015030036967
96.1452234483575
96.1181762137218
96.1321011357647
96.1442737956178
96.033109670691
95.9938935528635
95.9713229261012
96.0952998134766
96.5000189168553
96.7670590804115
96.6207661275645
96.5821349112448
96.8063979281025
96.8046120023398
96.7905559081035
96.760512881471
96.8330077596797
97.0136962889069
97.523419799501
97.8665183175121
97.6679797573818
97.4957339906915
97.7711242717653
97.7931672766187
97.4825541850387
97.0533338188354
96.7260450893161
96.4829917583555
96.8210398148936
97.0100957199923
96.7496295521394
96.4133276682033
96.0429492089238
95.8572687358103
95.8942706626241
95.8704090524452
95.5702912676706
95.3058451992522
95.3311165163922
95.5286860607987
95.5353004966324
95.3060175200714
95.1804117817283
95.0657996518295
95.0667826352468
95.1861304499948
95.086503319272
95.0129216899114
95.1257917895276
95.1764087678509
95.2277310266275
95.2897232645025
95.2559408880527
95.2447812119925
95.2986231757488
95.3429263931084
95.3599362281052
95.3359874749759
95.2885506800069
95.3236201954414
95.4068867050331
95.4491888166824
95.445235201434
95.2901753639865
95.3315818922747
95.6198791747599
95.6999760426371
95.5999117945524
95.7496457000669
95.9310200770816
95.9702274397684
95.8561056383198
95.6747884406706
95.7051391725968
95.8564598524076
95.8802947666724
96.0674585432604
96.2192914220387
96.2737063712064
96.2802834777589
96.4563440322181
96.9021846751015
97.1421426095865
97.2660205134773
97.361436769013
97.2185167860278
97.3008675505122
97.5235860677901
97.4642751081245
97.4221250488902
97.664648526337
97.9319777670354
97.9764539035677
97.925631587333
97.9140585169376
97.6202814239493
97.4011228568894
97.729776548506
97.7872512758808
97.5203954269861
97.684546273651
97.7113448735849
97.5736055531098
97.5548305065318
97.4323393345789
97.2153544211796
96.9747503318401
96.8857823890874
97.0461624768027
97.0757648362974
96.9948792420462
97.0014952110458
97.0616106728443
96.9816404714798
97.1648852837428
97.3700632331199
97.398505440848
97.2813161983207
97.4104032042006
97.6117906764991
97.4883927338338
97.476702143545
97.6210612848548
97.2555220537853
97.0816797302674
97.3155640280778
97.2142315188803
96.9109222343129
96.9325646489911
96.8962499016313
96.7040160302809
96.707158489682
96.5764093694428
96.4054988900045
96.4272443313482
96.3429196220686
96.4121317558044
96.4745991928965
96.3933789367963
96.3023246218627
96.2745281526972
96.1858167908011
95.9506084284773
95.825842270499
95.9187784097357
96.0075261645872
96.0366076280019
95.9458644985267
95.8526244555529
95.7776942945305
95.7194348581376
95.6977914124925
95.7719828689683
95.8162250572347
95.7291744609418
95.6780246704374
95.6616005509773
95.5977272316486
95.5824780745665
95.6184825567792
95.6184843559495
95.6460652569924
95.6938929019889
95.6408756797843
95.5900391867908
95.6198917170902
95.5947324993618
95.5401365889847
95.474058361882
95.4306115137626
95.4616590328663
95.4975606819067
95.5916953837173
95.6560569705417
95.5890315221181
95.5018492078352
95.5167306827628
95.501843566769
95.5139278811514
95.5793678203672
95.5728519271293
95.5351790736948
95.522102698228
95.5439123357176
95.5449632020938
95.5309958003177
95.5315285469377
95.5979467086352
95.5399788353964
95.5049308208567
95.4995257095065
95.5190977968388
95.6184630588048
95.5989873631271
95.5374908491996
95.5500817117204
95.567333096004
95.5546104006991
95.522752480932
95.5171835922447
95.456238661084
95.5018409303111
95.6163020397241
95.6047935422423
95.5970544407081
95.625188273197
95.67835721239
95.6588939659232
95.6058185505371
95.6046329083876
95.5992441755178
95.5491431317675
95.5357474189743
95.5364350440635
95.4810118574334
95.4623534390074
95.4916504285841
95.4542228378298
95.3287574046803
95.303561384948
95.3750693663643
95.3604268705635
95.2657552113525
95.2400009281472
95.1969703122386
95.1332842926653
95.1101335204812
94.9738001539994
94.8366917981241
94.7092876477413
94.7314833444496
94.632730160463
94.5862958337685
94.5691586000857
94.4529483327028
94.3237412217274
94.3724872303716
94.3195163374466
94.2711400294554
94.2156842502895
94.0388699695557
93.9292045125249
93.9417890082087
93.9628295696415
93.9101012700781
93.8335285744704
93.7705494058118
93.7415192607387
93.7554541606647
93.4904320233056
93.3507012296205
93.3277203975998
93.2432176092272
93.1994562837097
93.0990998960251
92.941336442502
92.7968275974857
92.5821715075707
92.2289024587796
92.0617734376137
92.0025221787921
91.9243471040605
91.7492665825036
91.5155865196342
91.2542562881001
90.9766105895996
90.8540302175971
90.4985680830287
90.1879788332461
90.2051748469154
89.8851370010162
89.8167380725091
89.7034377690518
89.4195166414631
89.1489862140391
88.9557470555565
88.4830575078494
88.2688008018206
88.1820644350221
87.9670617724623
87.6908113434247
87.262529652796
87.0659061145291
86.8484249703915
86.5222951243814
86.3248056629831
86.1986203101603
85.9054533008567
85.5911491672399
85.4172654654916
85.1776888629911
84.8737598438622
84.4297738752188
83.9052772005268
84.048540072416
83.9728727775063
83.5036422330588
83.20394710391
83.1613463922632
83.0088272679568
82.7139871324957
82.3676410498104
81.9020666102405
81.718210428412
81.7320641503214
81.509804035213
81.1558554717061
80.882518016778
80.6521677778835
80.3537457856026
80.1735652873479
79.9254454648993
79.5373860632342
79.2579857965246
79.2021436030552
78.9779392388107
78.6760045482606
78.3697700351906
78.1593258735079
77.911859745475
77.6493935483545
77.4089055187845
77.2021999442139
76.9897431417937
76.7720863904295
76.5502684979089
76.3815844028264
76.2153447284451
76.0461371916384
75.8804026437257
75.7385014925446
75.5903507841044
75.4731040773304
75.3053309138646
75.0237894036382
75.1083970817142
75.2365900498625
75.0332405475233
74.9196347820481
75.0986282973398
75.1163757172334
75.1052157099321
74.9235088863357
74.3695719408623
74.8066214924137
75.6053425727338
75.813144277428
75.9910950431414
76.103572534841
76.3328279206305
76.5398094240831
76.6293529886838
76.7939614089313
76.9197573651727
77.5616545276849
78.4782078559641
78.7811810043638
78.8174857956043
79.2966473000552
79.7016295126506
79.8646636620141
80.0055722529392
80.2798657963119
80.3648263288066
80.6810816801749
81.2042026679816
81.3784191070524
81.6978509884892
81.9085868643149
82.0214256956871
82.0258542670077
81.8639168556202
82.4558498103905
83.2985991042567
83.4818765360425
83.4264804445201
83.4093982884197
83.6148772065228
84.053555879944
84.2216637136826
84.0847240824018
84.2040077214744
84.5046009889263
84.7446489267048
84.8434821562094
84.86677347428
84.9477042452678
84.9165100967941
84.7932174115883
84.6965169907513
84.6153191850778
84.7933864654515
84.7561091896591
84.4816029011898
84.1934356192692
84.1595260157107
83.9967408009226
83.5908896821189
83.1205925083736
83.2626491924515
83.3714456057474
83.1740845315203
82.9143408196856
82.6629163750526
82.5558540185233
82.4568178120789
82.3065957761781
82.1150772040479
81.8312643675994
81.4684484741071
81.4722906702744
81.4017707859357
81.1030182628904
80.8005188159003
80.6078092085947
80.317130203178
79.9564033477764
79.6722534983
79.208999647292
78.8869858041342
78.7769429700006
78.5038287264201
78.1375494298092
77.7903085184429
77.5395252407935
77.2542579998297
76.9669598365732
76.8026770901401
76.617629272812
76.3344333008042
76.2087263750123
76.0706242927579
76.0200960335384
76.1212859766902
76.066068402377
75.864272703619
75.8336190869967
75.9635298158399
75.9733633337026
75.9698592238821
75.9953154519569
76.0450963638783
76.052880696111
76.1799599187833
76.4121159530469
76.546914986701
76.6795288968838
76.8247732557624
76.9111322641105
77.0650145773685
77.3416474927631
77.5759450139072
77.7315929271853
77.8757075517047
78.0753178573087
78.2699259068488
78.467501705476
78.6802611985876
78.8671757467142
79.0487763251182
79.1766576668804
79.2763657017909
79.5017680365101
79.737984517897
79.9024843181734
80.0264092509516
80.1629678490633
80.2779295350178
80.388826883844
80.4874220425369
80.5668020606478
80.6335237417076
80.7170647587018
80.8085965065026
80.8673801033051
80.9146597275692
81.0084551048036
81.0912518507389
81.145207166312
81.2163872118165
81.3052696237863
81.3909951793866
81.4847590179282
81.5913294730774
81.6730112632439
81.7609286896525
81.8742926312404
81.9522050816157
82.0208956672521
82.0918721233894
82.1695788082004
82.2385666851873
82.3054675581215
82.3595275040099
82.3934388952345
82.4315316059327
82.483803083702
82.5083669019969
82.520499390255
82.5592932994966
82.5778369712736
82.5800938287165
82.5835867282595
82.5999345929381
82.646004622048
82.7041084050427
82.7376279762
82.7687496336232
82.8164718157671
82.8313201905662
82.8388492882692
82.8639885845999
82.8927350607333
82.8982750762106
82.9258712507239
82.9431254575023
82.9506126210705
82.9669524885154
83.0041563882426
83.0229144837442
83.0121137995067
83.0157867846258
83.0539644399889
83.1028807607486
83.1414957542689
83.2027762273163
83.2629512130037
83.2974473921953
83.342597167674
83.4259086787661
83.5108927173746
83.5708886278487
83.6388989865079
83.7325408864931
83.7927560285403
83.8546940776484
83.9293128133232
84.0010585042311
84.0862563385518
84.1699327902752
84.2586230820668
84.3384060509429
84.3890473719784
84.4318296220722
84.4802516267052
84.4952605997618
84.5022557547498
84.5259280683027
84.5425412558778
84.5143777869232
84.4885642806236
84.477866585608
84.4246768122112
84.3706226613168
84.3421559730059
84.3063556792506
84.2541595584974
84.2075455070362
84.1770979670345
84.126882763088
84.0513036178747
83.9517542810501
83.8894698454875
83.8405496069371
83.7445844129346
83.6527141156067
83.5696650402564
83.4693586416011
83.3714953331322
83.2729479709059
83.1600055291132
83.0233899318295
82.9029041963984
82.8162777257208
82.7089956394853
82.588183860728
82.4591599447465
82.3402525720077
82.2547141109252
82.1501029764555
82.0490777713984
81.97027194012
81.880460065728
81.7911484094272
81.6823438856263
81.5622784882146
81.4300151823516
81.2781077284841
81.1309625362203
80.9582901973732
80.8007355172251
80.6562247155736
80.4878457116601
80.3025702712875
80.1448018020416
79.9729061609015
79.8033879661255
79.6227686913759
79.4584238446773
79.3242744088579
79.1792728544525
79.0269147132818
78.8691875654588
78.7022012342372
78.5464336197718
78.3974406813188
78.239897043939
78.086672993418
77.9408077271848
77.7943696773244
77.6508615064993
77.487958209063
77.3331545117925
77.1815816541336
77.0372585714725
76.9164762956791
76.7815004680719
76.6426613167363
76.535816008254
76.4529869428711
76.3752654233717
76.2906195378627
76.2417544287312
76.2079774754213
76.2274222730264
76.2371468330226
76.2478035183014
76.2893971691288
76.3340009043299
76.3790807902232
76.4419418508994
76.5198157505883
76.6452490028584
76.7766945532745
76.8990962327163
77.051754434592
77.2271824947679
77.4158290189007
77.6105300546666
77.8135070991418
77.9957733742612
78.1691990906843
78.4224315901756
78.6417941622858
78.7809098352759
78.9517176737802
79.1549638183452
79.3472123917577
79.5354330144144
79.71655214282
79.8703613329283
80.0124160799228
80.159504337801
80.3112690543795
80.4368081815986
80.5535522718553
80.7068276146478
80.8456890907475
80.9889009623464
81.1270110246994
81.2820850567965
81.4534633833473
81.6011101603893
81.7360688459096
81.8845106354449
82.0262703207943
82.1657615797809
82.2993415048801
82.4114401132744
82.5420680700693
82.6886648106334
82.836191628177
82.9359067739388
83.0188476986068
83.1663883554429
83.2990825688337
83.4055072807878
83.4886753306627
83.5836960900474
83.6761580997291
83.7434025620288
83.827005178956
83.9332251193206
84.0185707510373
84.0641968628978
84.0986440111326
84.1654415957583
84.2236916282425
84.2673565955056
84.3222455784515
84.4132060208209
84.5050241075757
84.5487759585383
84.5889681938583
84.6445519350133
84.7019202125586
84.7406434268609
84.756741380057
84.8099725882256
84.8719013181335
84.9304110932056
84.9716824999653
84.9863764894734
84.9760529557358
84.9793212212927
85.0125307824928
85.0108926634638
84.983290319768
84.9869386738303
84.9572197013981
84.9013286538283
84.8349012546002
84.7647173777352
84.7323649978343
84.7145513236735
84.6844398405172
84.6531379657446
84.6537951784508
84.6862751929485
84.7271631423195
84.7299237288759
84.7245291488737
84.7577407625058
84.7596638745029
84.6807826979194
84.5920115868835
84.5230211583974
84.4581923590933
84.4207162866925
84.3226393760359
84.1940959885112
84.0893013836713
84.0222817225036
83.9547290733726
83.8776179703087
83.7793602571293
83.6861603552382
83.6256216230742
83.5834721120954
83.5031297203819
83.4126975644743
83.3288198967181
83.2409658817371
83.1546254948981
83.0796483869821
82.979454735236
82.8500238650639
82.715868267082
82.6346733553577
82.6132641045407
82.5859134438075
82.4849821439471
82.3754037835211
82.2983307904685
82.2452570696196
82.2109306358428
82.1556267260411
82.0803942600116
82.0358070008888
81.9868411381735
81.9712666312296
81.922936491439
81.8929690864042
81.8755329739374
81.8299333102476
81.8045647464345
81.8038016172452
81.7377390755857
81.6655043644765
81.6198419615299
81.5777534934157
81.5142071399902
81.4614936884388
81.4412264179513
81.4508916867606
81.4401163391079
81.4298452427495
81.4083323135752
81.3262348291877
81.2696968603218
81.2495966434629
81.1719390898545
81.112039388121
81.0594735004333
81.0218800317246
80.9700596471953
80.9304329320485
80.8890407481973
80.776846525452
80.6630756193279
80.6343252593954
80.5541670151997
80.3932089595328
80.280642962338
80.2724235753221
80.2444574181979
80.1042042401839
79.9740802491648
79.8980832254408
79.7610242191827
79.6481527708437
79.5445329750136
79.4551453400177
79.3349379752521
79.2520759616125
79.1640540562197
79.0795466768347
78.9774311233807
78.9193278068228
78.864546713164
78.8044450993841
78.703279762163
78.6395195797205
78.5769053138232
78.4905475634468
78.4166021687593
78.3492249874447
78.2492586207123
78.1281206149996
78.0067395557062
77.9240523372118
77.6974129064228
77.8496582990171
77.8926532579158
77.6619304180275
77.5731773747245
77.4558668013261
77.3479644258322
77.3359966780786
77.2586028128843
77.0967604079533
76.9309518485696
