1798
3999.43349933624
650.420452594757
1
128
4
95.0702336960301
95.0256780952405
95.0749112650719
95.1491875720127
95.1113966904462
95.1689797422894
95.2424558246424
95.1762924216371
95.0708203253932
95.0008357603855
94.9901955362332
95.1144947420529
95.1614886071126
95.1174645042904
95.1425510598768
95.0894307901933
94.9912628306729
95.0489832043246
95.0528895463899
95.0670288586789
95.0951391590655
95.0744305832354
95.1773244103136
95.2330285247537
95.096319539674
94.9951501892277
95.0470777502063
95.206267641403
95.2713731687216
95.1746807725349
95.042786318626
95.0445893580676
95.0531948329859
95.078553296233
95.1020867184324
95.0453083306041
95.0279954403956
95.0814325894819
95.1234081595455
95.2371163094964
95.3087114028177
95.2051522708456
95.0922335063073
95.1176540930948
95.1925677983184
95.2325053891821
95.2153084672546
95.2605035559777
95.369137386033
95.4215875445662
95.3177018566452
95.1877734376
95.1414289290791
95.1039067284171
95.1056995255919
95.0805856795659
95.0396521036333
95.1512516659442
95.163161841962
95.0940770725063
95.1349497763853
95.1880470689855
95.1747798775413
95.202543261129
95.2356108254521
95.2594322067442
95.2401097520522
95.1850168227705
95.157056238943
95.1924315944854
95.2150735233184
95.1747704277982
95.1063434213431
95.1397313090427
95.2399332768815
95.3435887409281
95.3237500517194
95.1603392006515
95.0293728693702
95.0337596237002
95.0948849807446
95.2001591713642
95.3188547296118
95.376614403984
95.383178162816
95.3441441923606
95.2103074672306
95.2003891943782
95.2320915569647
95.2221216713696
95.1951518331473
95.2255380968892
95.354810815333
95.3857604304286
95.3163694432912
95.3556692998837
95.3612361904414
95.2500496229652
95.1626872015345
95.2453005118175
95.3633140943209
95.3910435559714
95.4169952168263
95.4609178083254
95.3719866985482
95.2872886400232
95.2799985625674
95.2323193105511
95.1618849395228
95.2100920124267
95.3256898507961
95.4158138361274
95.4782803716644
95.5218064306122
95.4699878413019
95.3937132057803
95.3570935433295
95.3862405213447
95.4088221401609
95.463001468149
95.5247530861434
95.438502062276
95.3664078933129
95.42819635895
95.3944521888349
95.3420049480665
95.3707800979425
95.4266304385032
95.4561951996131
95.5098012129847
95.5809303691568
95.5903814648046
95.5041945567394
95.5000391922914
95.5787277313896
95.5314433296949
95.3284257495901
95.2482761389635
95.3400339827025
95.4453888911701
95.4402103232106
95.3150607749311
95.2571486370626
95.3574925029423
95.402192627731
95.4690532417021
95.5190659014842
95.5064569685271
95.4928483319722
95.4971425828162
95.495068214463
95.5357958879471
95.6331005707235
95.589989981991
95.4341276817472
95.446087547125
95.4708685240138
95.5772495850996
95.5948231933369
95.5140124568168
95.5505567192158
95.6710980869521
95.7260154102612
95.7313093804249
95.756589234068
95.7456501510072
95.5873257385041
95.4364829535851
95.4351202036322
95.5396978563813
95.6030294056524
95.6977706951332
95.7009894478231
95.549576146096
95.454957298687
95.3174688245218
95.1710659020306
95.2505064811716
95.3153004148371
95.3261607721618
95.4175099485553
95.5835174391438
95.6265696548022
95.573271911274
95.5654292398931
95.5478213369701
95.4630748619555
95.2957250321089
95.1278833256012
95.0395649848011
94.9139229740503
94.8679085445748
94.9893589365224
95.0976210959882
95.0810670467167
95.131430413989
95.1549376345049
95.081265585365
94.8851276101199
94.6544072570947
94.5215288241786
94.5787724076016
94.6895873348202
94.6798940967224
94.5781039782211
94.516758792235
94.5107550334506
94.4781410013361
94.3571261644486
94.2594693628388
94.1613023340331
94.1252284978312
94.0160500678758
93.9092396283778
93.9490983870436
93.9970936567918
93.8978778109941
93.8216286601957
93.9392276266843
93.8779637675346
93.5667631700292
93.5287285832452
93.6170017372899
93.6486479774683
93.6088730657287
93.5035926740269
93.4240822559013
93.4104952757253
93.3508475477608
93.320732552976
93.2864515572032
93.1568618467457
93.0103736404774
92.8757079093568
92.7549238947274
92.7044115170593
92.6968492735141
92.726937529737
92.7433667414335
92.7271535008883
92.6736200428568
92.6067421541825
92.4475796554553
92.3367129209527
92.3349962965365
92.2722583354119
92.1344234602066
92.0952454819374
92.1158484867039
92.0708694187875
91.9353699124246
91.9066670828472
91.9162058816609
91.8559011442794
91.797499900277
91.7194807841082
91.5694543886727
91.5494253806233
91.4482096267587
91.3914186904485
91.4520079801613
91.3560351594516
91.2123177353414
91.1189988565135
91.0726185231812
91.1592597408291
91.1483708212282
91.0149825546721
90.9350697070755
90.9213738178204
90.8182869334162
90.706645758264
90.5615634060238
90.5172054976937
90.5500355368508
90.5306159516742
90.4630252070113
90.3547252462079
90.3037491093834
90.3813816560894
90.2834000291565
90.1180069712951
90.0206435533731
89.9590661913626
89.9062262419645
89.8894476353266
89.9054688369314
89.8198170215839
89.6502539933721
89.6013617190839
89.6287546053264
89.6319179252953
89.5654851583108
89.4884546634985
89.3737592317824
89.331107891474
89.3107019198163
89.193919289508
89.1090296359166
89.1448371862674
89.0996439996329
89.0415132470259
88.9679771746044
88.8517791036467
88.8115258943891
88.8200724267984
88.7533860833706
88.6799905645481
88.5773947408385
88.4836303371833
88.4067280599539
88.322571860885
88.2619731006091
88.300775144272
88.3089830112092
88.2825240974285
88.2306524752627
88.1778020222064
88.1664057076145
88.1209482976718
88.0144816432263
88.0410842933323
87.9904661084234
87.8868484110495
87.8637322269266
87.8502815374447
87.781937831126
87.7716576982195
87.763398191538
87.7064029020422
87.6562706966805
87.6770607221646
87.639830329218
87.5998279619192
87.5414666835058
87.4351861608915
87.4210779673945
87.5193269476105
87.4460281743363
87.3116335206426
87.2621065682819
87.2754149043539
87.2726989887031
87.263224506854
87.2426835851764
87.2167834147069
87.1289616186362
87.098329541474
87.1569861615366
87.1560995963505
87.0752536775093
87.0913828992356
87.127424244147
87.0371084817812
86.9065104922485
86.84744948214
86.8288252129897
86.8910749814352
86.9730698591423
87.0136681099208
86.9939454246009
86.9374668696197
86.8626880330577
86.8625754191148
86.8817723250497
86.8603455805313
86.8322572445853
86.8275454242705
86.7914752551383
86.872658651757
86.9563562039245
86.9024252762861
86.7588539808271
86.6665750461659
86.651448660981
86.7208851093376
86.8029258492288
86.798336843231
86.7447459490874
86.7421601245386
86.7029438333296
86.6542795494337
86.6860427623911
86.7626546273769
86.7822421322726
86.701301706972
86.5973993693819
86.6105929111373
86.6205480153171
86.7082785203248
86.8105265772815
86.7631243682056
86.6709645817996
86.5870838013281
86.522253890876
86.595503093309
86.6259775212272
86.6489710800949
86.6809384537297
86.6347490169979
86.5711388833872
86.5666803089541
86.6254549767115
86.6994535845851
86.6350081302312
86.5260581142854
86.4956808086113
86.5499707786334
86.5792679633424
86.6614394667916
86.7286849329637
86.7380032542889
86.7254120903316
86.7146431700137
86.7154748669357
86.6786748532108
86.5418813835849
86.5526210902118
86.6125670176547
86.6503868408059
86.5712144597689
86.5689052808004
86.7382153479775
86.8132426730285
86.750129980774
86.6864805820974
86.6999696936282
86.8071001560778
86.7858741025435
86.7138868818312
86.719167122057
86.8261471444684
86.9267800922484
86.8688515566667
86.765861534258
86.8251820945276
86.8646134703147
86.8685326224663
86.9000397861965
86.9871071329064
87.0447749145519
87.0651030510893
87.0766659704175
87.1270902833629
87.1345190283621
87.1411551206648
87.1601831629518
87.2001896396782
87.248428513956
87.2560982100348
87.2295786412119
87.3053928183834
87.3532181760368
87.374720357039
87.4170809323646
87.4643625820255
87.5196475437214
87.585159036762
87.5708721202164
87.5633774715608
87.6211656777095
87.6886993299205
87.6876491719608
87.6979688875877
87.6220035845158
87.6190008189351
87.6969416261106
87.7881331338268
87.8195390528318
87.79820160536
87.7889894881371
87.8644878531856
88.0127019045289
88.1014011317135
88.0850558892677
88.075038045561
88.0421695249853
88.0630462014048
88.0781735641662
88.1082057260176
88.098153835736
88.1008183721869
88.1545513687811
88.1747669963031
88.1517735341999
88.201008513676
88.301619321944
88.3781271776252
88.3702114726824
88.4460658206943
88.4873306038848
88.4815247233894
88.5181170996977
88.5703090929004
88.5808316122034
88.5537092939685
88.5488890157356
88.5740900656868
88.5496927879538
88.6273741340686
88.7451309083664
88.7496127950122
88.6960257735511
88.6998462739125
88.7502400275337
88.823003025783
88.8462562318677
88.8655348720511
88.8200045296858
88.7608563324551
88.8222229572303
88.9537936491343
88.9549450146714
88.9770134471
89.0946479728241
89.1261770234374
89.0632334095788
89.118501931287
89.2212999570768
89.2315962040015
89.1757234651295
89.1672557448699
89.2254758292653
89.2584268736586
89.2475875602066
89.2884030717844
89.3261756092576
89.3560735616461
89.3564695655472
89.4036079070827
89.4534056353346
89.4447899843645
89.4181530708388
89.4289443750646
89.4389878762879
89.4227774108551
89.4357313932617
89.5077662145591
89.5633624736817
89.6078249146204
89.5219229071179
89.4126723649113
89.3939635185643
89.4134942835335
89.4188196804168
89.4211048121166
89.3922457082498
89.2837228707915
89.2364650907134
89.2727606436853
89.3019630081265
89.3373659469108
89.2667248530794
89.2020775001263
89.1573402707826
89.128117672687
89.1739531778842
89.1961032030148
89.1615611079795
89.1409548763348
89.101267971908
89.1262733448574
89.1204521908384
89.1072260072389
89.1094756675646
89.0824818669969
89.0509742067688
89.0093579591276
88.9865182515994
88.9590496911421
88.8982763401525
88.9019375510745
88.9076465434814
88.8963182592296
88.8907751441018
88.8385448870278
88.8000632413557
88.8511654154595
88.9348715154522
88.9913786432874
89.0024040603714
89.0608430871025
89.1280780921406
89.151345437363
89.1627078660273
89.2097384905851
89.2770981983418
89.3507787152032
89.3550978457266
89.3909353167378
89.4837716256261
89.5519812780704
89.6029406751937
89.6110863635946
89.6274327339017
89.6840509124374
89.6882730413541
89.6954076998806
89.68532609564
89.7011950492197
89.7442104181475
89.7732563719957
89.8016878388218
89.8239474043632
89.8105955144558
89.8536393489391
89.8770874654522
89.8805385653507
89.8952542408421
89.9495580544994
90.0174091604459
90.0226588496255
90.0019217629745
90.0262017557113
90.053432281589
90.0504208912823
90.075069544343
90.1687123314687
90.1962472706314
90.2358131631555
90.2929477074027
90.351111006938
90.4613527089653
90.5054557918899
90.4493503216309
90.4821621621542
90.5652515203103
90.611891735617
90.5687109446091
90.5409046995522
90.6051240930269
90.6745641822828
90.680159252266
90.707939425534
90.7440135882789
90.78728911412
90.7933311905882
90.7688472546817
90.8255389967748
90.9436563532997
90.9917597904244
91.0168429575155
91.0090251408565
90.9690687250355
91.0033734682294
91.0563995699592
91.0519382072813
91.0582700272722
91.0547218323859
91.0587155486557
91.1125433836991
91.1810836909637
91.2069368367093
91.2115277848698
91.2027251785646
91.1713257214215
91.1838045118312
91.2262543865153
91.2671701217026
91.326436206185
91.3254098332935
91.2942642415651
91.3020361251282
91.3592984544117
91.4133162084763
91.4378646542864
91.4307938531844
91.3711297047311
91.3330626050697
91.3638056548589
91.4418943231204
91.5163231371327
91.5261621663335
91.4999243745218
91.4766653870728
91.4841039636691
91.5051926287403
91.5308343697803
91.5402242694032
91.5695976864553
91.578460211888
91.5852467693422
91.6119468960426
91.6490818158806
91.6802291326929
91.6878887018437
91.6667901344991
91.6398352322822
91.6463379508569
91.6849074423473
91.7055547036977
91.721917402699
91.7413174985197
91.7513427933023
91.7588918858154
91.7863566871846
91.8280237805244
91.8289115307637
91.7970494142829
91.8107013740942
91.8221495253585
91.828944317415
91.8831401347033
91.9224639080474
91.921236062508
91.8945842464673
91.9037018516567
91.9152390542632
91.923228630947
91.9778140295561
91.9825802369275
91.9752541118763
91.9701372232258
91.9753107833162
92.0406331967325
92.0839725327454
92.0225006061268
91.9800622879018
92.0085087808157
92.0332506548735
92.0218528726571
92.0391160484662
92.0608248977261
92.1049451043772
92.12374322262
92.1355012283901
92.1521167596744
92.1573626218079
92.1888583350258
92.2210657913299
92.2299107855965
92.237040926611
92.2854098019996
92.3374714624656
92.3312129831733
92.3396946958563
92.3566041606336
92.3550867392815
92.3666077754529
92.4230644142217
92.464495889138
92.4833234341902
92.4998790274015
92.4983306898271
92.5204156065305
92.5575845369647
92.5739050380641
92.6076053287604
92.6227889590797
92.5883295728325
92.61342889376
92.6829616941777
92.7128067584202
92.7238099901887
92.7335603203534
92.7211464297992
92.688712869236
92.8076166704084
92.9010848489559
92.8809958464292
92.8899964643896
92.8845511631086
92.8606323097631
92.8735473218107
92.9282194756735
93.0015092606348
93.0372746864578
93.0230126623572
92.9788914778119
93.0064458145399
93.1085514301709
93.1031195719231
93.058491622912
93.078003483949
93.1130858966037
93.1188394333326
93.1083161700011
93.1564304068675
93.191670325505
93.2091631584767
93.1881116415151
93.2023453172632
93.2180925665799
93.2246096641019
93.2275088687626
93.2128175199679
93.2683701476074
93.3071185425031
93.2644718905715
93.2990732332816
93.3228686773157
93.2253105369249
93.2160351583907
93.3151983008767
93.3572471639652
93.3948815812354
93.378749637808
93.3641807883522
93.417136980394
93.3850064211043
93.3105753325012
93.3345091260376
93.3633401172007
93.3656445887071
93.3460178197402
93.3747615380123
93.5301237556991
93.5330059443425
93.3843829750793
93.4014906931252
93.4650777942528
93.4887440967894
93.5059513220133
93.4930619718903
93.415439207344
93.3756062765059
93.4345942801859
93.527748179184
93.5504991900782
93.5048361683336
93.4524628807638
93.3917239002628
93.4035800529869
93.478564968676
93.5314783839894
93.540851180917
93.5681301258817
93.5284744288766
93.5318050769177
93.6007941143631
93.5896780085749
93.5592198270252
93.5795824540521
93.6355422628157
93.6506053815802
93.6445377740078
93.613177264018
93.5603004526302
93.5666079520291
93.5814695715948
93.593472715065
93.6597122621434
93.687634156448
93.6269555643735
93.6631139952009
93.7239139994025
93.6461523810894
93.6739030336103
93.740677046678
93.6968044684167
93.630515496231
93.6645266541659
93.7136141918593
93.7086680357782
93.6972896279263
93.6594557189009
93.6047880604608
93.5836555530522
93.6574399128505
93.7821703148261
93.7680710392234
93.6101687717042
93.5248750596072
93.5311509534143
93.6025168692143
93.6889591776402
93.7112941607487
93.7045187785718
93.7350112463556
93.7416941662178
93.7587430679454
93.7628403568669
93.6996136185721
93.7078108456945
93.7757606346064
93.8154543950846
93.8266295562801
93.8283929935097
93.8665011680201
93.8609979960601
93.7884327836946
93.7233633875204
93.6822079503141
93.6272598120035
93.6565357036643
93.7600571214783
93.7848065683554
93.7307947184622
93.7526617135436
93.766654229972
93.7314726089026
93.7136916168542
93.7142412975986
93.6938888806556
93.6871983416516
93.7440532287774
93.7816516696224
93.6952520543144
93.5520795575736
93.5232891836356
93.6156147273423
93.6295819731535
93.5646667788752
93.592963574093
93.6268863138114
93.6553925399914
93.7308367463557
93.8175932534498
93.8775322204041
93.8524102820173
93.8044861935377
93.8015929893986
93.8542933571181
93.8943965181603
93.8943284546899
93.9228426969006
93.9391259011808
94.0090403523665
93.9963205485544
93.9742163205006
94.0223106720216
93.9901501426968
94.0295899863114
94.168014406864
94.2959896750238
94.3276503378781
94.4797121875352
94.6130647747218
94.5993572109079
94.6749497865333
94.6779774796341
94.65358505712
94.6287098706299
94.5471621188633
94.5595212818256
94.7151359016048
94.9556401405135
95.047273403843
94.9648359455755
94.86702192199
94.8740553297161
94.9181719440667
94.8879839732021
94.9169011208472
95.0890494414828
95.1616148481515
95.2659091013365
95.4802250465354
95.6138994935704
95.5462437000471
95.327434284635
95.3927926341258
95.6125963284485
95.6041063507551
95.666144753914
95.5987178777007
95.5089725269299
95.6318309161944
95.7538336532668
95.7326559547409
95.6805911742751
95.7903464397349
95.7284759343336
95.6099059253886
95.6365442048501
96.005421415417
96.3306747343776
96.2275022842413
96.2508299867645
96.394819660538
96.3974209218264
96.433853862581
96.2709087263976
96.0248031176352
96.125491994166
96.531209716402
96.9295420236674
96.9549912046236
96.9277965058243
97.0891431930287
97.1806800067331
97.2540716127169
97.2799484515615
97.1817886824047
97.4042916715061
97.7226413215081
97.8699023337524
98.0017134837527
98.3451770876446
98.2427060655223
97.7618455615298
97.0428817727293
96.6063024895736
96.8704134512938
96.9597279748473
96.560975704035
96.5792823250497
96.7498700284583
96.5731991655281
96.2690911211506
96.133477149502
96.0989846571388
95.9792972093833
95.6654575541424
95.4147798574947
95.4744412368737
95.5710255107106
95.4166634984124
95.298551471637
95.3380542315955
95.4091936588008
95.4210046074359
95.3378289068669
95.2894392181855
95.2948155407986
95.3887260063302
95.5422072530008
95.4673079653575
95.3751490954374
95.2592467871009
95.2544915330981
95.3374995584139
95.551329642919
95.6204235331221
95.3819190480216
95.3277390449543
95.5103306219911
95.6313580795946
95.6460868395978
95.587473734125
95.5944858075414
95.6424991417053
95.7797106630901
95.9201886123372
95.9439322076369
95.945360886862
96.0444833322869
95.965993905457
96.0142326731087
96.2064492702298
96.1200425389767
96.0350551428376
96.167044686607
96.1989308800794
96.3462111183073
96.4859244077918
96.831259351496
97.3006643753221
97.1783058970694
96.9776156978668
97.2053080566148
97.3941768058346
97.5508161790005
97.7408326270359
97.6357791129389
97.7420996977301
97.9102204077436
97.7438272934849
97.7783806268216
97.8821616812054
97.8252862084888
97.629108166846
97.9787148698947
98.4561131798712
98.2713504521228
97.6405173695509
97.3038590204424
97.1361717329741
96.9047413742714
97.3447995968797
97.7170226354523
97.2503603961873
97.0846249386036
96.8988349880676
96.9509585971898
97.2852611165755
97.3685103088912
97.1197979069604
97.2187150016958
97.2890518878083
97.4757399464286
97.3789677994951
97.0732817785519
97.3243299249799
97.7911200717077
97.8619453613233
97.7540662294143
97.7776314405647
97.6723493675955
97.3811672623627
97.6124403008405
97.5776647732566
97.1938849934249
97.046218120448
97.1066937924918
96.9497750550372
96.7239878184843
96.6590525485326
96.7854237048913
96.791355541932
96.8135880573659
96.6852605752267
96.4333634025085
96.4148049785822
96.5411579601693
96.484849658695
96.3898792885074
96.1540292158199
95.9598019822239
95.9177455266274
96.0494900297264
96.1455719159475
96.1385364189398
96.1025774786951
96.1163726269368
95.9639248285236
95.8908906686567
95.9339612452575
95.9591847135967
95.9225766701961
95.8639683599798
95.8123336097361
95.8920902561504
95.8588534207361
95.7781534542895
95.7815889409942
95.8497692730319
95.8925128148808
95.8252041671309
95.7484018803553
95.7465367619955
95.7644849228788
95.7914470215405
95.7729239093241
95.7232815402389
95.7426887422964
95.7812755348943
95.6857342237195
95.6636160844443
95.7674506411846
95.7727236280972
95.723345561157
95.6334046127524
95.6149957578008
95.6918338539003
95.6905901804666
95.6461110818325
95.6336016546801
95.6920803112505
95.7319082736387
95.75877702224
95.7708644270652
95.747533809039
95.7550789248418
95.7787084197749
95.713195603829
95.6987891260779
95.6930049387116
95.7470661027659
95.7898221973426
95.755367990885
95.7342526820043
95.7234729374309
95.7297890322045
95.7459185306573
95.8122235797161
95.8236162538005
95.8012472827547
95.807803294712
95.7986263577007
95.7510338325227
95.8002964685285
95.8708772540254
95.7963062662442
95.805532399936
95.8364292203485
95.7934707241891
95.745057377762
95.709772976945
95.6703896364146
95.7070904858847
95.7454077102969
95.6947832045652
95.5925411112687
95.5302004815355
95.5526877770822
95.5483133989762
95.475889464622
95.4131943452715
95.3876310969842
95.3002864004039
95.2393413188356
95.2441235792208
95.1481591882228
94.9923651545684
94.8626500570714
94.8487148745452
94.7732873427294
94.7358745686148
94.6828111934372
94.5652906982218
94.4780812227839
94.4651245436403
94.3792081238624
94.3540311709707
94.2686582487612
94.1050961647924
94.0617069282991
94.0530516958519
93.9992745757721
93.9571748432642
93.8940356168126
93.8566633042213
93.8422262008698
93.7529651376651
93.4632106083325
93.3877748340092
93.3892874189968
93.282901225279
93.1905145769428
93.0955647553289
92.961919832712
92.8320588077404
92.5991149179122
92.2637748580811
92.0501269994981
91.8914580044525
91.7533129130367
91.6525458386607
91.4585873569582
91.1957135663557
90.9736383305956
90.8425188714437
90.4827103934928
90.1728160128814
90.0584024863311
89.6631564352884
89.5683406613954
89.515599697504
89.2863987533361
89.0359569082036
88.7070141995291
88.1822076343879
88.0130671778819
87.9404926417793
87.6791879258039
87.3903975363456
87.0181724731443
86.8288697384977
86.5230578029002
86.1111524218498
85.9616936045306
85.8197781043192
85.4762894519203
85.1543603478893
85.006276866059
84.852217019819
84.569213411619
84.0912435874248
83.500011270097
83.5763758508694
83.4481713178954
82.9566435868773
82.7194114312264
82.7153861593468
82.5337210029285
82.2332328524161
81.8647775724908
81.3540046834994
81.1478229326567
81.179406734821
80.9609561599354
80.6529787904752
80.3974451032603
80.1295166678558
79.8064727976033
79.6746279080816
79.4688215779862
78.9920854726605
78.6642337210348
78.6369859772867
78.4134241831107
78.1338490113349
77.8744935603543
77.6355126708136
77.3642667348745
77.112327052626
76.901302775111
76.6986378586224
76.4566070951157
76.2210731569341
76.0205843868459
75.8467125932094
75.6750069133127
75.5318484311357
75.3673586350209
75.2313546263864
75.1198724261693
75.0051520939977
74.7973303816961
74.4541916682855
74.5410376209837
74.7282635887561
74.523145988968
74.363198651699
74.5427470420833
74.6577897981926
74.6973720644633
74.5129378329917
73.835187269807
74.1236626876328
74.9845623418955
75.203938366176
75.4036407730683
75.6234754760508
75.9008213107406
76.1632768668031
76.2641564581872
76.3703978653071
76.3854464114782
76.9426516086223
77.9113192285187
78.2394792051344
78.2730205607161
78.7773916523183
79.2232401855756
79.3905359476732
79.5897769360343
79.889653999105
79.9625828040851
80.2542595892708
80.7793358015656
80.9669144255238
81.2706133058776
81.5535904743568
81.7203992860557
81.7000338988247
81.440695641828
81.9753823511834
82.8575841998433
83.0817684560407
83.041507143751
83.0480677279068
83.2827634580783
83.6965966839677
83.8253024878365
83.6886809903759
83.8172355363756
84.11899218185
84.3606771438192
84.4717513614179
84.5142474138339
84.6024000236377
84.5852482260827
84.4580983222239
84.297016567765
84.1989350125159
84.3881202684599
84.3379128016317
84.0350013447966
83.7807483363863
83.789962535721
83.6467761318
83.1809999261291
82.6815077915099
82.7963815785524
82.9074543562192
82.694245530535
82.4418827579375
82.2244982400923
82.12186087631
82.0150011437484
81.8482417465337
81.6723026625302
81.3666408355374
80.9518965121478
80.9655875788721
80.9146341744089
80.5889159318004
80.3070000589448
80.1096965250579
79.8149844621708
79.4952480536128
79.2141687360689
78.6995180374267
78.3090759894676
78.2041053270379
77.9381426216055
77.589328707937
77.2574484172871
76.9716504468107
76.6754603006526
76.4104984473834
76.2681315528831
76.097902201893
75.7904956460082
75.6275595139972
75.4937219997077
75.4530412882642
75.5366213460309
75.4897726436076
75.2928599576393
75.2254208213366
75.3511314567449
75.3781829314911
75.3668246592155
75.4188079911117
75.489503236372
75.5034161933726
75.6247089647469
75.8649345623153
75.9829555946982
76.1234156616303
76.2969036526025
76.3688525143911
76.5233267716466
76.8485899624935
77.0790182547999
77.233151685211
77.3965098273548
77.5964346188556
77.8097664942769
78.0255055419051
78.2196388805944
78.4179113200063
78.6032738080443
78.7298524552849
78.8604392714061
79.0923256182126
79.3291418822682
79.5056497664941
79.6252833440967
79.740049696415
79.8623983319562
79.9824382120562
80.0704265057774
80.1450692483851
80.232038016505
80.3089212319241
80.3983645816886
80.4908108069242
80.5514173092489
80.6335338152607
80.710770900613
80.7710699856871
80.8485166861239
80.937345670079
81.03919887862
81.1345949814591
81.2233375414367
81.3357728037645
81.4385256378283
81.5391789532853
81.6101642112857
81.668786096494
81.7625482070617
81.8611386826972
81.9380234585585
82.0028041803279
82.0573917263598
82.1133554069589
82.1506256910161
82.169973343379
82.1811096967005
82.2151436684081
82.246185083237
82.2612598087926
82.2863669524845
82.3001682282798
82.3045154603945
82.3484342497852
82.3948177400972
82.4320479453967
82.4595914111721
82.4805999924486
82.5103878466028
82.5431566395369
82.5756079309514
82.5896628156241
82.5945479291087
82.6133647264675
82.6432322479101
82.6729574152655
82.6835335216909
82.6864599769254
82.715382182088
82.7465913982695
82.7602245345545
82.7847448588482
82.8374676810523
82.8951833356485
82.9302338486556
82.9869450019566
83.0445357940232
83.0902129930648
83.1680917651177
83.2354091149516
83.2947970671877
83.3759419401258
83.4500570746941
83.5154525445929
83.5830664416093
83.6559205885022
83.7386472929785
83.8358569964087
83.9221354826397
83.9974995595369
84.063271530932
84.1262939992774
84.1790667057404
84.2163076051277
84.2475241828426
84.2658698695625
84.2920586909801
84.2902768711158
84.2563317618031
84.2199958082327
84.1843058899516
84.1635532146298
84.113658757225
84.0577321095707
84.024357602525
83.9834203608862
83.9230089317257
83.8809726642781
83.8295090045295
83.7596242461905
83.6787096419356
83.5936688987369
83.5194872932287
83.4286199224441
83.3328533411828
83.2589060068231
83.1588311781827
83.0668432731786
82.9705628799659
82.8504233122276
82.7445587391338
82.6116568060404
82.4689974795734
82.343913119679
82.1955520025116
82.0940182958353
82.0003851573975
81.8656811389483
81.7507760577292
81.6762635175025
81.593177511002
81.4746287395431
81.3701500668826
81.2711156840472
81.1608181867724
81.0355161816209
80.896628971559
80.7452564963127
80.5404571776638
80.3437179221028
80.184179035978
80.0208205100178
79.8415700661997
79.6662126894353
79.504069348613
79.3405604123849
79.1702393008786
79.0021706773024
78.8268360409117
78.6758346910546
78.5333887202676
78.3783149188001
78.2079826681275
78.067545474936
77.9133168805675
77.7292569572425
77.5551733151672
77.4109910776224
77.2769981458044
77.1542417883544
76.9907359450088
76.8196830809749
76.6619842213929
76.4803060591857
76.3344812957589
76.2559328132641
76.1702739710444
76.0547706804131
75.9468388938699
75.8717069311892
75.8266440571961
75.7748157350222
75.7055281429406
75.6916155125831
75.7242530197212
75.7327967478099
75.7638591359425
75.8260848984011
75.8831910599304
75.9392095398835
76.0048652382013
76.0976208381166
76.2328416981436
76.4137488046673
76.5589886295258
76.7029545963051
76.8929381922077
77.0787802247545
77.2629153023088
77.4878711471458
77.693236959452
77.8817057343905
78.0773519423276
78.2986255257777
78.4933695902703
78.6760697054762
78.8850849922721
79.0859527837513
79.2459925149976
79.3894277954403
79.5466071018889
79.690206343675
79.8212102280384
79.9771053539926
80.1486600923685
80.3091079949063
80.4340485029378
80.5760418464305
80.7560878751017
80.9244767811656
81.0795889494516
81.2095170175187
81.3574163624509
81.5470711764369
81.7001154123286
81.8163183381406
81.9291375899475
82.0666131451801
82.2134419290799
82.353923008574
82.4692417569768
82.6000979104666
82.7162832734424
82.8118471397328
82.9324853135728
83.0668310248132
83.1625756747469
83.2683983104604
83.3785454683423
83.4730062325615
83.5473459241285
83.5995458669165
83.6905267704904
83.792515419929
83.8167752542846
83.8741028823758
83.9679814685036
84.0369565086893
84.0853725671189
84.1292448770713
84.1813182190783
84.24175580973
84.2960137526233
84.3693366904017
84.4455344848611
84.5021949682936
84.5039964364024
84.5241747272508
84.5931616374862
84.667221961204
84.6885152322516
84.6795735020513
84.671393007933
84.6810513736183
84.6733494509523
84.6811544801385
84.6864757413761
84.6947235751121
84.6501266016148
84.5732455834481
84.5379855827401
84.4977071269452
84.4497398453854
84.4388587446602
84.3922889226727
84.3610758156009
84.3864286180359
84.3872506101531
84.3655273631493
84.3838699749803
84.4114176978658
84.427989226713
84.4136021172156
84.3710395463209
84.3382767626402
84.2841705852988
84.1730876656673
84.0307354977361
83.899314671781
83.8085907785111
83.727486282266
83.6422554559381
83.5718092538431
83.4897920374586
83.4053108482013
83.3375369265115
83.2435293831376
83.1707489843431
83.1033546992438
83.0426698525327
82.9667023605406
82.870471227622
82.7610765495807
82.6383914849381
82.5390677122247
82.4607829724305
82.3843818423936
82.2960938452929
82.1983703459481
82.1370891329057
82.0819377871274
82.0299309380804
81.9307219053487
81.8252605616679
81.7927259283654
81.7454601774644
81.6729075549296
81.6254616999538
81.5486991717556
81.4701725264216
81.4774670074456
81.4875151026431
81.4093794695516
81.3923700524721
81.3631834201623
81.3012059043608
81.2440147243756
81.1856620712366
81.1743774100205
81.1645857595226
81.0872705815584
81.04744623632
81.0502328912271
81.0071080063519
80.9277075560515
80.8899244990736
80.8626265238268
80.815424743246
80.7475409138463
80.6620575693961
80.602626348096
80.6009025179522
80.5584159886056
80.4952723774102
80.4272208885506
80.3582104057655
80.272752371221
80.1715661627867
80.1061808004715
80.0639685210961
79.9536248888388
79.8494202163279
79.7593008725957
79.6733377057762
79.5745641110986
79.4504045532705
79.3563880332079
79.2948850411106
79.1926297141088
79.0560520154704
78.9546555996892
78.8420147011179
78.6719024989382
78.5856826103617
78.4753892134664
78.3786985647449
78.3334561366317
78.2592730337594
78.1786484697292
78.0972600145544
77.9993471803789
77.9557819883797
77.8752591852853
77.7869923178461
77.6725662255297
77.5926610626339
77.4800368349118
77.4769682839509
77.4249620251615
77.2826820581471
77.0245234818634
77.1316917492535
77.1869389983874
76.9528360779974
76.8486860833263
76.806491383702
76.6481961511772
76.4900914268353
76.4133094916888
76.3456188874571
76.2583207829096
