1798
3999.43349933624
650.420452594757
1
128
4
96.558491401293
96.2611839046523
96.0351900788337
96.0697270524062
96.0979579577824
96.1406754756765
96.22993413121
95.7664549734099
95.7545228287038
96.3442250152009
96.7533780970529
96.7272435523746
96.4085142121235
96.0974316283383
96.0949689572049
96.3330124927501
96.5900260119362
96.5797154380438
96.314708604405
96.1305645453992
96.0522263982717
96.030852789368
95.9357563786283
95.850469801497
96.1153406273594
96.290322269734
96.1433121837022
96.4759223105545
96.5504307575256
96.2364965842397
96.0877829591279
96.1996381580372
96.2690989079153
96.1792898860808
96.1566102445035
96.3662367208895
96.4462632809751
96.2992970043373
96.2526984660232
96.4215685835331
96.604923467176
96.5176372342188
96.3704617018236
96.322144388387
96.2548699275953
96.2871774438491
96.3702395950578
96.3266786066926
96.2270111420409
96.3060619021191
96.2716393982184
96.1760590183313
96.2747173484854
96.2910197601878
96.2609084849684
96.320416559957
96.3120406430666
96.2638845824319
96.2999470167949
96.3934447813316
96.3070569197033
96.187847158191
96.2127407178502
96.2756940950723
96.2611563785539
96.2603053308829
96.237453169472
96.2201406971611
96.1894217555464
96.2019154120568
96.20178970827
96.2448281696923
96.3512170743858
96.3394594441842
96.2863632295542
96.3119392672142
96.165774080684
96.0460078129754
96.1282943597816
96.3238762941508
96.46946082341
96.4713122282753
96.4410114570432
96.3436237923994
96.1781322136534
96.188342747091
96.2853336246799
96.3061060681917
96.2522438998567
96.2310637400078
96.2607553218683
96.3355700266038
96.3724074000817
96.3879069030596
96.324948670692
96.3005984025584
96.3061064416252
96.2872148662724
96.3686918459834
96.4770180719906
96.3993771917268
96.2707962871715
96.2429006311671
96.290650480921
96.2196477904657
96.2194360130279
96.2792226695369
96.2577642401542
96.3533109926711
96.4575928347454
96.3936739875824
96.2991987268915
96.2447037408769
96.3097714691574
96.3772015729928
96.4048172835707
96.4470431653699
96.5107920157536
96.4994584189451
96.4798296929765
96.4161632858657
96.3647007186578
96.3443774406246
96.3243024687165
96.332498636181
96.3691244070696
96.3731507121569
96.4109686423673
96.5073035974255
96.5888394434299
96.513106656472
96.3599750252284
96.3363087279854
96.451789623155
96.4725137449255
96.2721645518345
96.1863737233159
96.3416234808924
96.3633163628508
96.2551782483344
96.165247380647
96.2593122863771
96.3142045100098
96.3557917146799
96.3002226078488
96.309679304716
96.4400689512554
96.5226658590317
96.464090527521
96.3878838399027
96.4099564411925
96.5537363078958
96.5948353027241
96.4696729547291
96.391385654228
96.3870038742278
96.3218921238374
96.2792643051505
96.3133904178248
96.4331242611126
96.5353623040605
96.6436959827892
96.6257874127799
96.4288822410619
96.2941001223323
96.3554481473013
96.4891735581572
96.5576410903048
96.620798342007
96.6076692936258
96.4650335705062
96.353343053697
96.3144799956916
96.349824825159
96.2512132479486
96.3095434643565
96.4665350333035
96.3983586968945
96.3798083231238
96.392193686425
96.2537594624145
96.1892665820223
96.2357343951253
96.2630876244944
96.2937002413479
96.2535481511136
96.2115796413483
96.2122093022694
96.2560915149535
96.2686941171343
96.1005282669058
95.9906478796317
96.0255249130704
96.0888891774998
96.1684015122769
96.2351368857247
96.1394425647309
95.9549312387003
95.8958875954699
95.9802575360876
95.9659939007986
95.8675451868299
95.6951454453001
95.6069033332143
95.628815251509
95.6395416108739
95.6163398395485
95.5369207656352
95.5395199408745
95.6119344433805
95.502328728125
95.5054950871135
95.4795442649405
95.300918392061
95.2726769622676
95.2724825956985
95.2253877634686
95.3746740394902
95.3890022173437
95.2080666474736
95.0145076931084
94.8469014637535
94.8183862457532
94.9452636654338
94.8856109396671
94.8141570600943
94.8623466781055
94.8338565627922
94.7041429974414
94.6722294829148
94.649804626172
94.6587992750821
94.6649520160346
94.6113749528838
94.5878215651269
94.5490363593611
94.4112087573192
94.2594451614463
94.2555265396354
94.3614192314948
94.2532379352894
94.1141498268347
94.0554808712608
94.0127827089563
94.0067185801696
94.0244519370534
93.9615942344584
93.9531520129534
94.0261989269139
93.9661231472944
93.8657634248477
93.816391088989
93.7086625033234
93.5025495949679
93.4919588014468
93.5816977025535
93.5597009347031
93.6293570007079
93.5841238128629
93.3869224544884
93.2856539916997
93.2574337935736
93.3111601200093
93.2972548473878
93.1893914447937
93.1352572572013
93.0416772524336
92.963937894699
92.9687468542971
93.0223747801698
92.9839568762435
92.859492813766
92.8599679744585
92.9212078422414
92.9030182743375
92.7522897643519
92.5764089492365
92.5209045127977
92.4748240026516
92.4246507085081
92.3320210881966
92.2428263781828
92.2203470702279
92.119193108639
91.9877923558843
92.0096994080186
91.9960775856792
91.8885048970098
91.7819702587786
91.7587089418017
91.7336795704509
91.6189694542177
91.4981118820629
91.519976401562
91.5042371007624
91.3930255120246
91.3316783774745
91.2647537454532
91.1117807514522
91.0031363920487
90.9113220109149
90.8060005714052
90.7911798450638
90.8136861106603
90.6833452216492
90.5317890869894
90.4493270954275
90.4541636493599
90.2938531066966
90.0489748525481
90.0259866916678
90.0098243080849
89.9476333172991
89.9843831587033
89.9225024358693
89.7872186376694
89.6328789651859
89.5241156508269
89.4711229206935
89.4515255493262
89.3805098551084
89.218571327108
89.1591002118225
89.1423568760718
89.0627725884877
89.0534332237161
88.9966805544781
88.8736607202107
88.8188430102386
88.8402641970185
88.8633293852515
88.7732884264178
88.6703135178339
88.6961497996672
88.736190019245
88.7362426119188
88.7011843930099
88.6669688623965
88.6702728443331
88.7157861954555
88.7274499619366
88.7380093325297
88.7672418483763
88.7098425466974
88.6404390454494
88.7403469940567
88.764014332795
88.7807197930519
88.8393918337678
88.7869759783797
88.7665397858498
88.7639270793851
88.6783236035016
88.6799987054917
88.7059551209254
88.7097152755557
88.7347742444304
88.7676719536088
88.7668327538227
88.7324435489508
88.7105696522629
88.6802507832441
88.7371917030901
88.7934663132141
88.6807913877374
88.60857917787
88.6853862815461
88.7713419322486
88.8014195721943
88.7971695008875
88.6719079163645
88.5991090047193
88.7200402883526
88.9298555771476
88.9945362714219
88.9367157604073
88.9402113924791
88.9803596150197
88.9251985930283
88.8757667338668
88.94040794343
89.0899848866403
89.1082289177358
89.086302440911
89.1679366506889
89.2536242923703
89.2071789435303
89.20952678178
89.3450205903026
89.5153281021643
89.5434357598656
89.4085578519791
89.3980342113238
89.5537717751775
89.6499092182034
89.6658284260756
89.6332189271462
89.5712054652411
89.5777792140744
89.6614645514152
89.7023045853539
89.6619137657079
89.6488037579459
89.6759292845467
89.6985827892873
89.7767573798862
89.809100594734
89.8248322136779
89.8965986009301
89.9903147502144
90.0328233851526
90.0664726863891
90.1253131185711
90.2564364878695
90.2946853017134
90.2365555604735
90.2568849732222
90.439635031679
90.5165029944493
90.4425516689742
90.4623423152166
90.582700333603
90.6479725448699
90.6834837922626
90.7084266981271
90.7467224482224
90.7987134857497
90.8304249195175
90.9241350673296
91.0327283695766
91.0781772494489
91.1308421298767
91.1075041418549
91.0766371616346
91.1027462910234
91.197832302582
91.2436467763816
91.3148483277535
91.4422331930592
91.4627678716977
91.4667286343161
91.5437536678481
91.6410542788813
91.7227074505543
91.731184891573
91.7395289793476
91.7575503530165
91.828692609739
91.8766265411566
91.9130614716421
91.9422563846775
92.0294218001192
92.1472712934605
92.1855561066064
92.1477465138476
92.0836918144611
92.123442029629
92.2790119602856
92.3314095061993
92.3437413415928
92.3646428511902
92.3793836369416
92.4224682273478
92.4992824400445
92.527240858677
92.557565943764
92.6334496311794
92.6591882179731
92.6600861306901
92.712965869334
92.7619776609731
92.7957597944124
92.8633938932399
92.9849205158997
92.9778808839848
92.9649990083453
93.0053310207083
93.052042985163
93.0813963688123
93.0436543448535
93.021151512808
93.1574230232682
93.2803763962264
93.2605023588385
93.2489682223255
93.281103672286
93.3077063686606
93.3480605959081
93.3199979276454
93.3838275189776
93.5117613540788
93.5562045894193
93.5132349643771
93.5074140066673
93.5975311878771
93.6756525887851
93.6432738127557
93.6458527992587
93.6989978612452
93.7312364112084
93.7284609401907
93.7408081698571
93.7303681136178
93.7859984787125
93.9004920296827
93.9423567123519
93.9314921043961
93.9203908087259
93.9191887486177
93.9563080978496
93.9798361508773
94.0044327974935
93.9697036053463
93.9873202211356
94.0960200587436
94.1468734862392
94.1275432426419
94.2251769943089
94.3330088025662
94.2692614566745
94.2165145555513
94.3154244432986
94.3483888390267
94.3157269339123
94.2979903964877
94.2804231537066
94.2770201155113
94.3145725949628
94.3355742599227
94.335728501979
94.3764954272592
94.4496790418286
94.4571999685988
94.4480305166446
94.4617978855538
94.4949751981449
94.5393051761332
94.5615793958174
94.5607537125304
94.627293827279
94.6641985971722
94.6227286470491
94.5908090774216
94.6280446928598
94.6488997019185
94.6932364727684
94.7559014468112
94.7761408561346
94.7764620081802
94.7354501288029
94.6626789353229
94.6783732046474
94.7687691917066
94.8035917754044
94.7880455005928
94.771437513687
94.7547332155922
94.8643679053772
94.9404755653969
94.8866558098262
94.8104451877912
94.850702139863
94.9415233830492
94.9666424254744
94.9632712814083
94.9480000625459
94.9768665956136
95.0026526920087
94.9420309221354
94.9519029635547
95.004882257362
95.0520490431233
95.0581284562814
95.0079449204806
94.9637964113345
95.0112037347834
95.0567912768898
95.1033153394332
95.141784057752
95.1455066433427
95.1502183733294
95.1801322433475
95.2167053601062
95.2310250084283
95.2260071763477
95.2460360515511
95.2044573271616
95.1924390664829
95.2617986219119
95.2574981763827
95.2111782071251
95.2430242450027
95.2699361324745
95.2599751151371
95.2638931088324
95.3097829844327
95.3402158361393
95.2999710000998
95.2432076685902
95.2708480336687
95.2688982033476
95.2547421157813
95.2806860274829
95.3534914825439
95.4195636449259
95.4392244470265
95.4586466135469
95.4810360004628
95.4147258418534
95.3441709555209
95.3689086821396
95.4754877950567
95.4845624495764
95.4148302451333
95.42482960511
95.4928304999337
95.494898330311
95.4722735453428
95.5156961062945
95.5753650075225
95.5367885459108
95.514264563385
95.5847516340538
95.6235661094123
95.5951657107383
95.5738650692485
95.5414611618062
95.5429493350074
95.5653079878515
95.5421603001433
95.5190932519452
95.5590073039833
95.5389731004904
95.5076607042839
95.54074610552
95.5560062816463
95.5389761650628
95.5789573103391
95.6131715392983
95.6095886058719
95.5675513346212
95.5203613472889
95.4931646897382
95.4960664756464
95.5014195106904
95.5083735363356
95.5042594240638
95.5022003514201
95.4849765081513
95.4544674789552
95.4008678463761
95.3975933881937
95.4239282484782
95.3916913437905
95.300485028153
95.2466979349568
95.2980982297131
95.403000140315
95.4599740581956
95.4507625156595
95.4160774722848
95.4475467357975
95.4786393129547
95.473171050709
95.4325441033325
95.3754617459241
95.3742931278169
95.401605689894
95.3639656813173
95.3696286801326
95.4242231390643
95.4405642612388
95.4449154373575
95.4181252991553
95.3484094861311
95.3134965430725
95.2803292727636
95.2594504323744
95.2715652974142
95.2864435476444
95.2823725194095
95.2795143365122
95.2913414653957
95.3909599845239
95.5028543973602
95.5535832594442
95.5820813960933
95.5938115772003
95.6288520937495
95.7009246182987
95.7008713528867
95.6664715808738
95.685889002771
95.7368006366788
95.7617318648537
95.7730459230035
95.7992428197193
95.8427837590296
95.810351976613
95.7889830389906
95.8267247041901
95.849352694565
95.8567962757392
95.8987357904299
95.9085702373473
95.8440733654461
95.8331793688376
95.9088942341385
95.947667811937
95.9809652294122
96.0034966208522
96.0014506818484
95.9929382227878
96.0139678302706
96.0270931514608
96.0069591219189
95.9827053231668
95.9517684257868
95.9320585384893
95.9408129241085
95.9494196932546
95.9631820776697
95.9626125487525
95.9827612785981
95.9992546728225
96.031778954879
96.0562688099383
96.0124915584422
95.9711489816456
95.9911140640637
96.0185630852394
96.0553357650335
96.0855076214327
96.095877587611
96.0688477944744
96.0585963234016
96.1086545845983
96.1134557635246
96.0769087257936
96.1550765761782
96.2473894311344
96.2774710282627
96.2591254928121
96.2474990275608
96.2890526999966
96.2723455277996
96.2496126168325
96.3192818768934
96.3598907297627
96.4001760450378
96.4199460117303
96.3926928416866
96.418800783097
96.4308810518657
96.3680144794733
96.3633073748511
96.4487910568529
96.5079871817573
96.4726103283197
96.4536848674559
96.4687966371416
96.4185056696758
96.3414689050585
96.4575867431239
96.6128246305473
96.6418097569917
96.5964276071266
96.5445267626498
96.555838281822
96.5989197593795
96.5680124925488
96.5800677867194
96.6570209098425
96.6536530215668
96.5946079883745
96.6223969545481
96.6608549039605
96.6436875787462
96.6420885858212
96.6399706258798
96.6626265839056
96.7481553857173
96.7593186852963
96.7792468835746
96.8266689075729
96.7613831764601
96.7025023376551
96.7921926884704
96.8554996616476
96.8126808065633
96.7287951145629
96.6808405165335
96.7433343605827
96.8233736140657
96.8132046144188
96.85114578701
96.8517828091457
96.7289323102348
96.6599952186399
96.7355210826668
96.8220126294901
96.8887226004325
96.8312536943926
96.7743774995706
96.7345094895523
96.6337949487855
96.6354970822887
96.7130254762455
96.6658384419464
96.5680094511943
96.516230855735
96.532949717666
96.5707373356498
96.5423660202764
96.4710666259932
96.4994225467223
96.5377004820545
96.5186749587048
96.5313583700417
96.5210871741326
96.5000083864125
96.5324919737301
96.5405214180677
96.5481806526218
96.5220721970807
96.5167152750987
96.5467694828103
96.5475984859303
96.5249383351052
96.5433914969846
96.5570236408709
96.5430047247751
96.575692069409
96.5403953117957
96.4462942142152
96.4603189992453
96.5350674158347
96.6112518054666
96.5508042058758
96.379956563448
96.2590692938805
96.2631399070548
96.2927578537304
96.2131736275089
96.126610881811
96.2329629888848
96.2694103751447
96.120310002293
96.0574653808895
96.0664573254986
96.0626125528247
96.063740092508
96.0305234436945
95.9855418577587
95.9327583363503
95.8310383667066
95.6252059221445
95.3793000690637
95.1438345835101
94.8916221713346
94.6931447867195
94.6510318898257
94.7261271577248
94.8480796032244
95.0051696910193
95.2213405637886
95.4432306103522
95.6565714628148
95.8752277329703
96.0435596027748
96.1831842426249
96.3699603928362
96.5249933005631
96.6160163392726
96.6551107390514
96.7541186769647
96.8585463258166
96.7931874104132
96.717512375379
96.7581914212603
96.7761456905771
96.736084983302
96.6974768324696
96.6790583292344
96.6528761269339
96.6021554689546
96.5988104746541
96.6267516415147
96.6503959188543
96.7233298291672
96.7544579578143
96.7780405680884
96.7662986028051
96.6947168235973
96.6767988341507
96.7234899732971
96.7622944635962
96.6929460718598
96.4777822589827
96.3530246524517
96.3848637648073
96.4019403382963
96.4704220402752
96.5555452868198
96.5275156746825
96.5246844361397
96.6095445179605
96.6170615263521
96.618665370966
96.6148487507141
96.5688556978572
96.5777921004261
96.5880221804168
96.6521831251349
96.7861366090425
96.7786802946486
96.6382725628026
96.650429669681
96.6812981283056
96.6717569829439
96.7732311022339
96.8845425208012
96.8863568894329
96.9019738652101
96.9352985880744
97.0339198100067
97.1602275523606
97.2131112974031
97.275431336384
97.2696016400686
97.2384774278503
97.3388003053931
97.4537304367124
97.4199400012234
97.309054257836
97.3914406061833
97.5490332505077
97.6797060526111
97.6635933599715
97.5760028463465
97.6123844395325
97.7662544614759
97.8438005071532
97.7092699573728
97.665519737279
97.8123223646805
97.8440134625142
97.8226377936072
97.8643043392871
97.9627946940609
97.9504033470494
98.0529653396173
98.2912833227637
98.1670739128946
98.0419900510757
98.3747560192158
98.6096725046723
98.3658647473905
98.194239263489
98.4325026276681
98.4562345367873
98.1818251877672
98.3028514492709
98.6190861712227
98.5496191671227
98.514261349714
98.7209922629687
98.7110691851016
98.6612152959463
98.8819262499669
99.1783488444651
99.2305003494803
99.2055350903062
99.4637895108134
99.5375818372465
99.1520849612745
98.9167069433059
99.2948639115306
99.4322027752703
99.3086900405104
99.3366868065252
99.4048284739227
99.5382488774866
99.5608353201926
99.6105356013674
99.7065614301968
99.6881696695846
99.9655692247498
100.272027077912
100.174773071986
99.9021360453557
99.4238613182852
98.8793388621126
98.9159252953057
99.0041955504578
98.8115846387087
98.7407789598283
98.7903657821526
98.6448443388366
98.3337526129546
98.2801088281756
98.3605125729028
98.1813754939456
97.9130616279653
97.8054410931397
97.8271146505085
97.752597657593
97.5528203676811
97.5849574777136
97.7670862983623
97.6581480266851
97.5126232833892
97.5463372417471
97.5174075971176
97.5283697339627
97.6071798640761
97.6412579594419
97.6803520079382
97.5605187521069
97.4202855800709
97.36872463036
97.4297828469936
97.5347763824722
97.548890368369
97.5551185976721
97.6165752905547
97.596551849347
97.6898517391198
97.7810153541213
97.617641158892
97.602932698459
97.8342268526794
97.9793673339377
97.897485656541
97.6369169058898
97.5213377084439
97.6032563351319
97.7679632265684
97.9594960108664
97.9587727114976
97.8798834017117
98.0158937053572
98.0559319206956
98.0466682728492
98.0122087847747
97.9326820963781
98.1944925519448
98.5829060937234
98.702364418087
98.8433409903809
99.0924710565406
98.92169283694
98.4490806004326
98.763315917814
99.4163961123419
99.4647426401889
99.5109133317255
99.547537039095
99.4128725396777
99.3339397373616
99.1368892733717
99.0233802796103
99.4114015643971
99.5748669267254
99.0727555355991
98.9161682521253
99.1037359032865
99.2086932042169
99.4676937285933
99.5906169449075
99.279003470936
99.1231064317434
98.8556952235255
98.5255952903563
98.4075905540609
98.6056702852697
99.0626830590501
99.1652060455857
98.9103274750673
98.7826521416595
98.9763840731343
99.0908827590243
98.936873212653
98.9216443299131
99.1219238620548
99.2598412729712
99.6522666478328
99.6523373211693
99.0579981135127
99.1254044434999
99.3971831953469
99.1113231033645
98.9405001326441
99.0286697926056
99.1310651224749
98.9395492937981
98.6365038663971
98.5457710622619
98.5376500133149
98.5022836441545
98.564286364693
98.4433853925821
98.3974162529943
98.5540421728361
98.3961984447582
98.1752367164988
98.2773179361851
98.3151306915799
98.2504366884508
98.2325948947736
98.1381217577549
98.0625656662013
98.0987421309091
98.273624207338
98.2069042811856
97.9760484198272
97.9165325366384
98.0067223870188
97.988761521156
97.9072008611836
97.9406268752268
97.9537368076242
97.9732682245002
98.0015795613698
97.981401806969
97.9352806652501
97.9339157471443
97.960736075666
97.911515426812
97.8702777993366
97.9221847518503
97.9817809548367
97.9521549806271
97.9254820759867
97.8120866459655
97.7002062848317
97.7471053717586
97.8396672627605
97.8468409712025
97.7899770555051
97.7452581636846
97.8359071556704
97.8760489917601
97.7999620378033
97.7223554883595
97.7272832423534
97.783144097395
97.7164044685888
97.6405384289769
97.7194517492401
97.8076018633538
97.8475868197087
97.8320215132076
97.8080000472891
97.7218083837221
97.6672629241944
97.6674815221825
97.7982178093024
97.8468617639171
97.7951536592869
97.7926159490134
97.7591832510573
97.6903965706356
97.7301247869162
97.7683072165128
97.7915407366597
97.7373314495697
97.7384597318862
97.8353528972011
97.8398045732197
97.7771131228755
97.778785413619
97.7804512210199
97.7409668786387
97.7606290791962
97.7853551191468
97.7832409021849
97.8119905344451
97.7833393925297
97.7085796664066
97.72288683461
97.748932561442
97.6988076971612
97.6441768932017
97.6332368126784
97.7344325905323
97.7753490505072
97.718748268404
97.6871921114682
97.7062079397878
97.6883027317587
97.658378802104
97.6533558635306
97.5739355009984
97.4907369098001
97.4743071162486
97.5616311812186
97.360130188161
96.5910244016647
95.0805312804363
93.9133050834603
94.5669248135642
95.7658119271467
96.4382325541669
96.8622391614992
97.0345596070797
97.0721333557797
97.1987930461639
97.3151857082276
97.3490518493116
97.2894708275257
97.2934172375594
97.3233803104895
97.3218064660157
97.2740874478561
97.1401648863883
97.2879776345383
97.3515567615044
97.2715218682147
97.2745373797969
97.2677689581911
97.2435596469123
97.170116314728
97.0508327695899
96.9720241916326
97.1067224020704
97.1186897068602
97.0757992632119
97.0118702613359
96.9459053002069
96.8722764271377
96.8024108571174
96.7474154021682
96.5804905788313
96.4882209646045
96.5617330788362
96.4623032998728
96.4546574866847
96.3371652393911
96.1671183377256
95.94236637167
95.7986231045836
95.6205855294674
95.6792330250723
95.6219101114588
95.4311543591278
95.2637363038889
95.0919583431258
95.0607721478083
94.9447400915945
94.8482984745277
94.843319880425
94.7557530908826
94.5890691446225
94.4917414187944
94.478565871614
94.3045639568807
94.0465699721405
93.8353441996487
93.6776138003932
93.6094686713695
93.345604343091
92.950117677105
92.7378282147953
92.6222932512458
92.3568645834415
92.0487956741058
91.8344223636402
91.7539419673706
92.0567669209387
92.3354598474655
92.4538320828103
92.508885342608
92.6254005742143
92.7804509011423
92.8897645384417
93.0135053302186
92.9920958087016
92.9738541757037
93.1878382027619
93.3848970449543
93.4169530541513
93.4741715672506
93.5041001228212
93.5547913205
93.6394273564204
93.7348383825939
93.8006273749662
93.8770107452408
93.9276835956981
93.9793310978659
94.0860027085551
94.1817716786619
94.2482886321308
94.3012908157362
94.3702828876016
94.4803400471125
94.5698857951661
94.5768554192686
94.561092217324
94.6085120399464
94.8490283516183
94.9329734017856
94.8915662251877
94.9903592256902
95.2299413374127
95.2981263556016
95.2867312676506
95.1439258047857
94.9247087017179
95.2684956245236
95.5895845619046
95.6050407896556
95.7125687398989
95.7411147328337
95.8080646292246
95.8185124543681
95.7448580501864
95.7355168161475
95.7527840992285
95.93214972067
96.0633833986585
95.9959998282326
95.9172236268719
96.046472374549
96.0842762862243
96.0259559755118
95.9089539952385
95.8858224966864
95.8344174426049
95.8313971581767
95.8955784871734
95.8113077170784
95.8489602884457
95.8044381395187
95.6362392999685
95.4190664311808
95.2504076266334
95.4769066748105
95.6520552712445
95.5094755234772
95.3244853593564
95.2172859723199
95.2024092367684
95.2286338805775
95.1490582666603
94.9281204832733
94.8556603636692
94.890766388358
94.868999230543
94.7511835341475
94.6014396417128
94.4852960824654
94.2965010529934
94.0325090839072
93.8621646745011
93.7735954442347
93.7602517215147
93.6090677032907
93.4225255425105
93.240155335615
93.1346911654964
92.9151936526523
92.6353189826799
92.3245108610958
92.1236241706097
91.7215288736999
90.9735856274411
90.0693485864969
89.071400791072
88.158601754421
87.3636540504226
86.6117029422771
85.898945803618
85.2559434247907
84.4155535957549
83.5392490990981
82.8416540225749
82.5859489888129
82.7415828103056
82.7122445606545
82.2940445430699
81.6618234423759
81.0626477175331
80.4011334749363
79.6622979039769
79.1129778727856
78.5368054968145
77.8741431475366
77.1620783170862
76.4926622089359
75.8475319161673
75.1448785051746
74.3990359731521
73.6906683822674
72.8607426313601
72.0745614984619
71.3145618865786
70.4399898176752
69.5148390133009
68.5347016983852
67.3624216739817
66.0022977875762
64.688958464977
63.4121265829787
62.1218612658444
60.9056462207973
59.8434776446944
59.0626151652048
58.6053370934692
58.5484525535993
58.6433330726098
58.7980580681377
58.9881124380238
59.1677075162094
59.3432924710293
59.638518784868
59.9218730074677
60.1472616894618
60.3380061703832
60.5699503559884
60.7928906275
61.0519428440608
61.3405540815921
61.634508789073
61.9199633008334
62.2088489362804
62.5122427998875
62.9315038228817
63.3477874482309
63.6969463473911
64.0111817782875
64.3581399844567
64.7012066459043
65.0646835250554
65.4197652778339
65.8189896071861
66.2155645937599
66.5976115571651
66.9642211487979
67.3495110783855
67.7168766300243
68.0971563788833
68.4688073077779
68.8237251867844
69.1749482523443
69.533896579745
69.8765702161202
70.2288568125804
70.5669372764529
70.9086637374377
71.2417751498699
71.5805678518232
71.915533111835
72.2541503094737
72.5770728891557
72.900015022774
73.2074537660274
73.5409292086231
73.8476559988362
74.1333450322348
74.4133661218545
74.7055121555884
74.9856976238357
75.2595198953089
75.5170505758857
75.7730058214569
76.0410987771764
76.3072722364582
76.5608114939656
76.8180918197766
77.0508532092698
77.2750949272809
77.4883986756534
77.7167478705882
77.9392425494558
78.1684207431805
78.3889014572181
78.5938731747553
78.7847207236591
78.9874740986159
79.1820401999678
79.3807705336171
79.5620214953776
79.7208867569251
79.8808834777234
80.0425134589547
80.1780284332698
80.2992589223958
80.3964484589545
80.4861206482365
80.5323957222554
80.5242133219049
80.4442475586343
80.3179888537057
80.1081165546251
79.807872778085
79.4188306839545
78.9445891435589
78.381883049871
77.7483422497402
77.0676959005699
76.420899400588
75.8239513684435
75.3162450911894
74.947234123967
74.8445076495526
75.0304429498853
75.4631390792735
76.070906121249
76.747295241099
77.3269244170183
77.7615564294092
78.016090220577
78.0952657390942
78.0194993135124
77.8214246070144
77.4967353596915
77.0659309646177
76.5131674584061
75.9090978634093
75.2915630624807
74.6341313578577
73.9645126821553
73.3212998407093
72.7005616570688
72.114757528035
71.5279915285308
70.9191690088083
70.3003074978723
69.7019793098525
69.1003521993485
68.5215446400836
67.9255276375867
67.3597243611135
66.9076313233327
66.6524555201274
66.5882826024498
66.6012145933029
66.5432676975826
66.2786870383486
65.7357801083765
65.088206114179
64.6299729669883
64.5953072620807
64.882873298561
65.3273001023181
65.787649280744
66.1767682929602
66.4096653357974
66.5280131915232
66.5004503043146
66.317316183948
65.995796017875
65.5797442876654
65.1055647512767
64.6009789741524
64.1191572301455
63.7548107182113
63.5363217036243
63.5234005060585
63.7339875351662
64.1512766439952
64.7060368654642
65.3825932025734
66.1005498069345
66.9009531026775
67.7612616887303
68.6447854611864
69.5211858520922
70.4000803934407
71.2973688160194
72.1783299751777
73.0237672998689
73.8379717631224
74.5763462241689
75.2779939847394
75.9416541250394
76.588457304983
77.1753462768531
77.7113999354276
78.1326580472993
78.3772209309348
78.706955126594
79.2922623958358
79.8489609008792
80.3276396669293
80.7490476107067
81.1283210406586
81.4816238440233
81.8664208826297
82.199599890893
82.5044246755827
82.7993406206507
83.0874093087734
83.3601251069702
83.6132224052771
83.8607316894792
84.09705298701
84.3053934958729
84.5167644525783
84.7126925459576
84.8781523437167
85.0118596082121
85.1412376377451
85.243759076752
85.3228497555565
85.3508564826162
85.3626274247119
85.4487050025509
85.6161506542392
85.8113345957709
86.0150695265305
86.1917786396426
86.3150588572873
86.4310304775802
86.5673390931298
86.6435033368951
86.6308770795848
86.5574576493998
86.6348913113831
86.8568515650712
87.0813514652217
87.2512035411823
87.3940688459943
87.5255142551138
87.6510182289928
87.7675520786617
87.8935107846084
87.9916205105193
88.0627207997499
88.1446627963809
88.2493795520057
88.3134509021973
88.3648520684883
88.4240858899907
88.5030532096067
88.5804125529209
88.6394103153738
88.7027637699775
88.7732738779677
88.8498236214387
88.9092992125634
88.9510928646134
88.9992826975426
89.046631373297
89.1151434460239
89.146172545632
89.195801279434
89.2958176464942
89.3449678478015
89.3721429582663
89.4180880657372
89.4612453528133
89.5324240088107
89.5846538033658
89.6179709799095
89.6398823441249
89.69171645039
89.7565077862087
89.8034551069573
89.814292456374
89.8620566582648
89.9074857187313
89.9522678112864
89.9940428867595
90.0343586488231
90.0603683999158
90.0878009835827
90.1187467211795
90.1488678524639
90.2027413460217
90.2319553784783
90.2355188474848
90.259722345528
90.2721811811311
90.2778845322536
90.2516724072883
90.2550658212437
90.2581315745147
90.2123620640514
90.1918046159351
90.2220222209175
90.2245107347679
90.2124827498647
90.2071922826102
90.2394599188785
90.2358113014771
90.1883584431491
90.1521419027108
90.1630659513788
90.1656046542776
90.1354689978529
90.1251861527298
90.0534438906707
89.9866799854057
89.8978858825406
89.7236779986557
89.4570214738208
89.0178857254679
88.1503745204841
85.7049713531851
80.1484898927906
72.9524723208005
69.7240000616516
73.1161954662971
78.9193721077595
83.1022693900758
85.4308113260504
86.6776959949969
87.2155761644508
87.4124703154309
87.7991468251759
88.1753559185543
88.3454450622908
88.4090377087994
88.4621969385692
88.5037650723623
88.4935659538734
88.4623550251804
88.427494050006
88.3469416476396
88.2837107844797
88.2439185734206
88.1960635686266
88.1083357598123
87.9884909761766
87.808090904527
87.664628253069
87.5672061846446
87.4060533982742
87.1819575310489
87.0249435537095
86.8534327293604
86.6272760977085
86.3682227834036
86.1407960996742
85.9475857797452
85.7682147419111
85.5614230095478
85.3626589557737
85.2415738793151
85.1982371560648
85.198927345093
85.2304636775175
85.2219433398596
85.2945147567828
85.4049841969427
85.5222918285041
85.6135343103188
85.703310060524
85.8059985649429
85.9035566335467
85.9708279423962
86.0544980522241
86.1316108331436
86.2033479101769
86.2622827026703
86.2829139870075
86.2936588579725
86.3078211055722
86.2365176231825
86.1288561091866
86.1365343270098
86.2067251714796
86.2349821506162
86.2713499357867
86.3084141108724
86.2866543669445
86.220794840644
86.2463649859106
86.2056872650321
86.1661270862733
86.1928801575303
86.180507720636
86.1209112621125
86.0925123817528
86.0629348808888
86.082981657838
86.0557420149412
86.0027021855413
85.9271818720578
85.8119702385343
85.6622973586554
85.5345044259826
85.2987615477913
85.0185207982054
84.665555520093
84.4727013937702
84.0740021676377
83.0427077087949
81.3069011689177
79.0785846407996
77.3754657849652
77.4438011125459
79.1982308264149
80.9868412380023
81.8392841089397
