1798
3999.43349933624
650.420452594757
1
128
4
93.6605803369489
93.9158878255531
93.9765065355677
93.8740741485753
93.8159630833965
93.7948861110813
93.7591433284947
93.8548987534356
93.8561166850524
93.838577922856
93.856187579048
93.8956584374547
93.8283767640001
93.8097807153836
93.8718719196171
93.8970305920971
93.9216465139756
93.9375129119725
93.9269247297105
93.9221489529246
93.8693637672154
93.9069019832308
93.9394204450695
93.9285868260992
93.887566492152
93.8911696254888
93.8603189065636
93.8398490607977
93.8799731525219
94.0111567930446
93.9821858306545
93.9208331905126
93.9657625241721
94.0703359288702
94.0330786665017
94.0122444704018
93.9944635275093
94.0083480993353
93.9948979676964
93.9637655879305
93.9393872360172
94.0421648310906
93.981997191468
93.8810021190647
93.9471585612093
94.0325865020419
94.0045818596747
94.0264935482676
94.0579874530576
94.073472961366
94.0118399523716
94.0156395070301
94.0409274155056
94.0606175259289
94.105443250739
94.1436790160642
94.0878669036739
94.0759398221665
93.9495799606909
93.9099615783431
94.0450079896232
94.1416298310196
94.0755536831482
94.0611768170857
94.1228362988992
94.1533398968449
94.1352335623046
94.1245729035261
94.0988742342137
94.0796911066023
93.9981307830054
94.0944442606059
94.2000115844574
94.2188136373248
94.1489546559179
94.1498136006854
94.1346358474644
94.0768476911253
93.8164713911589
93.8412145012976
94.0936820121277
94.2589375531785
94.2672658041416
94.2092632232906
94.1949796342775
94.2298396215365
94.1173970521124
94.0761605031466
94.2058564775875
94.3469287419542
94.2382485114743
94.158991938801
94.1970547646216
94.2988510204783
94.2435028722159
94.1650519844146
94.1688490898654
94.1581871717586
94.1476082425473
94.2060163180341
94.2384927194642
94.3228306710467
94.3265132050041
94.2673779398944
94.2391409534893
94.3898346946662
94.3943100343952
94.3558995063036
94.336325497846
94.2127262187934
94.0638463856598
94.1678089303834
94.2799304091596
94.3235299236965
94.2370808994692
94.2390211612427
94.3153311083271
94.4086185036978
94.359169600608
94.2435847097457
94.3212080928938
94.4677998369411
94.478181150466
94.4469180392385
94.4245257753012
94.4210225808006
94.4102546847077
94.365644321683
94.2749720807078
94.320936722843
94.3941231209358
94.38972363267
94.3238822027411
94.3744029317957
94.3895133398551
94.3274368585585
94.2007780252616
94.2991120544344
94.4204643930064
94.5010662611006
94.4599470705076
94.4776369715435
94.3231345191412
94.3112474678862
94.553629519855
94.6404664991307
94.5120725548061
94.5346133139954
94.6127082792407
94.4347997030007
94.2949263784938
94.4892906996865
94.5737084517134
94.5321711811246
94.5471090092363
94.4698706015466
94.4417585173127
94.5875884252138
94.6683698570247
94.6118574519531
94.4651989659648
94.4771803120483
94.54110077343
94.6692967393668
94.6184298345333
94.5094145732961
94.5629433919995
94.6089442403615
94.564718495002
94.592644003452
94.6103208806226
94.6589873497167
94.6041830244175
94.422160181179
94.2328262168458
94.3355652719309
94.4313862098046
94.4864136848272
94.3376831565926
94.2047626148173
94.0992032107146
94.2009101464443
94.3068756295528
94.3258723146378
94.2409325490286
94.2493310549209
94.1467384101769
93.959398068796
93.895292312609
93.8250560604089
93.7137541691233
93.7144863956698
93.7080057446488
93.7888717927869
93.6993183622302
93.6621065250768
93.6000740207751
93.5425392980431
93.3929265007435
93.2578694066445
93.2732471958242
93.2074738354578
93.0218305583876
92.9401678391885
92.8986884653368
92.8745423157129
92.6760423320566
92.5678618577709
92.6221735039268
92.6055782806664
92.3949528225382
92.2730397584168
92.286638663988
92.3329156382191
92.2220508678274
92.2316962244235
92.1249590424376
91.9166983320908
91.7253160311986
91.7211808501151
91.7450770562451
91.6814808912207
91.460602020367
91.3026188064144
91.268675517067
91.316633429736
91.1783188488117
91.1008580909458
91.0929986704181
91.0239815853266
90.8538305671845
90.7370379228935
90.5555033808815
90.5451597576246
90.5102778999313
90.3358062799525
90.2506983227532
90.2010972267356
90.0896819348702
90.0831728149697
89.9969518049476
89.9432836553043
89.796470067504
89.6791439171695
89.5506746434149
89.5357207523808
89.5695329784738
89.6158501083483
89.5704278065093
89.4206883393237
89.3748315057834
89.3497213769364
89.1718740146047
88.9812768170465
88.8763227007355
88.7896678736458
88.702140929966
88.7292589776556
88.7005762918171
88.5842763662308
88.4315952237664
88.4744481539233
88.3304873873131
88.1281337553701
88.0445536207785
88.0931613993391
87.9287526516272
87.7444076475352
87.7182576516047
87.7301723582858
87.7116609654333
87.6557990356841
87.4976020346193
87.4451940838962
87.3316930007071
87.1638292735803
86.9977259837499
86.9270194927113
86.8757746472164
86.9457912372693
86.9267982616564
86.8698480036001
86.7013341748704
86.6153059236011
86.4402585385326
86.3504680609806
86.2467870945664
86.078555516485
86.003691588323
86.057005286913
86.1204383592555
86.1357030725825
85.9205979888911
85.8055676269846
85.8154810978897
85.787417634323
85.6394191465412
85.5235240187928
85.4282698615315
85.4403856719178
85.3822052874949
85.3067249192462
85.2491935804909
85.1645788280434
84.9592732001622
84.9496501179754
84.9925584522472
84.9843895719795
84.9206120865236
84.8708325884942
84.715690649732
84.600199968284
84.5245176078681
84.471557030941
84.4069574357288
84.5048214971706
84.4969619980023
84.3883970502314
84.2185868831629
84.1578075117178
84.0777086151421
84.0185987311369
83.9046226106324
83.9108161203039
83.9048909462152
83.8548201694909
83.7726399877892
83.7265399647141
83.6333909775339
83.6213886329732
83.55489929109
83.5620302074754
83.6380890608148
83.6089177251028
83.4875454558118
83.3814056307484
83.2717957216558
83.2677999729949
83.2517296300135
83.2006108746354
83.1720088187198
83.1728347316607
83.0968328154584
83.0923014169754
83.0370669932461
82.9630960306226
82.9264506367367
83.0637130046314
83.0375761547318
82.9165939179514
82.9101929098405
82.970250790131
82.8540212053787
82.8804758100264
82.9012674143451
82.8901089206314
82.8110736597746
82.7389372360887
82.6817714040384
82.7562564676783
82.7775870390277
82.6918303591189
82.6539796190218
82.7238719061123
82.8078839345675
82.793597515948
82.7121755559356
82.7191937675179
82.6355025378134
82.5610004285946
82.5212504056681
82.5686538021497
82.6355474933147
82.6775057542968
82.6263199149337
82.6171815048908
82.6028196770913
82.6281894984193
82.6007697610082
82.5575683273951
82.517014691014
82.4993341107627
82.4345200285988
82.4812993931712
82.4628634118434
82.4924886377866
82.4687577256253
82.4939549419775
82.4778825530372
82.50166386835
82.5336444408331
82.4726174653375
82.4157165028869
82.5078124406716
82.4449906538234
82.3022401196958
82.2703296984704
82.3913503050208
82.4540721787166
82.5129742860889
82.4577573478767
82.3378328963551
82.3005870402878
82.3886419154878
82.4407549427863
82.4600005929734
82.3801660493427
82.3912412196461
82.4092908352348
82.3976495755489
82.4017584188018
82.43317075249
82.3820017555746
82.4341529923515
82.5162368962333
82.4879172815822
82.4323182764018
82.4576782326163
82.4171145798723
82.4250324181802
82.4608405814126
82.5036837390604
82.4763253838487
82.5212620941331
82.5831822684875
82.6400193815289
82.6166368015981
82.6280128912417
82.6293663681587
82.6352411215089
82.6377568037103
82.7164870165846
82.7313792480119
82.7799730410565
82.7390947477815
82.8058863186862
82.8556850769158
82.9033480394773
82.9285318171022
82.9040695786518
82.8750534526278
82.9259398138967
82.9463219063002
83.047936348198
83.1103731624642
83.1714720005823
83.2045866264444
83.2331123915977
83.2509691207081
83.2834271081209
83.2976796300965
83.3902435508235
83.3577236937856
83.4063877395381
83.4973181596354
83.5571910008353
83.5602191303072
83.6169946239911
83.6656816623685
83.7137252005479
83.7270446924421
83.817376033622
83.8985703066807
83.9370311367366
83.891164601872
83.9403063067779
84.0435072607156
84.0765107115608
84.0052284563735
84.0186557145194
84.0769789745519
84.2319069751299
84.3435190781308
84.4287042077165
84.4093355688913
84.3978680203109
84.4087087125719
84.4432097942169
84.4734040233787
84.5226563664404
84.4468568847388
84.4847875207107
84.6255912849242
84.7194633188638
84.7159291001097
84.6405466219153
84.6049575559888
84.7131053621415
84.7764784380016
84.8705250563102
84.8962657251287
84.9254272891881
84.9612437234549
85.0450081500589
85.0885805410592
85.127253864053
85.0961583992002
85.1046813533692
85.1177715935795
85.1887960773894
85.2233346352767
85.2745697126677
85.2970155996876
85.342436337073
85.3468281656052
85.3758931473111
85.4063050831864
85.436693711155
85.4854187041533
85.5442507899315
85.543850261229
85.6177154322891
85.6900582866031
85.7910600314608
85.8581451337199
85.8510281636997
85.7772837000318
85.819169722588
85.8862026493339
85.9875005876726
86.0273255452916
85.9929380916394
85.9681513198488
86.0905485119977
86.1562625826599
86.1303194121967
86.1671944735016
86.3545756832137
86.4155595192639
86.4244347903978
86.388008939946
86.4274957657961
86.4551763197836
86.4258537247943
86.3767748739105
86.3596141311019
86.3682396413858
86.4191632631297
86.4181960027641
86.4483413070105
86.5417350929574
86.5344285455685
86.3814591367343
86.427382916175
86.4827121313997
86.4782044760477
86.4645092533638
86.4418576982583
86.332830917743
86.3195348652772
86.3203237736541
86.3459628155005
86.3328921489007
86.2914365471852
86.2621102285612
86.2849271228207
86.2672739713914
86.2421001327539
86.2641971304299
86.3305533511896
86.3036629476866
86.2742566514673
86.204268421327
86.1922097919977
86.2198093430302
86.2649341463395
86.2133373733784
86.1491229821984
86.116944579499
86.1414983968792
86.0876609229799
86.1149500757863
86.1819328156269
86.1996088063969
86.1937494068223
86.2398232710949
86.2542726684306
86.2985563870181
86.3678835887293
86.4320932657256
86.4971129235991
86.5327155912377
86.5357975602138
86.5819664601656
86.593424090572
86.6406629902672
86.6720702247886
86.7361138682744
86.7976489715898
86.8069647963111
86.8682972806111
86.9126650390745
86.8663758988554
86.937074883781
87.0481832138763
87.0669275322809
87.0381382986209
87.0610979303991
87.0747312437411
87.1118125428354
87.140463407303
87.1639678036561
87.1578990074051
87.2026324797689
87.2968627818228
87.347718085691
87.3282877948883
87.3791876646983
87.4295825167305
87.4643940394962
87.4296548126069
87.4445095886967
87.5628971859637
87.6932631804729
87.7195379425758
87.7054121348725
87.7707289329618
87.8632684748031
87.8762066511149
87.8980999634354
87.880385400351
87.9098109112201
87.9661398604355
88.0675554110638
88.1788128938942
88.2519509289918
88.2467857856769
88.2409677645644
88.2414908730877
88.2944194216129
88.3401667718811
88.3446866612125
88.3425862309099
88.359459581588
88.3831600064421
88.4479777932844
88.4764852802674
88.5458435871247
88.6342485386211
88.6578730334439
88.6333903170349
88.6470099198058
88.6558123626724
88.7116093145495
88.7882813085844
88.8324986101577
88.8238699131203
88.8220435856541
88.8673364958861
88.8801621166036
88.8582477431268
88.9112317917081
88.9630615300676
89.0072932349883
88.9701866225982
88.9980499661214
89.1077735449671
89.1903410299327
89.1757987612653
89.1311271410444
89.1177742285984
89.1130857619637
89.128558301193
89.1661065457537
89.1653127610837
89.1701083041418
89.2424355347457
89.2895252022043
89.2947442918193
89.3225559565832
89.3254334211473
89.3426100763197
89.3863615600339
89.4451426684525
89.441392257903
89.4168519063392
89.436348215513
89.4835931461316
89.4818417487039
89.5344651532979
89.5711827285045
89.5707115043607
89.5625064072276
89.611423145759
89.62313333798
89.6558095352737
89.68183601287
89.6661821057265
89.6764029439992
89.6983988261707
89.706460120782
89.7326189236692
89.7346102650054
89.7500422666715
89.7891633652189
89.8182439217833
89.8110815817495
89.8155479585129
89.8274985611111
89.9007712822542
89.9227915394737
89.9059352411368
89.9091427570867
89.9502085010874
89.9966201799344
90.0349506973264
90.0200186904757
90.0162878536472
90.0715016439514
90.1201677647076
90.1371413192408
90.174666909464
90.1685805052817
90.1524193106772
90.1333234880201
90.1561452444063
90.2050267826832
90.229725761197
90.1950046562281
90.1636578304485
90.1927795497538
90.2058401087648
90.2164258820109
90.2668061603718
90.2693524753803
90.2782860250174
90.3097367306484
90.3538267133889
90.3777018748452
90.3868129421565
90.4464015573898
90.5169241145394
90.5095806543489
90.5082592465009
90.5307025850284
90.5950125333088
90.5833080112678
90.5700101197734
90.6129353910737
90.6302199997488
90.6336588048339
90.7158234090929
90.7329145597956
90.7967229964925
90.864951378656
90.8996158129369
90.9133202745292
90.9226053896082
90.9398560342084
90.9025319449641
90.9537272483017
91.094530473622
91.0918594046531
91.0599569125691
91.0491989496252
91.0787179192055
91.1640975651476
91.2067432788736
91.1762923142828
91.2627513901483
91.2889499953106
91.2463901676942
91.2039405789607
91.3128678104577
91.3631981642575
91.3394494958239
91.3380393899057
91.3667255661417
91.4059708432195
91.4684824881763
91.5204142569734
91.4967829429612
91.5131066549674
91.5277261006362
91.5571140179366
91.6388391519695
91.6728031966417
91.6399164611004
91.6125362712015
91.6028640245018
91.6574146780585
91.6797544743597
91.6601543276154
91.7368806086092
91.7943605483006
91.7851023084413
91.7395462726573
91.6989816106301
91.7184208470874
91.80586999207
91.7848346925383
91.7491619817073
91.8283836933246
91.8248066159063
91.770860048345
91.8083239857569
91.8405013816792
91.8456520770205
91.8723851272191
91.9101860605973
91.8714781997747
91.890271618511
91.9308863073429
91.8631347495201
91.8592539596316
91.9123294123384
91.9283030353711
91.9513084346156
91.9232391714568
91.8551235025765
91.9103700174822
92.0148499861257
92.0153990543328
91.9821228787994
91.9235331814295
91.9334823886591
92.0231902664018
92.0660395961164
92.0184201309079
92.0089046995269
92.0147711722498
91.9768227346277
92.0567448971296
92.1206407248924
92.0881077130922
92.1448938468304
92.0792909455773
92.0010214007734
92.0684193694296
92.1392694055878
92.0619739455724
91.989115711752
92.0580449573484
92.1875824823055
92.2227993846628
92.2199818073194
92.1941239671559
92.179844333758
92.1179950247664
92.1264864154842
92.1688013002911
92.1922791080088
92.1499554112244
92.1597753817735
92.1418201374485
92.1395805918142
92.2196930605129
92.2675332344059
92.259791445877
92.2676759484077
92.2697248090578
92.2583186668964
92.227806629521
92.1865679521718
92.1919331242137
92.2553047281405
92.2814424675901
92.299127646208
92.276899334177
92.1837602700777
92.2034335405635
92.2710440732351
92.2401740587278
92.256612773605
92.2888286178782
92.3129583446427
92.3264029833331
92.275067283699
92.226067902948
92.2269952235499
92.2061145406821
92.2283543942282
92.2373452153391
92.2616686298639
92.250822141925
92.3166345446345
92.38823697802
92.2995089151835
92.2828069831363
92.3866315244988
92.3957743381696
92.3724799661844
92.3790993479911
92.3696225381002
92.4258842352026
92.4609063735442
92.4041445268769
92.2528802823777
92.1666105846565
92.1836093599802
92.184966309588
92.2098180414732
92.261930949173
92.3178685878809
92.3400422556866
92.3602113240575
92.3519592085241
92.3068210980379
92.234920646764
92.1527044333746
92.1113447974348
92.1053063521449
92.1683510120191
92.2763544617588
92.3466423596859
92.3650620066261
92.3807113962167
92.3880801023527
92.3739184841845
92.3754366746725
92.3835446747248
92.3365422025686
92.3901620082617
92.4912100688737
92.5070264039619
92.423478673312
92.3817062143533
92.5125719673584
92.594520575724
92.5959555188381
92.6167723494596
92.7372418411295
92.8870531014308
92.8932713432729
92.8607043749992
92.8016072275302
92.7265794239405
92.79239382845
93.0402481054088
93.200127406559
93.2011048404678
93.0559395401719
93.1622028445118
93.330920089398
93.4164628500486
93.4542360375311
93.5387958121475
93.6130711635498
93.5969111952515
93.6615516386345
93.5167684934081
93.4400852092558
93.6472640104072
93.8422091435093
93.9411241513013
93.8916600237976
94.0823053176675
94.1299492724866
93.8698320694555
93.8803157386863
94.2373422401425
94.0606113788414
93.7906263408755
94.026877668676
94.1700146316279
94.2188196414032
94.3632466426866
94.4067064333183
94.3687061628976
94.4608200820517
94.5997572348275
94.770367227386
94.8454954895023
94.8077331563945
94.8339084184117
95.0480285946666
95.1675037928958
95.1220056787876
94.8724331673482
94.9511827517754
94.9527886112692
94.8747801407964
95.1441727092708
95.2876653306695
95.2479610699595
95.5369287906629
96.0112556906294
95.9498713909165
95.3016088095786
95.3569670044416
95.6879680143675
95.6987694377337
95.8237169941852
95.9363005845724
96.2333107744659
96.4687298680189
96.3219977837068
96.6249308698452
97.5144248348845
96.9132700281643
96.0384675931123
96.0437599735721
96.1027403319516
95.7507406646862
95.5517083456648
95.7540721459299
95.9076327707927
95.531289043035
95.1841396583871
95.0536326250452
94.9187883657786
94.9915798798827
94.9686638576859
94.5898454614875
94.4645582471928
94.5743806971239
94.4526851252276
94.2720122831021
94.2003065359921
94.0786973269696
94.096151651932
94.1877245041559
94.1128228559539
94.1586780571068
94.138348835179
94.0784251721226
94.1433329165306
94.2119672281466
94.178846305783
94.2408245044434
94.2736880627426
94.3045612537737
94.3833717992566
94.4321556410361
94.4036678616269
94.336171654305
94.2357403860251
94.3585637824376
94.4932885166156
94.4265114931466
94.3469892500236
94.2546288836263
94.3702928864962
94.5695039571151
94.5197229127738
94.6377243410011
94.7663361026036
94.9052248191777
95.3014866402471
95.3914659095534
95.3266566767118
95.3444418622661
95.1742105135033
95.1854055525733
95.5064002210938
95.6952333993688
95.9068272133268
95.9684582810371
95.9525437465881
95.9753164675203
95.9104043805139
96.0739984222762
96.3446005003054
96.5367799916107
96.7413579325055
96.8847425702678
97.2084522908801
97.4333368945283
97.3576890033225
97.2879591555379
97.204231467791
97.0120596274945
97.266681138896
97.4169236930267
97.3934200018964
97.0551545519303
96.9255486893209
97.240752384754
97.6040230368883
97.4371307807209
97.0637834440004
96.590378161073
96.3167220164938
96.1136949539981
95.9473059976879
96.0544495904847
96.2302272033063
96.1447885634979
95.9960105803093
96.1977518330811
96.20235636537
96.1433806930606
96.6052627661369
96.5220801580286
96.5899396125963
97.3910068913199
97.5864000801508
97.310797228857
97.185727264143
96.747100068155
96.7178119358374
96.8189843018113
96.3652921952643
96.1957909201438
96.5274104313065
96.611042343423
96.2000468275489
95.7743303732967
95.764087297633
95.8664187279878
95.8067221860259
95.5030045608631
95.5058875570118
95.5577715071084
95.4005026000772
95.3409285100617
95.4408910422291
95.3551568355521
95.2767210466019
95.187685969519
95.1293422623098
95.2783878559928
95.3370182770231
95.215895761186
95.2404812836807
95.2601668799698
95.2111437590538
94.994269180928
94.8252705996442
94.8474762826648
95.0001141987696
94.9642978594138
94.8663614111888
94.850035780697
94.9195892133246
94.9013923323254
94.7958568817907
94.7545440038059
94.7986889615889
94.7638177850834
94.7305591142124
94.7740874261541
94.9247540662675
94.9012165198978
94.8303738175872
94.7743197382719
94.8396614114944
94.8537217344282
94.8363336030197
94.8295562843696
94.82187690663
94.8336482466538
94.8744836284542
94.8502613708136
94.808246337602
94.8104058257038
94.7952746232759
94.6914590691633
94.6957594915562
94.7614802945187
94.7516588064847
94.7676419164471
94.813051087715
94.8218782177168
94.8322528123799
94.8216473539703
94.8593714106132
94.9110752476504
94.9159316418198
94.8840448438094
94.8781273205281
94.9207480179258
94.9452744714674
94.9280219894368
94.900787090633
94.8899030053591
94.8840482959973
94.8803565808955
94.8858488799861
94.8635155723616
94.9074202223898
94.9673271644689
94.9272118606203
94.8707433293634
94.8577456486161
94.8413519403372
94.8213280125186
94.8566832029834
94.8711912787536
94.8005347150268
94.7736844875475
94.7667871158936
94.7366466935891
94.6781920829462
94.6331931007339
94.6329097406229
94.6452510639194
94.5770483300139
94.4729741071819
94.4379541664288
94.3477027749356
94.2254829057446
94.1219186024587
94.021474483882
93.9109970599378
93.8107433454726
93.7753157797439
93.682609439445
93.5831080621649
93.4595030984197
93.3144605967074
93.2578056310913
93.2116855869143
93.0895229027028
93.0449748047643
92.9953632074331
92.8850288246683
92.8510777188109
92.8871433458737
92.8436937697531
92.7790949549939
92.6793896454886
92.5606992630807
92.4624392621649
92.3848007929971
92.1720938779556
92.0427241078386
92.0326768991007
91.8982653681786
91.746037581631
91.5900729915485
91.3624185384064
91.150251542975
90.9588069230861
90.7162521251099
90.4556499206151
90.2584556465344
90.0886566265001
89.8854714068404
89.5962132520696
89.2991166764233
89.0263338559273
88.7928233451678
88.4261317141975
88.0790763804082
87.9009778520246
87.5840511288507
87.3223963500851
87.0880016602289
86.7606884985033
86.4673820964685
86.1026657186725
85.5854552989639
85.3085412971662
85.1838240225649
84.8587947037616
84.4726904637344
84.0168283071842
83.7122750514098
83.3563943097354
82.9208576112857
82.6613379393416
82.432237372892
82.0488844272732
81.6430501902456
81.3363851062935
81.0688466520336
80.7218680660353
80.1673388392296
79.5088813567781
79.6356645194325
79.5376818842245
79.1036075374951
78.7627760955497
78.6091847391526
78.3486308572697
77.9926744342396
77.5480508905032
77.0273309096111
76.844022207199
76.8328817421619
76.5369177643706
76.1496774891339
75.8307775182399
75.5138781599975
75.1552546559543
74.9669826346045
74.7322618096029
74.2850372489941
73.9755373748658
73.8609196872963
73.5468606008248
73.1643922044951
72.8193435435649
72.5588445046752
72.2619859031643
71.9694823038871
71.6744219642387
71.3982904984963
71.0921248215206
70.8268314616309
70.571819252394
70.3451707566633
70.114020985023
69.8985819792887
69.6517620975094
69.44182424112
69.2761281045466
69.1101311418583
68.7901187540781
68.4536395544984
68.5893471610819
68.7266112610687
68.4618251365976
68.2949546489787
68.4002086520449
68.4236267338577
68.3780474362177
68.1196789471494
67.3641166320607
67.984050416351
68.9006154524218
69.1441323122703
69.260538440247
69.3727747950676
69.6838427992132
69.9335248441798
70.0135011922088
70.1501699639038
70.1964113842394
71.2523338446771
72.457687853108
72.6813854466965
72.7859445147396
73.5066130361415
73.9376393302043
74.0677412423658
74.3502559153307
74.7661486021363
74.8640185978836
75.4559644302175
76.0958739703927
76.3661694868125
76.8072589138775
77.100577039698
77.226007934396
77.1190079658334
76.8401242126267
77.9347165793371
78.9786038287099
79.1158827156664
78.995826390278
78.9674124019334
79.2844652675091
79.8276387824754
79.9527143177519
79.7965582700695
79.9876085471013
80.4082978819416
80.7125620406116
80.7981872577435
80.8011064714409
80.8828798757603
80.8490740210673
80.7297157536776
80.5675704978143
80.557804384079
80.7874950898553
80.6993002698762
80.3128287354396
79.967480541489
79.9303336165583
79.7151466324098
79.1770486035622
78.6907964912285
78.9261521366839
78.9900427043943
78.7317713534837
78.3797878863538
78.0786449395682
77.9399403402531
77.7814694892304
77.5504099147383
77.3395156603804
76.9909301047668
76.6085516484881
76.6162414985732
76.5096628459249
76.1341980827335
75.7692071927951
75.5124634584999
75.1559590458463
74.706867498292
74.297931400855
73.7355547501277
73.381685571773
73.2622406192309
72.9084362211944
72.4511725559675
72.0318935896513
71.6681611845299
71.2917139547357
70.9518459095047
70.7739352527675
70.5628992017875
70.2420312533044
70.0718828176195
69.9609263252133
69.9300459319926
69.9666987257771
69.8478383851592
69.6461203165121
69.6460107921225
69.7769013211934
69.7985537380284
69.8137882465249
69.8769512947094
69.9546990438709
69.998613477952
70.2101742455066
70.5037214739259
70.645505518625
70.8150732972608
70.9926841242656
71.0627257228583
71.3102465335192
71.7504811415785
72.0392929906302
72.2237181941759
72.4070326366761
72.6539574863893
72.9064665414297
73.1575420894878
73.4211472201518
73.6659528125217
73.8825856806223
74.0280427112927
74.1806357787549
74.5204656776746
74.832803114146
75.0326245867067
75.1705871762593
75.3086971773367
75.4665696135789
75.6089975587996
75.7176075813635
75.826676329517
75.890157292475
75.9533210450685
76.067622437132
76.1747909686447
76.2660778959019
76.3860586980545
76.4643699011179
76.5116278444017
76.6371951185015
76.7667750188693
76.8608402744147
76.9900306447072
77.114420021665
77.2225915505818
77.3527412653065
77.4964176515577
77.6153738992506
77.7104045322332
77.8054288345191
77.9033670992194
77.9887964500269
78.0687425872349
78.1364787127709
78.1937393041148
78.2514233096806
78.3104359937758
78.331515921626
78.3579723111468
78.3714534651177
78.3886823150158
78.4361693989356
78.4672935629599
78.4722181050474
78.5018819918786
78.575283353143
78.6217565212294
78.6474855716296
78.6871690886605
78.7451481212551
78.7855010997724
78.7849401694609
78.8050803952024
78.8291000364322
78.8523917109765
78.8779325542041
78.8964450290823
78.9015504336813
78.9027027941026
78.923813203726
78.9618389209586
78.9976189507111
79.0214838787442
79.0598848939962
79.1331283632759
79.1841730816052
79.2526657527578
79.3287613172198
79.398004049267
79.4745811870267
79.5695862125273
79.6727670458823
79.7696843858124
79.854703081981
79.9535290953894
80.0522137066783
80.1577213915272
80.2813117156287
80.3736774752719
80.4462251346035
80.5542358144336
80.6592498119058
80.7287500234597
80.7798165836594
80.8266028935828
80.8565181650302
80.8864724489568
80.9102679097349
80.9069919498959
80.8727367091763
80.8501522096839
80.8180283862316
80.7653226983425
80.719787459459
80.6808792827074
80.6268319317433
80.5703687860816
80.5232135943259
80.4678591422374
80.3893237546722
80.2966909891489
80.1993465419503
80.0937842514226
79.9781997440506
79.8839321341012
79.7819850029516
79.669535385479
79.5833457497211
79.4896309390693
79.3542742072925
79.1969990475718
79.0373218911168
78.8785730051394
78.7121487447275
78.5554476225159
78.3997685808028
78.2529214800522
78.1276695256412
78.0296953535274
77.920730311841
77.7927707028746
77.6585097229399
77.5454561493684
77.4328051411252
77.2951935625812
77.1321551207378
76.9566257874623
76.7754721319285
76.6022609718606
76.4068099930099
76.1791221955527
75.9445631425118
75.7220944214496
75.5076681495211
75.2891208371591
75.0843958927307
74.8683886182159
74.6349092229691
74.4445294397795
74.2644920740642
74.0785397378645
73.8863367818147
73.6752985016464
73.4665993093499
73.2858821337234
73.1080126818023
72.9109184029873
72.7281985096172
72.5290098464757
72.3144121697555
72.1337150608623
71.952454499952
71.7787873852511
71.6166019104629
71.4255351813695
71.2528482137545
71.1251215624157
70.9829693715533
70.843424354518
70.7057710575523
70.5768487812312
70.5050250063766
70.4694019650322
70.4368460347126
70.4161886492893
70.4228642161325
70.4446753526981
70.4772691770945
70.5494169436709
70.6327974830301
70.726510234578
70.8430781079384
71.0045172951757
71.1713676262802
71.3449245350059
71.5263836715258
71.775859800028
72.0424477860638
72.2848174738828
72.52770221923
72.7903395667953
73.0578028049005
73.322498281731
73.5757660862634
73.8652715481832
74.1534190624181
74.4062751746972
74.6511661075385
74.9104050710042
75.1451004722319
75.3280881217391
75.4906018141624
75.6794091006227
75.8758598639514
76.0475790254858
76.2216929746271
76.3984498358923
76.5423666584454
76.723694193697
76.9285786213538
77.1586986304529
77.3764001350509
77.5962706966397
77.7929479088782
77.9590726824882
78.1163561820755
78.2816144083012
78.4432600448886
78.607758321291
78.7620583535817
78.910297366708
79.0862198578496
79.2728121395712
79.4095131893495
79.5738021754615
79.7070919308333
79.8297143666893
79.9737031951715
80.1086424883195
80.2062732499609
80.3030512839072
80.422642079895
80.530544800675
80.5772927157079
80.6192683497971
80.7045891885196
80.781224285641
80.8438658086767
80.9127535737011
80.9900804197263
81.0530019871608
81.1254531353441
81.2145373084244
81.2731981165878
81.3326572026652
81.4036795627558
81.4732049609711
81.5089287623214
81.5474380327503
81.5593504740953
81.5671600165663
81.6008330908224
81.635628764776
81.6561886910399
81.6664334235791
81.6555974430643
81.6240414482257
81.587505209042
81.5551731584639
81.5038234650791
81.4647852940237
81.3904826168446
81.3223260840765
81.2846381769907
81.2529739411057
81.216928540854
81.21262320795
81.1719493678286
81.1359554826608
81.1447186863058
81.1586228010852
81.1774494694477
81.1684206473823
81.1011722791744
81.0639549581683
80.9843918289664
80.8539634620578
80.7151566566315
80.6086436037828
80.5191198901655
80.4325412502135
80.3077780192814
80.1920139595318
80.0448724666851
79.8943812781956
79.7998957993308
79.7582122432436
79.6771901576717
79.5461293379896
79.416963452362
79.2974771049511
79.1571063247308
79.0015530235735
78.8417826736194
78.7340281968017
78.6412680690114
78.5248425090759
78.3981097440888
78.2897688286034
78.1768162057763
78.1026810171267
78.0070970437619
77.8753735217169
77.7753643185569
77.7002722045157
77.5852352514476
77.4816640166247
77.3823351588767
77.3468670740144
77.3112753164197
77.2206941817203
77.1411496728852
77.1010348976602
77.0507738701317
77.0018796329136
76.9326924477215
76.8522658017199
76.7637105403946
76.6850885906157
76.6421573613004
76.6368152132004
76.5720718779661
76.4886072517362
76.4241249071709
76.3410747683177
76.2481106086678
76.2027820651089
76.1586362703648
76.0823230631864
76.0280431056699
75.9898344789542
75.8981901103837
75.8468760282291
75.7923565339158
75.6788340499888
75.5668515263267
75.4704304760389
75.3562797468721
75.2435207900093
75.1407311167297
75.0825511159626
74.9788691405959
74.8380365508049
74.6738608625675
74.5447610683069
74.4276794989869
74.3387844965469
74.2327912010077
74.0957111625002
73.9098397552819
73.7813253617621
73.6712467348558
73.5505693391036
73.4249004239496
73.2493315389195
73.0380466504332
72.9409415692029
72.8659307515059
72.7892167694868
72.6959670277326
72.6373746281595
72.552665716159
72.4613171326842
72.3189740030271
72.1739550741184
72.0817679724831
72.0079234799016
71.9247621479477
71.8348034018495
71.7008442990008
71.5457759366977
71.2901768634305
71.4493456790428
71.4627103854541
71.2562794394962
71.130157409415
71.0316736932998
70.8594964412019
70.6881589613247
70.5627153591698
70.4670953339667
70.3942163051431
