1798
3999.43349933624
650.420452594757
1
128
4
93.2619820094967
93.1993002727725
93.2377204276642
93.2204965354218
93.1132880753212
93.1145725848005
93.1868381829525
93.2327874422337
93.2141461600351
93.2465994688192
93.2255940796889
93.227009263557
93.2358103402708
93.2123675510855
93.1421609268279
93.2168644105825
93.1884781269817
93.2549137595295
93.3558095212852
93.2792309273344
93.1925433111801
93.26098942592
93.2309096651707
93.2453204841146
93.3450651325762
93.3141813315403
93.2105509442506
93.3214668146612
93.3213254559194
93.2514639195309
93.2848584357397
93.2776676061873
93.2957911268424
93.3061941064366
93.2467652999419
93.3195162716593
93.4247250075741
93.4205740006009
93.291745531294
93.3380240128911
93.4549188720661
93.4966771252219
93.4194652736005
93.3767206195189
93.3996610776344
93.4606489961781
93.3051076282475
93.3058727302399
93.4247925351909
93.4064600929541
93.3765481058562
93.4487156599605
93.4477283615455
93.4433658040306
93.4518503210874
93.468993173261
93.4746459802644
93.5056119193391
93.5011897349542
93.4228745689632
93.3572999808408
93.4799469197338
93.4673374693411
93.4748694080218
93.5230695803006
93.5068953140959
93.489599474031
93.638722336408
93.6670003589513
93.6639870637007
93.5828524540345
93.6248187961027
93.6392478030386
93.5950368020391
93.5874046532926
93.6154519493701
93.6059254290658
93.6658375186605
93.7533605433696
93.7458947697254
93.6701012622973
93.6413940954323
93.5935954568782
93.7432012698718
93.8592192570976
93.75445827483
93.6269651866023
93.652509577085
93.6339845147524
93.6425924011813
93.6237677805887
93.6169276353305
93.7126099080191
93.7286240677489
93.658691272252
93.8771087171491
93.9087662480831
93.746756404593
93.6703244375008
93.7052056863283
93.7323294122819
93.7924597724952
93.7161076231119
93.7010141395217
93.683477470622
93.8214686783731
94.0009611484852
93.8383424373366
93.7599919711501
93.9221261078664
93.9752835854237
93.983906350527
93.9318579881476
93.8468388616416
93.6720086931661
93.7303828360163
93.8668365253767
93.8760486289631
93.8345350840682
93.7746186131353
93.7288331623422
93.7235927189614
93.7718731780629
93.8907640107894
93.7844369136681
93.6631275972316
93.6861144522027
93.7917415480066
93.8604960387685
93.8910446835177
93.8199803954222
93.7711813817183
93.9515660700929
94.0052904832237
93.9447486173918
93.9530526837844
94.2301101755375
94.3274586572008
94.0947576907043
94.1012516790931
94.211635068656
94.3956718339091
94.2876321024305
94.2508777665454
94.1671110876699
94.1191702220831
94.1972689710102
94.291658566242
94.2120480377012
94.1784077037282
94.1301698042876
94.2067188237935
94.1912055157406
94.1617824969825
94.1360045906282
94.1877449800379
94.137862734919
94.1373443442704
94.2221162894855
94.2731874296982
94.1721534503185
94.1934038836499
94.1756211340964
94.1507736361968
94.1202578318391
94.2141977065847
94.2393093946418
94.2055440831727
94.180758724215
94.1869190870086
94.1036377596333
94.1922994265285
94.2731231265674
94.348934571103
94.3694299948785
94.2303723244584
94.1264371380942
94.2507637758428
94.1242570732058
93.9856097706184
93.9263679401023
93.9692903221934
94.002919518232
93.92844751672
93.7634193085208
93.6410820169484
93.5678090228511
93.6488038910479
93.7718441761826
93.7815339476046
93.6139445413252
93.5711721588465
93.4999790934118
93.445129439908
93.3175656157601
93.2906428082876
93.3218415728745
93.2343400690089
93.1156846939786
93.1326684904316
92.9627224610596
92.944688747289
92.9429615933013
92.9163330791986
92.7326882955636
92.669290554057
92.5985439832202
92.5388677102841
92.3389326878347
92.3039818900054
92.2828001530053
92.2564703349265
92.1115116352555
92.0323536331306
92.0130435864797
91.9486070541335
91.7651543993782
91.7278171370986
91.7179424958746
91.6295037983877
91.5671404632278
91.5356014588993
91.3463759280359
91.2635113882013
91.2857353462019
91.2295829469192
90.9990980285702
90.8900461759463
90.8029856107521
90.7952454406319
90.6469610047802
90.5775843515513
90.640094954282
90.6043620881428
90.4484706686917
90.295794707661
90.1283505396633
90.0420074161677
89.9535381979787
89.944490144761
89.8965364258278
89.8462764091707
89.6882139991366
89.5714395211538
89.5289837362357
89.5549160720576
89.4982352402036
89.3875523206083
89.3314844578818
89.3206247375739
89.1389321741132
88.9867016529086
89.0173962766146
89.0489931045568
88.9036185871567
88.7409508519761
88.5184626357634
88.4949257462259
88.5101602498576
88.4256929473311
88.2413831509656
88.2130745721563
88.2181553271548
88.2235366918608
88.0346249788176
87.8736723604279
87.8032033205249
87.7703679731348
87.7760190806687
87.711135845324
87.4767777498108
87.487473583411
87.4913963772445
87.3684348699402
87.1641919212785
87.0879074476546
87.0777690916355
87.0408365057787
86.8913354437817
86.8514579422916
86.7480336219439
86.762832310206
86.7514430861179
86.6339700754099
86.4482481081785
86.4259098910984
86.3353786597891
86.2596341855586
86.168284671037
86.1229135776309
85.9164211207488
85.9220150852433
85.9487292090505
85.8324755270707
85.8058825236351
85.6906781128363
85.4777256875582
85.4243116177267
85.3350951466184
85.4598519824594
85.4966503595711
85.3133097356629
85.2290830292582
85.281919980153
85.0811510393954
84.9151560617768
84.9092461327297
85.0189881267668
84.8404145392143
84.6590075323209
84.577670575151
84.5203331686464
84.5107871444064
84.5168893286313
84.392202159272
84.3074233363552
84.2234245575291
84.1490569326283
84.0728687953329
84.1493441455848
84.1564863636097
84.0416395740294
83.9565128154788
83.9978366512132
83.9095648077497
83.8431262016298
83.7696186057916
83.7467153466027
83.6786599369392
83.6321322152456
83.4677566533098
83.4447660143965
83.3754903515851
83.4301752935365
83.4593314073658
83.4082775044921
83.3123449296344
83.2523480465131
83.1872355281139
83.1086513185193
83.0097180100317
82.9974907742768
82.9213485828443
82.9930923983537
83.0628046342511
83.0467947506527
82.9486620424659
82.9619908589382
82.9406670807756
82.8867395997389
82.8011229128214
82.7728727803203
82.7280715491266
82.7830604195538
82.7598559260849
82.6711343133346
82.5514033899938
82.5437707178083
82.620044756531
82.6694407886645
82.5435270396088
82.5168565667109
82.473620682637
82.4745219552887
82.4283821734016
82.4096858649552
82.4305246818848
82.472809270621
82.4558826683376
82.5001922961247
82.5609981993358
82.5722194631079
82.5093075243333
82.4830367161282
82.4236911720129
82.3534295967295
82.3202973760362
82.3790046672855
82.3305825667604
82.2942512896482
82.3109280486648
82.3241272927944
82.2629979295438
82.3026178489328
82.2603675449196
82.2461865515268
82.2860492980848
82.3111624168034
82.2676425624933
82.3265737625131
82.2981236559619
82.2779614272137
82.2348554224309
82.2460288880844
82.1786395364294
82.2172400331433
82.2824295636985
82.3225810628558
82.2427941874104
82.2439551381886
82.2413905808562
82.2417050548322
82.3179278461522
82.4614327978865
82.4949577342348
82.4910897281798
82.3724864793049
82.30212775962
82.3615925885543
82.5248392410894
82.5719741342841
82.5757263268503
82.5241537693328
82.4807810026635
82.417647548333
82.4698030952113
82.556577752144
82.5906373143866
82.5558384856703
82.5807896109655
82.5985559351112
82.6503818786457
82.5910082811531
82.6543673582636
82.7316533513842
82.7536784633716
82.7820582068553
82.8188081119495
82.7194440847574
82.6748712128633
82.7128123069897
82.8001622241867
82.865428897145
82.9152177042779
82.9386326516104
83.058284132691
83.0471752201896
83.05506988867
83.0808380678815
83.1279272589966
83.1313133482363
83.2180151542031
83.2903015823314
83.3026399942142
83.2901784071543
83.3378051536604
83.4369892229031
83.5376502254776
83.4771819017979
83.4709865965768
83.4956341283938
83.6051140121189
83.7260752882329
83.8174453686051
83.8727397113972
83.9400196265001
83.9715400505048
84.0428819450709
83.9922064203868
83.8857724625859
83.9592599107772
84.1588706605262
84.1708248645661
84.2174058057292
84.2637022309701
84.3075254787015
84.3031977334675
84.3151690966362
84.2755486798558
84.3058033675684
84.3962557464715
84.6175993979257
84.8143078588995
84.8433091372368
84.7570161067002
84.7770790707062
84.8247960308522
84.9097350919766
84.9425471191635
84.934100904886
84.8795848221933
84.9811351557032
85.0833437107795
85.0755934965491
84.9739664672847
85.003224512771
85.0918156301983
85.1826904696847
85.192552235188
85.2498211838748
85.381928284262
85.4837974289312
85.4795496740013
85.5202836042267
85.6060030140233
85.6304306201942
85.4667457706006
85.4675565650301
85.5832725890422
85.6729109712667
85.7175380283451
85.7271677797036
85.7364699445831
85.8244824973567
85.8093754867197
85.8758137788106
85.9319226276835
85.984604599843
85.9755883011958
86.0825357161488
86.1544819884045
86.1089154922353
86.1921257034295
86.3557230630015
86.350107532317
86.3510162919065
86.3756261374952
86.4923478427385
86.5403626428426
86.4965977346395
86.465259082611
86.6029132355433
86.7209314534487
86.7155685233878
86.6849723968736
86.7583997374064
86.7818935876331
86.8456595809944
86.91309689133
86.905145020808
86.8609018648199
86.9007072867158
86.9303756519952
86.9739230807295
87.0047945618457
87.0718398783157
87.1167636312567
87.0946399704187
86.9849625990786
86.9932075683901
87.03995780747
87.0000942246421
86.9806583541199
87.0380426912835
87.0044797658451
87.0280976620558
87.027580389779
86.9935768412643
86.9801255894806
86.9300923389143
86.8450457885143
86.8406317541341
86.8597899624841
86.827858625407
86.7896691110579
86.8042662217206
86.777430108019
86.6962402397413
86.6762095502272
86.7827748284524
86.7636775435905
86.716892510962
86.7278853211229
86.7859178906778
86.7963929299857
86.8551686697974
86.7793150581631
86.7400019647857
86.7789770548426
86.7728754279516
86.7400136473777
86.7186341299456
86.6585691829456
86.7505057012037
86.7496191566064
86.7306537206688
86.7428275162352
86.7296637447564
86.7040707771393
86.7646407888582
86.8119336047103
86.9550071482301
87.013657180544
87.0672264771141
87.1456821571397
87.1814064307176
87.160895214348
87.2136376106049
87.2293938112589
87.3206048085164
87.3798028439166
87.4404499868571
87.506791317958
87.4821797167544
87.470616997661
87.5615935926543
87.6437523722297
87.6874416829463
87.6552542834713
87.6345565654225
87.6663846961918
87.7695250467678
87.8240141266231
87.8370761694945
87.8592745955385
87.8713853208197
87.8211697321489
87.8823563591425
87.9702053940971
88.0427896508172
88.11242134351
88.1903062336843
88.2466229787306
88.2910370520557
88.2720658465261
88.2708339144313
88.3015921898139
88.3636590830486
88.4041640626978
88.430001109025
88.4590646357783
88.4935915602791
88.5392707341863
88.651368578691
88.7541479402038
88.7993059794923
88.7967059111475
88.8288371032805
88.841983705832
88.8935624367408
88.9464685168733
88.9452437902983
88.984577160401
88.9995461711731
89.0099889255486
89.1074238495181
89.1483188081472
89.2018028748982
89.2817763340263
89.3204730630368
89.3172189167717
89.3274888207598
89.3176909791702
89.3264106805077
89.3480138525864
89.4524749069807
89.4834721542465
89.445831716809
89.4373262852884
89.5644812323204
89.6458048919637
89.582586654961
89.5510199407135
89.6078284384262
89.6335234673109
89.65667706999
89.6902111892569
89.7524458228577
89.7931187513969
89.7871255973987
89.7430466558389
89.770364985446
89.8343849491104
89.8948023178567
89.8976657494001
89.8968911120421
89.8847433941518
89.9010827048407
89.9509429051543
89.9982872021298
89.9933185889963
89.988678442056
90.0607373916068
90.1064053396641
90.0862439926697
90.0394345293901
90.0087752140941
90.061955854096
90.1500394225231
90.1801217954733
90.1390102530282
90.1551280680738
90.2168687727713
90.2694618793744
90.2663159944979
90.2814836631734
90.321879243521
90.3382577216722
90.3433119991832
90.3562988476711
90.3772997833493
90.4060568867844
90.4097885141548
90.4170424996673
90.3698815416994
90.3669731957492
90.4368806266149
90.5120649005153
90.5513970891719
90.5586036480208
90.5812965630566
90.6503462429263
90.6597808684599
90.6627803048191
90.6608475159908
90.6602434386363
90.6612782839778
90.672610553642
90.6917504044766
90.7581964276218
90.7799390082207
90.7875077624853
90.7862668444625
90.8029917293336
90.8567149955115
90.8452671081094
90.7942078868224
90.8096697908389
90.8248961239311
90.7994147809266
90.8283825793366
90.902706681713
90.9120108473781
90.8963126958266
90.899536482112
90.9381205051367
90.9526260443788
90.9587172179463
90.9773905087682
91.0194671274389
91.0458538646504
91.0375775423199
91.0824404579548
91.1284744330132
91.1438117498191
91.1932268343632
91.2313067377933
91.3064127700167
91.3314135189552
91.3506723347329
91.3203799493165
91.3290022029893
91.4432600359236
91.5475827842241
91.508676082764
91.4621980506369
91.5039436287943
91.5571970287112
91.6079763160726
91.6305663330204
91.6197367388067
91.637736191563
91.6901394774789
91.6818071750273
91.6865571670476
91.7835747114848
91.8413127725644
91.8676860766357
91.8577580614379
91.8689340123899
91.8909720767093
91.9248105877529
91.9461938912876
91.9288234887938
91.9485525450901
91.9645257688874
91.949886250693
91.9840449509884
92.0513501412847
92.0580871458591
92.0896216172825
92.173146283755
92.1771807729932
92.157503401704
92.1644344619594
92.1975211054762
92.1634965665005
92.2407305844315
92.3606405183883
92.3262805269876
92.2659414524614
92.2634762135547
92.2385354804727
92.2445039068862
92.2706977405492
92.3730068690248
92.4505369485548
92.4305368570836
92.4378525405152
92.4969955538695
92.4107772299251
92.4275260364024
92.4841010345701
92.4695023381086
92.4960827085203
92.5335053583267
92.5306918708552
92.4388736120199
92.378052129111
92.4618833514862
92.598414466813
92.6126899096928
92.5373834712169
92.6325313069052
92.6716258586117
92.5991200781082
92.6015998718152
92.6304842609001
92.5977351860243
92.6459231624479
92.6674731687899
92.6246912090687
92.6559041196448
92.6893900164519
92.6688223001373
92.6407759715994
92.6625122191206
92.7479836511443
92.7338673188424
92.7238589820667
92.8017601763299
92.8021173993968
92.752781042487
92.7010457069865
92.7138562209489
92.7889780596691
92.8222367041234
92.7220541180612
92.7354352527084
92.8276875275392
92.8264416837001
92.7771543304021
92.7805814531659
92.8011852747719
92.8072460632962
92.7460674034112
92.7692274246222
92.8662260847702
92.8942987546392
92.8918642163467
92.8939614885123
92.8713374769036
92.9038233808307
92.9148896691507
92.8734416409688
92.8665318562754
92.9475367566491
93.0308246737881
93.0188988293253
92.9246021792368
92.8885334561658
92.9184571305805
92.9108039096542
92.9150401749347
92.9325016134239
93.0436780528924
93.1181480978851
93.0504634120222
93.0200107060856
93.006337611609
92.9844615638215
93.0096893418155
92.9914745989786
92.9343455860263
92.9290176528463
92.909985004664
92.94541182207
93.0450346250786
93.1292328176426
93.2037266934743
93.3278907285616
93.5169961515322
93.6668134833493
93.8283153700299
93.9552213757482
94.1776863716106
94.4281655234546
94.561863098556
94.458958126156
94.4969852456184
94.706002545035
94.671599884248
94.48856642213
94.2934097079036
94.0747447172739
93.9156416885008
93.8505460171669
93.9119111861523
94.032693755836
94.082307614621
94.0296869413944
93.9896314795444
94.0288509637816
94.1143550741299
94.0841523949753
94.0768335534409
94.1270072579632
93.9989834179
93.8547425952325
93.807888970624
93.7056489701647
93.5977281212243
93.5379689628569
93.5693979590115
93.6265485882793
93.5685818094466
93.5329045056525
93.498074917442
93.4514860966275
93.5232383402853
93.5294657017967
93.444610253095
93.4076233604018
93.425035988208
93.3944848602419
93.3173676482023
93.3144885106936
93.373541441396
93.4193859262433
93.4046318354017
93.4252847012633
93.4257995854587
93.4858007039853
93.6420328890724
93.8159914281745
93.9314559869841
93.8785563832746
93.9348036526935
94.1957171672202
94.1361754870505
93.9908754682364
94.0569813460964
94.1197629915858
94.1201430619527
94.1972746462244
94.3171231162305
94.3128695932264
94.4449254732909
94.4373437074098
94.4290015837261
94.6368037949004
94.5984950803725
94.6740713648673
94.8806509676394
95.0787402138078
94.9398686753063
94.739660549078
94.8162667294996
94.9354770327378
95.0854796391311
95.1475842505639
95.1098474133636
95.1088550809502
95.2866427159536
95.4912675802446
95.4309960656117
95.4862738663922
95.5988632395308
95.5986572917809
95.3195509898108
95.3507578327744
95.5423172870386
95.8083638204696
95.8796975935101
95.6647659166778
95.7729277860065
96.039899800288
96.2320826922568
96.296987464847
96.1557692815088
95.8122609602232
95.9340653605341
96.2066906007789
96.103755751771
96.086072977834
96.3280882692794
96.7378767199327
96.7845435638834
96.7213026814384
96.7010136599926
96.6643143143085
96.8960382547604
97.4572040125362
97.5526693481557
97.3147821695252
97.4533114849891
97.9676908272804
98.2773289686887
98.6132128848741
98.3061622613082
97.741892398018
97.3926059085787
97.2810259135612
97.1115608490943
97.0070453502942
96.6887145460178
96.4733979724078
96.4103302528966
96.2756788769651
96.0985886444826
95.8162292302728
95.7157691632395
95.8118717359621
95.7443993574482
95.6378676918925
95.580591329638
95.5518875206526
95.2776613621171
95.0542916509097
94.9808619749222
95.0317191292325
95.3586420338447
95.3729044660555
95.2580733802139
95.2031774979515
95.1176778680313
95.1208416771558
95.1156147246151
95.2269031700762
95.3712197984551
95.4107797236864
95.4396601625795
95.4615888259683
95.3500890202317
95.2775653564826
95.0828007456037
95.1282096037044
95.2520519751879
95.2884251280698
95.4912450433355
95.5155563289269
95.34910344324
95.3477631183431
95.492648717213
95.6919789774944
95.8339958091842
95.7992456666348
95.8725862512798
96.1413983721499
96.2342839519829
96.0546364712225
95.8870673713065
96.0507442376565
96.3364581127115
96.4124652894731
96.3330746065044
96.4662814923506
96.7823970002252
97.196944843884
97.2211368196092
97.1331842653626
97.3544002853228
97.4966649381815
97.1486084093823
97.5358314850503
97.9198479858956
97.8853465095944
98.2153420700886
97.9289804743138
97.7257787656832
97.9630117390016
98.1645783706917
98.1453716208729
97.9602030494309
97.9584183479844
97.7365189915396
97.5358045871033
97.5110707627786
97.4685563079526
97.2623383078154
97.3372436647729
97.2500992794373
97.1744742650197
97.2635842986132
97.1441618201976
97.1126435939563
97.3491027125437
97.3411756187574
97.2003380094304
97.0398899937728
97.1668553438759
97.2630487529609
97.4107407320238
97.6140599278683
97.7905076892472
98.0175137142582
97.789000417862
97.5620530730328
97.6402900060637
97.6164823374075
97.5586200426763
97.4555780336464
97.3400150557537
97.4693406058162
97.5265572343663
97.0902613084164
96.9505926099517
97.0053031448755
96.9547338087628
96.8015024294449
96.6175157972621
96.4900304141626
96.6062424137635
96.5128297938463
96.2997976590458
96.0375201500863
96.0385528229012
96.1544457655658
96.2038776517794
96.1283978154927
96.1706554400511
96.2469130320343
96.0781462473268
95.9331033176293
96.0309784385112
96.0061072716976
95.9516505895206
95.8147375505368
95.7946948659863
95.7815039548261
95.6732510684456
95.6203611768169
95.7349585349756
95.7853987630589
95.7983965104653
95.669854143249
95.5809342410632
95.6254291744211
95.7168621103415
95.7510015222955
95.7285530212273
95.6495535193715
95.5878847167744
95.5986845819746
95.6058142847921
95.5872977655188
95.5634264757812
95.4953054736464
95.5611685845152
95.6232306630146
95.6257616680008
95.6179411488787
95.5952397694547
95.5712363632597
95.6188610642908
95.651405344593
95.6745197711791
95.6418355121831
95.5666363094789
95.5320582791183
95.5474000559997
95.552975533563
95.5348060979114
95.5102236557725
95.5776521604001
95.6385984872378
95.6768554750238
95.6486627017384
95.620870402145
95.632061499351
95.7213606448623
95.7335318210018
95.6551053505486
95.6425720147895
95.6775050456708
95.6091580282967
95.6367569620959
95.7056512637458
95.6700554299237
95.6076596125601
95.6116762065158
95.6724658382988
95.71016447861
95.6705757417316
95.6622499726278
95.6028485302583
95.5007280592594
95.496952332295
95.5161636903377
95.4691303345154
95.4578046177382
95.4077362902659
95.4118370189763
95.3771924151266
95.3046052892241
95.2221499141344
95.1405327077406
95.0359342837992
94.9929772566095
94.8867819948166
94.7587848312829
94.6253818369786
94.5676294548886
94.4737611234738
94.3923418678224
94.3319262073324
94.22176053996
94.0477522167384
93.9518182821702
93.7525065058586
93.6121472169806
93.574498342919
93.4227563909655
93.2741702726592
93.2235658809978
93.0979886630207
93.0516824544474
93.0606226104477
92.9282054984369
92.7544442652392
92.6652747608825
92.4973458738599
92.3478318744737
92.2962441825519
92.1430323945473
91.9753690382699
91.9578979224415
91.6596205589566
91.3895425030349
91.1549072120848
90.8989669394622
90.7154266597146
90.5297307752225
90.2659688061036
90.2076088604235
90.1868520318017
89.8950436195274
89.5191433922905
89.2313992490999
88.9278438914421
88.6742577997423
88.45723292713
88.0955084974458
87.7636440163792
87.8085503848442
87.424137457014
87.0668818468491
86.7059241419026
86.1127394917664
85.6879082072664
85.4166722767011
84.9559817809363
84.7727460674155
84.6450048958469
84.0885617870599
83.5126173225836
82.961439512011
82.6632593550865
82.3856780177223
81.7979024863957
81.4325425324716
81.1585704515561
80.6014732455956
80.0046634433619
79.6513986826937
79.2339412975733
78.7490965224161
78.1631741834963
77.4908727001274
77.7453534644914
77.8728486230217
77.0719837654037
76.6457291464427
76.5872112279929
76.1148725401145
75.5741358463821
75.1801611734965
74.6697945283749
74.4822053040116
74.7287503802899
74.3827328610387
73.8070754462714
73.497432394434
73.2745021857244
72.8895198816515
72.7749063145899
72.7294886529116
72.1986703352164
71.846507375746
72.017876760774
71.7501383070392
71.2279420025783
70.8833351862985
70.6195170634058
70.3645714268746
70.0253244076957
69.7539656651378
69.4821855772382
69.2010422748757
68.8886601263884
68.6837151586445
68.5344814779565
68.3461932063836
68.1223497967634
67.9747555134792
67.7930466611138
67.6742174701378
67.5857469337904
67.4749371739979
67.014772502279
67.0615298984952
67.7766141409154
67.613756064806
67.1667623313941
67.4922929529555
67.671757439033
67.6217910069469
67.6607551278282
67.0246995178694
66.6045643651261
68.7338133145897
69.2396807653439
69.1878323746089
69.2057359287317
69.253785764088
69.6611951319915
69.7073860688518
69.8649752150344
70.2418228154058
70.5695123168391
72.2517539738149
73.2422676132588
72.9164936341243
73.1353349614467
74.0798187039876
74.3196815361415
74.413791107545
74.9261551153966
75.4557970836164
75.6521617494898
76.6109195514565
77.1280585256951
77.3470689895235
77.7940569794728
77.9445296925107
78.1956759533319
78.2408375404864
78.2768802634453
79.7225753307118
80.4063280530712
80.2968616891653
80.2616714427254
80.3796348586231
80.8703377194954
81.4469964214049
81.4842854319841
81.5244535177177
82.0208489750799
82.4020896340497
82.5551826423701
82.535968155747
82.5870814294997
82.6700129128286
82.6149143461649
82.5341299037938
82.3778617910676
82.3869267706708
82.3464138096197
81.8976878664864
81.3818259760283
81.0956952674703
80.9319398581628
80.508351353546
79.9975366504014
79.9114381249401
80.1358314427034
79.733166305153
79.287679591092
78.8914391275354
78.6733592503685
78.5228829957724
78.2346144273826
78.0146456673146
77.813946708369
77.388022668226
77.2446436590841
77.3372747016051
76.9324530473905
76.4708165991448
76.1735475833094
75.7931405534886
75.2958234441718
74.9790079665733
74.5334029918881
74.0255186036488
74.0180989251512
73.8058107931252
73.313063006243
72.8648474720584
72.5511446755752
72.2788423109383
71.9631890346602
71.8133890363038
71.7708846711331
71.46899857711
71.309420409578
71.3726159965951
71.2870661391347
71.4406123570295
71.4715224443514
71.2323866575805
71.07066002151
71.3190139062146
71.482527577129
71.4425359852823
71.4538570917262
71.5375586595478
71.6105028699514
71.6810843794676
72.0533826825054
72.3267202770732
72.4207619104072
72.6566798534071
72.8350746971061
72.9162507633448
73.3181777635422
73.7892568237989
74.0064032056272
74.1695485670189
74.4198624403004
74.683741302646
74.8907397562212
75.1191884006855
75.3762870290385
75.6262206294393
75.8335521499161
75.9563684519867
76.1979530481791
76.5752771335612
76.8126206040334
76.9282247030581
77.0345165949682
77.1613007263519
77.2974580309753
77.4315978175684
77.5459541231733
77.6639937317707
77.7563417234117
77.8466658106738
77.9605005684314
78.0430394250572
78.1387198868939
78.2715463794585
78.3641958975054
78.4344777931932
78.529117859793
78.6073181973676
78.6903107142714
78.8037938999679
78.887353235711
78.973569735507
79.081765559195
79.1655270462942
79.2429601014303
79.3120511726434
79.3831151831859
79.4394078784014
79.4662850259706
79.4737094560434
79.4761145545294
79.4842659279542
79.4681521233517
79.4104594060343
79.3778703670065
79.3673741812943
79.3255313136206
79.2614281517541
79.2132218349336
79.1682515782401
79.1191188811212
79.0854614002108
79.0545670535147
79.0426650430283
79.0238625728318
78.9881706197774
78.9574026887919
78.9289675351586
78.8989326916571
78.876824761592
78.8649730473693
78.8521868792359
78.8417123524655
78.8589408008558
78.8785320615253
78.9040662655207
78.9512353648456
79.0184274368088
79.0898586892069
79.1454154950132
79.2053549658224
79.289986952932
79.3900417919466
79.5024380843672
79.6186548976303
79.7244957971493
79.8356929365405
79.9527847302592
80.0684119624021
80.1743015331585
80.2897929387001
80.4138229113779
80.5389615734041
80.6623753625005
80.7961557586149
80.9252681236646
81.0436073164418
81.1423929790481
81.2090516855532
81.2628818435404
81.3032658693539
81.3064877765103
81.2930434658646
81.2608301460276
81.2182336315768
81.1681058634025
81.079923885398
80.9895552771478
80.9214141808534
80.8386064545754
80.7367938700109
80.6718462984535
80.5815959595726
80.4761255176453
80.3744287636785
80.2516971080616
80.1443901345098
80.0226966450487
79.9044883494158
79.7872164863983
79.6425767261995
79.522219415002
79.4123145538207
79.2626473489797
79.1130987457258
78.9476741253846
78.7400689153516
78.5292571654451
78.2788803899338
78.0240072427799
77.7646221154014
77.5182198764434
77.2986264145188
77.137414634717
76.9716510836597
76.7867376976517
76.6731037662693
76.5870296032506
76.4752358436931
76.3724056117995
76.261229788012
76.1349004869165
75.9813285046447
75.7995233388682
75.6239650403351
75.4241903092423
75.228326594335
75.0178060764016
74.7600123610449
74.4797312478052
74.2100529150268
73.9701062654534
73.7150536449878
73.4568092742248
73.2110749495332
72.9525267725009
72.6908039946805
72.4737412798401
72.2758528349472
72.0483155505588
71.8390639231083
71.6696503552165
71.5227360355734
71.3790064728056
71.2509833967463
71.1232899216195
70.9733107028661
70.8310104179678
70.7014514133086
70.5444347043371
70.3985153350791
70.2663792372538
70.1459182974577
70.0139240494092
69.8705178990279
69.7709675569646
69.6719960316069
69.592704204646
69.5423627857111
69.515672720151
69.525973919061
69.5736794378922
69.6589800975418
69.757158273134
69.8699183423046
70.0168386566226
70.1954704550755
70.3811044776495
70.555140741233
70.7871941128158
71.062955154823
71.3217176593563
71.5968736327373
71.9067531323419
72.2275411106947
72.5847700982969
72.9108900493602
73.2410859700062
73.5576437147372
73.8735750853664
74.2167927359646
74.5590980088113
74.8704693499786
75.1471901659686
75.4162889724883
75.7019721019755
75.9771220853978
76.213815764289
76.4203755356641
76.6349949528424
76.8520712846795
77.0664472612407
77.2738189863443
77.4732857131603
77.6447274504816
77.8370078555559
78.0858629477242
78.3397499121072
78.5632413691662
78.7815636227338
78.9966911467668
79.1890919055381
79.4051904708317
79.5961865566665
79.7560347357362
79.9496223708296
80.1224444563885
80.2775430602269
80.4529938613158
80.603804547062
80.7804122962301
80.9760461754539
81.1150641758994
81.2435836319888
81.4141449612305
81.5596727950841
81.6513246734027
81.7654951455183
81.8914445396552
81.9885465093692
82.0824008283673
82.1425255807879
82.2234718078469
82.3047383842879
82.3441697165744
82.3988594891893
82.4905489563361
82.58929172974
82.6262515887527
82.692978569586
82.782334578072
82.8329296940787
82.9297465686003
82.9960241564311
82.9935718798764
82.9842981150076
83.0070429954287
83.0507461202666
83.0636664756397
83.044088765568
83.0685348398978
83.104979047751
83.0835492669169
83.04105210109
83.0311389783112
83.0683925450153
83.0783509604444
83.0429968532136
83.014080341632
82.998313112633
82.980217338665
82.9787504586446
82.9480639886438
82.9104628931205
82.8651052504831
82.816031640111
82.7608010823601
82.679457900802
82.5777499646113
82.5113156121781
82.4243047252685
82.3066905296695
82.1991320656768
82.0775507665482
81.9424275168377
81.8198041158415
81.6743416918198
81.5035638516402
81.3681357563986
81.2805625123449
81.1626756635141
81.0303784671677
80.906363545836
80.7597422158291
80.5824069980963
80.4515717891066
80.3438590696975
80.2003197366021
80.0524758958243
79.9094106945696
79.7423836361419
79.581021750969
79.4253971195139
79.3277834706256
79.2066482122154
79.0364824943453
78.9201602518659
78.8808010353009
78.8050689729445
78.6448975670114
78.4759537087214
78.3946162736408
78.2968645451001
78.194393121655
78.0816142828868
78.0138523535304
77.9128183783355
77.8355798091319
77.8062416470398
77.7560186829878
77.703117141335
77.6284867488904
77.5988802645576
77.5748253212866
77.47221112384
77.3912407335325
77.3373744617939
77.2623032082081
77.1566109075131
77.0994076264844
77.0168043319287
76.9156480766216
76.830663139354
76.7636625808005
76.6793832002335
76.58159293167
76.5099066712348
76.4254368373474
76.3160562196527
76.2481482446475
76.1993285681348
76.0910683177758
75.9396893552901
75.8094601470829
75.6872789711252
75.5758699417215
75.458866401863
75.3760798354206
75.2462573173136
75.1134970103417
74.9606529236313
74.8068463244902
74.6387868647226
74.5036424230034
74.4445400940829
74.3297524896171
74.1697437943019
74.029227099713
73.8727968176403
73.6926977786032
73.4685566803436
73.3238168590314
73.2385371805312
73.1337394141252
73.0603623120878
72.9616612693345
72.8309852314144
72.7747217101475
72.6430573480622
72.5553438464708
72.4642072084493
72.3393673745469
72.1941451099249
72.0542037134874
71.9012625059637
71.7284730343671
71.5998564239279
71.5396196691443
71.6710724794432
71.9310754675247
71.4509012991084
71.0299797247293
70.8764191407288
70.810920464257
70.6952746944497
70.5749600449786
70.4520323547161
70.3703969527939
70.2326390169376
