1798
3999.43349933624
650.420452594757
1
128
4
94.2131238780277
94.2113454923889
94.2483786572657
94.2874576835502
94.3748217017779
94.313421811084
94.2551439341346
94.1442111236017
94.1266769677338
94.1412141955514
94.2484704418207
94.2592501073231
94.2689725181776
94.1692120856695
94.2324163085514
94.33526165868
94.3522078612744
94.2444098897831
94.2482922628514
94.271379590631
94.2718249358121
94.2027473228662
94.280527633872
94.3842408326656
94.3523256253358
94.2026127899659
94.1627257663929
94.1591555742443
94.1964591665435
94.2379000176886
94.3309460349489
94.229298424908
94.1811622991379
94.1968118436494
94.1995405067678
94.0891014102488
94.0953444133162
94.2315027574318
94.3490637547693
94.3098140049399
94.2891405533059
94.240188589426
94.187342090213
94.0935150010947
94.1646477159559
94.3468598268105
94.4604252012902
94.3631797961769
94.3058508121284
94.1791872562339
94.0396076724887
93.9027153669655
93.9581644408694
94.1006233274097
94.4138089873728
94.5034281749571
94.4499981347723
94.2897817027898
94.1632268010054
94.0838749881331
94.0894865737336
94.1085910256761
94.2536684652882
94.2808853254633
94.3432541003026
94.2992051040914
94.203006077439
94.0819247605762
94.1232756129155
94.0837848848994
94.1697298010603
94.3008672942214
94.2870308197937
94.3261528407853
94.3761711092461
94.2092281213992
94.0244383182943
93.8218418844817
93.8473335859347
94.3126978972646
94.723974919771
94.68436077036
94.4996055848026
94.2455389191098
94.1228180916082
93.9670597297564
93.9647137277724
94.2400113118096
94.5745292594313
94.6031932257338
94.6652121323019
94.6203286318213
94.4646822889075
94.1667789726876
94.0083027352178
93.9876867539856
94.1712893359243
94.3260300092915
94.4268594522666
94.5129775891785
94.6343261470621
94.5395441597321
94.3885845401118
94.2298727434872
94.4463121453897
94.5061368484468
94.4884051188879
94.5611615591738
94.6173672647599
94.790039486171
94.9062808292345
94.5449841403804
94.4268391044443
94.721869325918
94.6697035312743
94.3363222859102
94.3015397838859
94.0636358290658
94.0117922029818
94.2388808756674
94.5778261089404
94.9066518102307
95.0554464228407
94.9539978483839
94.7125554719002
94.4761915648937
94.507136718582
94.5536853712405
94.4109936367997
94.1433870188916
94.0478511990917
94.0435396919906
94.1463053420996
94.4734214309913
94.7455275252014
94.7985849570018
94.6826748078566
94.8169276901911
94.6394307395081
94.2909131950996
94.3699953653262
94.2040139528912
94.5521286251174
94.6663288778216
94.6450421719167
94.7823460162033
94.6375144353069
94.6815291459244
94.9469665780529
95.1942251464844
95.0903501997486
94.9198213439538
94.8752746487046
94.3577225327023
93.9460488261386
94.5233850535963
95.118463955221
94.9256316829301
94.7493670721139
94.9721407261755
95.1297373540178
94.7050672288651
94.4500420957106
94.3373507915187
94.0850631156387
94.0818133566558
94.5914302055719
95.0032337158349
94.9690233934442
94.9759815635803
95.2675215633845
95.1958347630853
94.85724646338
94.4536522762124
94.3461447560541
94.310534774333
94.5744545858297
94.8504997836258
94.9944397077989
94.7883138915456
94.7709000295641
94.7176453349296
94.5260844154272
94.385349490567
94.3216595044921
94.1480402352268
93.9418514236594
94.0200843334648
94.1848490749345
94.1032339830326
94.318448188946
94.5633405600182
94.7253681731653
94.5639113393788
94.2989425583753
94.1651072639501
94.0719673190593
93.7339561911282
93.6126286616116
93.8229961576404
93.9933494929514
94.0565476918586
93.9944698741624
93.5943246463684
93.5006551663266
93.421091557582
93.3564256102472
93.2742944560012
93.3256897414464
93.2720592348645
93.3182131511758
93.4433335003629
93.422840561272
93.2473028400352
93.200819703925
93.131409635616
93.1180303423852
93.0467447616372
92.9373619216112
92.7316539210185
92.491088446072
92.3911222496046
92.6564603848621
92.8033980967677
92.7916629343916
92.6293816489813
92.5519569719769
92.4649101111545
92.2652805521219
92.1505693144446
92.1156060901144
91.819854530436
91.7245441512412
91.8225029840667
91.9939022219833
91.9364224759046
91.9387402038403
91.9012140362849
91.6890011836953
91.5101951070499
91.5946463530575
91.5620725002892
91.3716793830111
91.1664214786272
91.2435416175513
91.25114425564
91.1477061188296
91.0108387913396
91.0553333829769
90.9405384373692
90.7542618156211
90.7435977012315
90.8514989787087
90.6762435015795
90.4809884735483
90.3967803357101
90.325367344395
90.1854992209353
90.2820740144033
90.3170543032764
90.2395761597473
90.1233344543852
90.0644446284102
89.9223013309479
89.7907262924606
89.6479694986677
89.6213295610676
89.5676138581507
89.5469915105144
89.5148534521949
89.4737645232119
89.3434430384578
89.3529465196379
89.2528473453692
89.1332914394676
89.0360710140606
89.006065679191
88.8848545198706
88.759133862664
88.662097239854
88.6369222975276
88.4803919207451
88.433610865667
88.3614741553432
88.3316351590793
88.3301375421475
88.2612125322138
88.0739084591907
87.9841778791964
88.0297049520755
88.074380904194
87.9316302120143
87.8589000071326
87.7816373318648
87.7244700353093
87.619381404344
87.5550771457908
87.5079883601282
87.4501238854672
87.3512212078227
87.2935440547996
87.2108294703668
87.1761964648727
87.0685576947351
87.0502848150186
86.9937714064644
86.983839127164
86.8605968875662
86.7929891464579
86.753123323236
86.7156264665143
86.7231586083792
86.660038966122
86.5302599312331
86.455435982564
86.3738203432704
86.3552700190731
86.3262803290251
86.1477978988945
85.9864442862253
86.0622160001396
86.0243887426962
85.9239512278423
85.7975688386941
85.8581906445534
85.8429888346014
85.805760334735
85.7636059186648
85.713515511706
85.6800068474774
85.7199179252687
85.6400479022375
85.553875477123
85.4095539848336
85.3275221641912
85.2679651283418
85.3450887899378
85.4188926973671
85.3701409850778
85.2673294183156
85.2724716298176
85.0966663901836
85.1031234856729
85.1261449579714
85.0736763154504
84.9431811804076
84.8925150835526
84.8782093591681
84.8553494064804
84.8291784390436
84.7597285692896
84.7428584790732
84.8435287569471
84.8288947270148
84.8078057530229
84.7640579142997
84.7524727454071
84.6764021648962
84.6578888765523
84.5834794903253
84.5365940286704
84.5734414949385
84.5702844253765
84.5222491827218
84.5474211844741
84.5692970739623
84.5599469263963
84.4528149657848
84.3887784071154
84.3880783862478
84.418751163054
84.3816460671678
84.3740931932766
84.3719284207443
84.3272849826726
84.2277320427231
84.1935774341985
84.2556765212271
84.3343315778052
84.3597455166024
84.2796740734787
84.1107481473235
84.1175307819158
84.0696943365702
84.1072432414711
84.1296745976182
84.1058588581283
84.0557361736421
84.0629166529813
84.0946021312418
84.2122824348188
84.1830126155763
84.1474420956337
84.0379738903833
83.956896414729
84.0456107684292
84.1402127994011
84.1209455417664
84.1275378623036
83.9773768089342
83.9035608406428
83.9799726248398
84.0958185251501
84.1449982774093
84.1295868382695
84.1087342618184
84.1270823815055
84.2101166514486
84.1864256465479
84.0981353541086
84.1601306615414
84.2734268977324
84.2677174169044
84.1016352286988
84.0983438595292
84.1138250502223
84.153813160005
84.1339390353396
84.1814340152989
84.2228955505035
84.213792575076
84.2095823404664
84.2537756924157
84.2581730841341
84.2944477608618
84.2861898325723
84.378299411853
84.3683572354581
84.3764150442013
84.4375878825657
84.4798035350595
84.4384315119808
84.4398132384064
84.5117593868319
84.5853656087502
84.6246539438161
84.6262286605988
84.6187398408551
84.6367950674268
84.6044428555837
84.7095376810679
84.8078303927709
84.8584058384472
84.8730906930012
84.8812184670423
84.8909859429288
85.0127921619573
85.1341995663285
85.1427385773334
85.0995147428129
85.1257742963774
85.1825574537514
85.2241182088261
85.2225115457486
85.3416334859844
85.3909215028585
85.4007643115916
85.4042207461232
85.4365448988981
85.4860448836113
85.5615339252366
85.6857276825577
85.6909184757092
85.645619865382
85.7143334045328
85.6848652823872
85.7341815619785
85.8346806253127
85.816378602168
85.7874367933613
85.8983733023575
85.9813027334889
86.0927531341654
86.1278602157805
86.1779534415523
86.2297845305451
86.1620100313649
86.136206095726
86.2715721818667
86.2651547386547
86.1961347255531
86.1974830041826
86.2198079223128
86.2718732072593
86.3794669593434
86.4074053722189
86.4551690375656
86.5043336595463
86.5077123764794
86.5060917507003
86.5173920904881
86.5386342664157
86.5558288989738
86.6377670880154
86.7651439931789
86.8142384521532
86.7636920330747
86.6932101490304
86.7022885082526
86.7414061461708
86.7849946998774
86.7651889390534
86.8140347676999
86.9090834370359
86.949888249123
86.9460843121082
87.0037314389218
87.0256357569414
87.0548972067165
87.0524998951226
87.0451967263392
87.0603738762256
87.1930350804155
87.3009519317361
87.3583030857509
87.2744326453528
87.2484612348268
87.3466767192509
87.4594058977212
87.5188636555663
87.509825574478
87.4714918991066
87.4973715708591
87.5076569632689
87.4802207027956
87.5255230016044
87.6334079393885
87.701542516383
87.7544872243212
87.7854306614003
87.793500918196
87.7564580920764
87.7752443024703
87.8067948232019
87.7738011627126
87.7426917816151
87.7834529853543
87.8690244473039
87.9062938573863
87.8560541360125
87.8664266067954
87.8847440755472
87.820498722259
87.7082418049506
87.6632996365665
87.6421892845703
87.5988475778634
87.5994164091843
87.5529388164965
87.4775536734896
87.4183919074338
87.3562555564676
87.2354228881962
87.087756208788
87.0648094006923
87.0474240140792
86.9552006239973
86.8896845388931
86.8853282873693
86.8524100067213
86.7786523954987
86.7369380623999
86.676974066813
86.6060325132841
86.5888377322842
86.5516689477783
86.4833420461923
86.4305644854173
86.3518259216281
86.2104121587852
86.0868933950766
86.0628928621918
86.0211201701884
85.9151579088969
85.868254333741
85.8972657024169
85.9372127679842
85.9007072678593
86.0067556131589
86.0635282272988
86.0410502986062
86.1044576146453
86.2171278388474
86.3210469471488
86.3946238702923
86.4478867729233
86.5150459057486
86.5541595880448
86.6116368567299
86.716271558692
86.7620162949811
86.827811181565
86.9517818848037
87.0095236557671
87.0085807508604
87.035378339538
87.0614766916836
87.1059977993909
87.1700434980292
87.1749516924782
87.1861763712055
87.2180743145927
87.219181311322
87.1857974923885
87.227375140963
87.2467089136895
87.2133987497934
87.3063354191338
87.3907758973755
87.3425912458549
87.2877809942789
87.3978151644417
87.466438941274
87.4400806491677
87.4251396425541
87.4697282922786
87.5592777076064
87.6604123474261
87.7118274915472
87.746239728511
87.8372661680005
87.958028043786
88.1015910343672
88.2213142216243
88.2267556934002
88.2816805553974
88.3647771766075
88.3709789000626
88.3894125894933
88.506480340228
88.5637730263568
88.5732836925384
88.6006934925063
88.6323340554265
88.6606186536547
88.6883420173612
88.7213226515907
88.8075193741739
88.8428516758911
88.8638953658035
88.8916657439978
88.9016460945537
88.9207699386214
88.9656052059876
89.0421748758827
89.1316809126796
89.1615129691171
89.1754651255049
89.1605130108428
89.1805345722445
89.2345466162777
89.2408726251096
89.2378227081438
89.2759686689053
89.2780419905739
89.3179373641085
89.3924347477398
89.4697096271598
89.4729678724429
89.4368150686865
89.4391222927968
89.5083194441662
89.5355029325039
89.520411452684
89.4969291995299
89.5683599575385
89.601594956657
89.5853829390528
89.6092742261806
89.6743053850043
89.6803311734936
89.6770971356252
89.7384080913104
89.7767392659403
89.7489707600682
89.7761324949849
89.7588556540829
89.7485977842512
89.7910713356954
89.8463965619667
89.8600530346993
89.8536294032513
89.8713991944851
89.9114936206482
89.9007429227238
89.9195125224081
89.937405091613
89.885314152167
89.8659336719384
89.9400000895155
90.0155167004968
90.0348441531329
90.0332381555641
90.072202616939
90.0580072511652
90.0651724017746
90.0858916307697
90.1212022102082
90.1294093490074
90.1576698253167
90.1664228205241
90.1690549258531
90.2084693171354
90.2016351294644
90.1718588010063
90.2221268056969
90.2492840379334
90.2651804431418
90.2630178524076
90.2967472676122
90.3353971651884
90.3048832618051
90.2902657258672
90.3327845887225
90.3816112470113
90.43358315496
90.4063661029207
90.4027926036247
90.4407639755151
90.4501236393761
90.4656111908693
90.481300686761
90.4768981492094
90.4178925204113
90.3965330492376
90.4098361748798
90.4710754862101
90.5564560491641
90.5780230550077
90.583802490492
90.6049004284868
90.6227726328131
90.635894132655
90.6776931858576
90.6954634956183
90.7259264993586
90.7393598283579
90.7783737343703
90.8043032501834
90.8087544943626
90.8140656766848
90.878608336424
90.9099258424967
90.9036264060442
90.9304194026437
90.9945645780637
91.0005624042123
91.0386013656287
91.0668616995575
91.0551885000582
91.0838575202624
91.1579758929888
91.1235655115718
91.1892466105579
91.2532298731447
91.2869343459805
91.3325487667359
91.2917008403053
91.2391744390455
91.3056377082595
91.3586211965761
91.4042047052787
91.3776674929803
91.3861496188822
91.4053870409354
91.4477613732046
91.5345129225183
91.585227669339
91.5357491525693
91.5385766000975
91.594023717471
91.6307903025282
91.6340512867517
91.5496087293436
91.5450055203562
91.6736612303236
91.7034626849129
91.7006519398246
91.7120398578523
91.7969620528295
91.8050467298103
91.7428809150457
91.6777654993664
91.6970540881056
91.7257148429897
91.7231944771319
91.7613782618453
91.8852061734785
91.8733455280787
91.7867419658588
91.7677901774425
91.8847189466536
91.930879714788
91.9777709952934
92.004357092771
91.9781618221585
91.8892969028269
91.9408076271369
92.022582136257
92.0095492701367
91.9230422554187
91.9106754114071
91.9570515721291
92.0261039788567
92.0629024082647
92.0644804449683
92.0240405107342
92.0263329490194
92.0450082360752
92.0183162864434
91.9802128760734
92.0979657896159
92.1037240758521
92.0455979375071
92.0713174197797
92.1083839666734
92.1662972787814
92.2110981964696
92.2280265639721
92.2409531139751
92.1763626688782
92.1531302408606
92.2100860141687
92.2642474587085
92.2413316308555
92.1826364509916
92.1473530117293
92.1700821980983
92.1648072753982
92.1278070947412
92.1737682713519
92.2852206159255
92.2641455964469
92.2701407015406
92.3051873039617
92.3301447554641
92.316929196958
92.3707127455238
92.4252438846555
92.39166978294
92.4054355258092
92.4733661521656
92.3982208023295
92.3827417464006
92.4691057122706
92.5091583054387
92.4399517075465
92.4409059347196
92.3960647432389
92.3557071874498
92.3579957401699
92.3637028942063
92.4429871390918
92.5062517921186
92.4331835960696
92.4239422432588
92.4474370156238
92.4035549329377
92.3717670871635
92.4515036557716
92.5416876374217
92.5356675314912
92.4530855332151
92.4132567459252
92.4204073411981
92.4357382974134
92.4717632092638
92.4795396835814
92.390971532055
92.3185040436014
92.2677413274482
92.2394890080457
92.2385168887565
92.3191660345274
92.3517949491565
92.4000004332715
92.4850390761816
92.5963399696593
92.6394150070286
92.640444785515
92.5946746114186
92.696562458762
92.7822436924401
92.8783326124641
92.882992208534
92.678834111544
92.4296413908511
92.2997063951526
92.3055096057983
92.395055454604
92.4892533308481
92.5817459915105
92.5829909733618
92.5637201706538
92.5911639282016
92.6166060714392
92.603255993962
92.5887185316137
92.4362526413422
92.2371542901223
92.2276052568652
92.348304562553
92.3798378271259
92.3991471288289
92.5020494020138
92.5989101417491
92.5413828945023
92.4862129071682
92.5568623536037
92.6480527782618
92.6270567137433
92.6019357540201
92.6039655797935
92.7030154735538
92.7281335244701
92.7885111019567
92.7692129276307
92.7055629913876
92.7536134832261
92.7952798883279
92.8073243423647
92.915905099312
92.950696185029
93.0244764480093
93.1956463554176
93.3400124490865
93.3550778945904
93.3836267073028
93.4208082973423
93.4550798175427
93.4883279240532
93.5402522790881
93.5355168382416
93.5523466196158
93.5361587588942
93.6360100308814
93.810396266316
93.8717053728136
93.8397242605444
93.8836323091545
93.8777552758099
93.9714679831202
94.0908676415717
94.1184523126868
94.000920235926
94.1251884259052
94.305492067328
94.3216785508255
94.3839126419956
94.4135716541218
94.3999435969559
94.5503822303762
94.6032980744531
94.5899042966668
94.3416234283631
94.3791005221429
94.6428962874353
94.7590713421922
94.7489636098621
94.8959231226139
94.8821289579957
94.8492053641978
94.9888907406585
94.9766436681663
94.9711531009678
95.3384751521378
95.296436223385
95.1165309888488
95.0429082140279
95.1556793480486
95.3713252321996
95.4455241486135
95.641938193662
96.0957016508811
96.1947960197113
96.0657774707802
95.8107057946453
95.9353715447369
95.828024263622
95.9012226927163
96.0884408910393
96.1479066790126
96.1666039733812
96.4395931778348
96.5829474749013
96.8794733281236
97.2202349745504
97.5138335214931
97.5774794578472
97.5308857804384
97.0274420112085
96.5046947605204
96.279037919778
96.3454161087732
96.1216531487839
96.0387662234561
95.8447570601555
95.4702123680025
95.3760288192711
95.4848034661922
95.3774943612508
95.4139994390732
95.313218893479
95.0902891411115
94.7353248644661
94.4829724215812
94.5311987039531
94.6387295654793
94.4913639920077
94.3740342790043
94.3960630387351
94.3968525767437
94.4403946207393
94.4272948900255
94.1417957069478
94.0579165864931
94.1917027731946
94.276250489265
94.3172483808767
94.4321374131377
94.4611360311623
94.5903752681222
94.6360682184447
94.603552550813
94.6544813769511
94.6251665677351
94.4673063072508
94.5449151875523
94.5420565680493
94.3852300961901
94.3700855280974
94.6431661014371
94.8034859067423
94.9490572883127
94.9943281236564
94.9206298613736
94.8558795401535
95.0235795106043
95.0155521201704
95.1489477280581
95.1890485014734
95.2383634840032
95.3096087962465
95.3319990597564
95.4519262029052
95.7210760360491
95.9267582168942
96.3129795286483
96.351676504222
96.1218324750757
96.0923416999754
96.5341922017225
96.7309751987358
96.8189999463218
97.0270406422603
97.4377500811413
97.467278508038
97.2072407289323
96.7134654309201
96.6446262740082
97.0111694517051
97.3799314347879
97.4822415307047
97.5920204332336
97.4960127276612
97.0702910164899
96.6978804726032
96.8209822415473
96.9433814023776
97.0625947185339
97.0301633698593
96.9033001292469
96.6114603428353
96.3656901550402
96.1907104832933
96.1404978453139
96.0412990940891
96.0121822685715
96.0504250095016
96.4426264393453
96.7091941492902
96.7409871771253
96.8192239857444
96.892183717637
96.8752711827705
97.0791379960802
97.2815210771401
97.5637717948662
97.3276861819798
97.1753893923952
96.8518859792444
96.4980980261739
96.4524049729449
96.5799036992262
96.660162595103
96.6185569090767
96.4201582272282
96.407442799637
96.2266994908871
96.0099172955776
95.8235841976324
95.7545480029402
95.6323910292353
95.4902216969738
95.3677107844133
95.5175653084572
95.6741303673182
95.6272525219975
95.4478285208005
95.377662652455
95.281947201994
95.183216492878
95.1434837221146
95.1046193644575
95.010920766281
94.9431692159538
95.005931584882
95.0159269183892
95.016600007252
95.0648116107895
94.9038298586183
94.869471729288
94.8809213437033
94.8829690071456
94.845318332599
94.9051255924649
94.9098151813228
94.797745076059
94.7054638618212
94.7185926467014
94.7359062126344
94.7758639903801
94.7347136047305
94.7753801057259
94.9039101159884
94.8900984651805
94.793752327131
94.6808130250216
94.5965127463137
94.6132878857983
94.6840980657834
94.7086509610098
94.6145860507213
94.627181895454
94.707651867869
94.7726272529702
94.7901133788497
94.7432657135349
94.6504533561531
94.6489281738341
94.6407402148964
94.6943438668421
94.667814195176
94.6361323986131
94.6128240614452
94.5175062857205
94.4826372304433
94.5054709430576
94.7096881308216
94.8020913459086
94.7316480093275
94.6523023014317
94.569612249989
94.5048498437354
94.4546137829495
94.4592088819519
94.5715848930346
94.6147328403098
94.7243577581499
94.792366430608
94.793065884747
94.7585151231823
94.7057106706375
94.6559376219186
94.6031140071971
94.6178386593286
94.6725891025289
94.6815645116732
94.6494717723708
94.5820763943052
94.5206482276257
94.5634729701874
94.5964785893134
94.5461772244351
94.5277398402081
94.5905248563701
94.7370320627289
94.6784827110494
94.6110540268468
94.5747738802055
94.5935510124943
94.5661839836755
94.5666244927778
94.4043023804463
94.2809580945563
94.2676077719776
94.3243649207533
94.4795573052168
94.4264522985096
94.3501191560505
94.1714968141038
94.1255459014193
94.1595016391786
94.1198826327822
93.9756176381734
93.9590855455957
93.7240090621119
93.5159022539169
93.5577333849836
93.5944784514547
93.5005317305023
93.3550338547854
93.2598244479758
93.1139006153857
92.9587306325689
92.7860500506439
92.6152492977562
92.8704162605763
92.8230187205016
92.7167716372363
92.5406351308013
92.3534026653296
92.0430246841185
91.7224986763495
91.3149997100218
91.193710383881
91.2532307417883
91.1288298659809
90.8803211676536
90.455595232408
90.0211118450666
89.6866881732327
89.3423782665073
89.0026395278719
88.3626453905578
88.4031467516987
88.2157386849947
87.9111705084859
87.7026136398196
87.1226501066439
86.5262548242757
85.9587881923116
85.4354792904414
85.1677661116971
85.2340018688755
84.7540510031013
84.260253552097
83.6080180159424
83.2363865782495
82.9668282382974
82.5104920497546
82.2105363189912
82.0053616470864
81.58961152034
81.1238619511881
80.8689863672026
80.5516139917461
79.959565949893
79.2932543373471
78.7326334014462
79.1341663098119
79.2009937688817
78.6398037629617
78.424896889618
78.5328384980277
78.3379135355372
77.8930944987048
77.4084675282809
77.0574089753971
77.1897677515143
77.4510373195283
77.2094325083676
76.8333448353291
76.5579305505584
76.4552423607958
76.2945925933828
76.2528306017821
76.1197235758767
75.8026875070223
75.65568011643
75.8013156769509
75.6775589818346
75.3729860597972
75.1455629021983
74.9971467697103
74.8624259071465
74.659529882261
74.5176396707475
74.4093863700363
74.2963948911125
74.1326439218384
74.0360426945378
73.9348488083107
73.8460597416873
73.7484256877514
73.6563163780617
73.5065067290424
73.3706824661317
73.1322972093655
72.8531768556268
72.552051251125
72.6771554418753
72.8153127301404
72.5300578418555
72.3163399896161
72.4808075244856
72.4554894678423
72.2187435935267
71.8213774169097
71.1580645209101
71.7841003996129
72.9537114321242
73.2667702392513
73.3832547583051
73.4930891183571
73.6051819474834
73.7953725433926
73.7089129918786
73.7109547867284
73.7953507009572
74.6850361612127
75.7811878297529
76.0774013932817
75.9550246370571
76.3535377945726
76.7479190949901
76.7344276844121
76.8314325622247
77.0119864510519
77.1486990087212
77.4437193062992
78.0827367798643
78.3248785770568
78.6191353803831
78.8546148932008
78.8042049407239
78.6715560037245
78.5340733405437
79.4626332158108
80.6620068908717
80.8804149540089
80.6926235264312
80.6575991035542
81.0059319695335
81.5623934051447
81.8072376892585
81.6834968651088
81.87957051453
82.4454611571706
82.8475268853961
83.0145272917238
83.0289822374196
83.0577061134297
82.9935560878558
82.7609797271985
82.6543575186562
82.5970341688416
82.7995350562287
82.7268085514388
82.2809379501302
81.8810901071927
81.7394980250203
81.4967036736526
80.8596429607513
80.3926722905153
80.6892289961552
81.0862038529243
80.8753316050699
80.6655989049078
80.4688971621503
80.5384235463339
80.6107532512146
80.5640157726195
80.3994992939476
80.1856902129453
79.9736654778087
80.247888018021
80.4051323020571
80.1372936631645
79.8826323055793
79.722468024242
79.4631666371248
78.9883836542024
78.5765478566596
78.0513193026049
77.666799862651
77.6543468483375
77.3182946030024
76.8124386582408
76.271661523992
75.8342180872945
75.4157710026802
75.0230641116299
74.7853675553374
74.5818846479484
74.2461589147463
74.1380802469031
74.1716478009641
74.2505038678634
74.4825611206919
74.476213859892
74.3423165508313
74.3964524287759
74.6918049865937
74.8317834364997
74.8798770543252
74.957696513607
75.0208561968876
75.0880093378107
75.2832283483657
75.6011175263489
75.7515684742738
75.9171039248659
76.1121355981864
76.1865184978252
76.3426199186336
76.7329209591804
77.0243836352958
77.1718777461708
77.3015455120746
77.5158834118331
77.7036255420347
77.8503639987845
78.016313421394
78.184634053137
78.3087361601384
78.384456666476
78.4302102836738
78.6418061476769
78.8889380809972
79.0523529453832
79.152989337421
79.2164709361713
79.2799381294126
79.3390723080474
79.368159175467
79.3824597665627
79.3747278843609
79.3706020331195
79.4007374661881
79.4282227025236
79.4209176900985
79.4302970187257
79.4743884648878
79.5426821351338
79.6104943296433
79.6620345266009
79.7125458684882
79.7871390984184
79.869014756133
79.9597896451314
80.05114889311
80.1536918597883
80.2517021140071
80.343389384397
80.4218819624293
80.5165935524797
80.5834907393219
80.6276521824574
80.6544476286911
80.6625006430008
80.6634296346571
80.6547546557844
80.6187992698464
80.5878807637713
80.5573979997096
80.515550519467
80.4774933435718
80.4378255077067
80.3840891365698
80.3491189284601
80.3170670205877
80.2700197841903
80.2097021073171
80.1687202771794
80.1412257799165
80.1010479682576
80.0557033702397
80.017693466096
79.9725451462016
79.9339693917792
79.9043562718205
79.9006507267848
79.9126974678503
79.9336503808479
79.9570174212308
80.0096908826524
80.0661128175847
80.1192948968655
80.1859105047566
80.2779143056464
80.3788163115953
80.4919630071041
80.6176471190729
80.7494329986028
80.8717564168463
81.0198019019393
81.1716153411213
81.3140141029047
81.4535964266079
81.6119860085904
81.7736536023454
81.9355609984147
82.0970805175552
82.2627864615783
82.4080364242548
82.5357864808321
82.6548899093356
82.7497719940549
82.8177074556223
82.8684428716721
82.8990473199076
82.9043295647477
82.8636978967533
82.8087593489421
82.751250529528
82.6878951429752
82.5871691541024
82.476226412314
82.3739874843269
82.2854736996913
82.18748583718
82.07650444736
81.939461170239
81.7953868513235
81.6465323869219
81.4633398551258
81.2790977138272
81.1172983632183
80.9371894228756
80.760386503146
80.579638329206
80.4040102225909
80.2314108597698
80.0456381988791
79.8139844683372
79.5649458693741
79.2935786843886
79.0388461794861
78.7818254339278
78.5160076796226
78.2892498493895
78.1075034997045
77.9424105748001
77.806269835953
77.6652599409656
77.5202969439402
77.3924178551758
77.2793033316047
77.15834813126
77.0209741746063
76.8336691628362
76.6107085110674
76.3618837083723
76.1168460532132
75.8554400226166
75.5517465688061
75.2333225137514
74.9220323658943
74.613618150613
74.3293119322439
74.0423315296018
73.7705634440248
73.5068890771236
73.2429406725339
72.9779292069752
72.7348243874667
72.4778005866214
72.2087411504854
71.9264705916773
71.6522068701512
71.3799691437247
71.1189741291121
70.8683612636638
70.6285066168255
70.4066732653585
70.2013613144477
69.9835394347273
69.7551862807533
69.5347573043856
69.3777060282679
69.2445408725051
69.1107778851218
69.0034773680516
68.9118580209879
68.809293317384
68.7320777026095
68.6444970874925
68.5829716286105
68.5322673024825
68.4771731569505
68.450502191165
68.447878902765
68.4597132171231
68.5273417532115
68.6506878495866
68.7916907392419
68.923558293458
69.0938029035541
69.3033295891419
69.5632806925158
69.8273197838217
70.1178630124373
70.4213709668397
70.7195311932854
71.0297843399025
71.3743375154088
71.7009150175604
72.0112943147739
72.3002311615328
72.5796910743807
72.848844476882
73.1230406969007
73.3742404694146
73.5829394516435
73.7619997042716
73.9523746615077
74.108223457747
74.2268391600176
74.3487876947548
74.4626950206821
74.5648019456588
74.7377704765114
74.9263862557808
75.1072537514272
75.3032448850445
75.5417122980537
75.8013885039111
76.0794622690241
76.328164157687
76.5658413925197
76.8080604825353
77.0419890299798
77.2742570750867
77.5204099045712
77.7626031959355
78.017034633993
78.2542342531409
78.4588470936972
78.6384684195375
78.8231135966159
79.0296393556931
79.2331632087848
79.4242824279488
79.5830840674104
79.687089269886
79.7889647276483
79.8776411864227
79.9754645179438
80.0707632365854
80.1480983529742
80.2052731513559
80.2810485583043
80.3610844209918
80.443929309019
80.5079412232806
80.5648513353471
80.6289626022592
80.7275816675393
80.8383706562627
80.9505359124731
81.0695132087536
81.1731109763258
81.2437339840992
81.2844541457393
81.2948183947659
81.2931635444854
81.3014069530403
81.376889987932
81.434904911251
81.4486309670495
81.4907934273827
81.5609149679176
81.6124700096836
81.6124519600123
81.582186880203
81.59686449121
81.6201661194295
81.6271858969907
81.6615140222957
81.6956550725844
81.70014565356
81.6867713013457
81.673799056817
81.6415807267647
81.5804903221418
81.56683837031
81.5587027797314
81.5390609925554
81.5050595578048
81.4466454225574
81.3558501449613
81.2289426969966
81.1084459153035
80.9892215220641
80.8794471031843
80.8061505503416
80.733769503498
80.6727457866067
80.6411000621182
80.6480015811392
80.6385473455736
80.6040664658167
80.5577820831321
80.516224933398
80.460746400668
80.3716156203758
80.2696383825055
80.2077656662086
80.0812765373839
79.9413382900947
79.8566198530562
79.7966680832581
79.7593655822906
79.783911424808
79.7853458801835
79.7567014991722
79.6998520897292
79.6484273177803
79.5873530572128
79.5332152273676
79.4803898734791
79.4256587857821
79.3553505965565
79.292343095143
79.2313185752052
79.1783650248392
79.1050232717952
79.0766421239324
79.0576284747933
79.0732256059113
79.0859949903936
79.0766324147769
79.0383662446045
79.0111219976859
78.9548947331567
78.8843765701677
78.830916097764
78.7609780168821
78.718476951822
78.7079905404975
78.6542801375281
78.5994584258878
78.5365259173143
78.52773426254
78.4667814500957
78.3690833624319
78.3420143013042
78.330210816404
78.2332736259199
78.2003664645043
78.1651512490416
78.0818326912974
77.9839798116407
77.8548521935122
77.7876336436688
77.7508149837771
77.605506373661
77.4820140217435
77.3502530685062
77.2294749235277
77.1655691237877
77.1076141324054
76.9931178247166
76.8459986311723
76.6880747721066
76.5188559354781
76.3218457282052
76.1939170129328
76.0988603272444
75.9944678212466
75.8522242979071
75.758682576308
75.711643300433
75.6996061384857
75.6728753374393
75.6064318369578
75.4979863380937
75.479870018753
75.3645693681454
75.2243018429747
75.1737470207749
75.1754510912199
75.0616677292016
74.9769182469475
74.8245435835076
74.6572615704203
74.362464375832
74.5482172348788
74.6858603665122
74.3848168090572
74.2564054244908
74.1635828922657
74.0835896881199
74.0221726189746
73.9524322771324
73.8108505929872
73.6432764633528
