1798
3999.43349933624
650.420452594757
1
128
4
96.2459129284894
96.2257189839828
96.2155980796454
96.1316520605342
96.1209065929431
96.2523414562565
96.269505779951
96.2747153002755
96.2852292326653
96.2255899901583
96.1983046113205
96.2219584943376
96.1819279865772
96.1891808848253
96.2388163018081
96.2478487639364
96.2003114869574
96.1463851867466
96.1734846021137
96.2228689383338
96.220335008775
96.1977873870052
96.1951722858239
96.2336004773892
96.1543049608814
96.0962727085227
96.2153307396076
96.3049835124872
96.2306339476673
96.2310634213444
96.2274952269692
96.2346139217203
96.236501161714
96.2086521342434
96.1868886030279
96.1958572176966
96.1763836134024
96.2396982662346
96.3508473186136
96.4258813362073
96.44496595127
96.3724645858546
96.2194048660302
96.1389697835905
96.2138460000901
96.3462442457412
96.3340026637713
96.2280345407948
96.0850723260457
96.1654775570698
96.3080528701003
96.3851650392596
96.4178215349414
96.3691754756216
96.3180287317118
96.3240825252507
96.2881843881964
96.2712041671121
96.2524345713515
96.2315954078583
96.2747113927775
96.3962302006951
96.3806615682999
96.2257903530906
96.2139333729555
96.2541619366279
96.2268623679088
96.2190630301153
96.1836222053546
96.1838130504786
96.1222745017627
96.2429087477229
96.3775537160232
96.3953911310025
96.3616618769051
96.3615631581743
96.3179178057062
96.1476161857939
96.0092257503726
96.1694035714534
96.333647582752
96.3109261923109
96.2562340764411
96.2897979954716
96.3246570614621
96.3063153058532
96.2646927784984
96.2866592222708
96.310827697397
96.3358394637799
96.4013050193367
96.3647731870542
96.252795219901
96.2825718507952
96.2633926915337
96.2193664713509
96.2124845389097
96.2681674779402
96.4010232392626
96.4236656433881
96.4304282481719
96.3575021903979
96.2767384764865
96.2925929430235
96.3221853996881
96.4028524030941
96.4167357106243
96.3989374655168
96.328245767158
96.2802993733491
96.2972358135975
96.2831753445264
96.2930322502219
96.4156936740017
96.4314765537924
96.3067282743304
96.1910705626611
96.2295171239372
96.2986044019206
96.3011143923058
96.3247497273716
96.3982056433694
96.3521601384115
96.2675344714015
96.3208075191035
96.3237500071574
96.376858165852
96.3763470935986
96.2296983699654
96.2369153464878
96.3014085318582
96.324732226907
96.2410202080646
96.2931260527073
96.4983977047447
96.479386356159
96.2487396997549
96.2055870073867
96.279610985151
96.4080189966701
96.3303197556811
96.2730295200136
96.3571804199092
96.3647908962287
96.2996051789551
96.3392729029604
96.3768480275959
96.397849688216
96.3964302936061
96.3988780359955
96.3601977464993
96.3413376528059
96.1770985529434
96.0549537301388
96.1715749356907
96.3551492879868
96.3071732996996
96.2542844315091
96.3086651470084
96.2015589217654
96.1903266205866
96.3055255032431
96.3335037283938
96.3261486721778
96.3823371665797
96.2907292153179
96.1073887172308
96.1161049675355
96.1782264067359
96.190031559821
96.1754648775205
96.1687863379389
96.1142191698349
96.234461901583
96.4097511857681
96.2752441576032
95.9799394741836
96.1081820984313
96.2326256738298
96.1203717481439
96.0288433222938
95.9097030752543
95.9104777253396
95.9602428321494
95.8616436824861
95.8095604565738
95.7883521205256
95.8718402888769
95.8077676681855
95.6710909834126
95.6187338259271
95.5765218266058
95.5607657574951
95.5057849001563
95.4959282369582
95.5577717775092
95.5003959283149
95.3937801785984
95.2426772913379
95.0414573299903
95.0634772718673
95.1120152595123
95.1003608503713
95.0247891894086
94.9310364524737
94.8200487858873
94.7011159319772
94.6669968343473
94.6070173265571
94.4687404639548
94.3236692152676
94.1753147967174
94.218737258949
94.3109566834827
94.1540779472359
94.1274287023033
94.144868035604
94.0076393474403
93.8138999027171
93.7778007036034
93.7547395241897
93.7554571176786
93.7680281235488
93.6992030046176
93.6066970404401
93.5370022621825
93.4352270283498
93.4641451593535
93.3370735300274
93.2020669369573
93.1672998543235
93.1744335971515
93.0561786084427
92.8219218080935
92.7287668965311
92.7329700194218
92.6199023030183
92.7117245615387
92.7613704622159
92.6322970399214
92.4825183757876
92.3103616633558
92.1469316703051
92.1049300988827
92.0589840771444
92.0899058246263
92.1706267615705
92.1144564193771
91.9879393991002
91.8980543934034
91.8194953454864
91.7915169712484
91.6300420432153
91.4712667889292
91.4024124324957
91.3359744933138
91.3673308102281
91.3672190891821
91.2330118679059
91.2365972978555
91.2527396339314
91.240752228324
91.0833926821325
90.8521241294101
90.7368284180755
90.6823013632571
90.6907126720747
90.6274296653119
90.5175894881341
90.4455097868215
90.3473230396583
90.3342485117027
90.1673207702708
90.037776686694
89.9081121362589
89.8922533744682
89.9612293986515
89.8737676708494
89.5874854039731
89.4393761961529
89.3878787344295
89.2591406952799
89.1400769609416
88.989816754661
88.875327445161
88.9017663455289
88.807202904288
88.5804389151951
88.4455054823405
88.4286903048625
88.2943584684882
88.1430003578756
87.948254573226
87.7992280506464
87.7727982058422
87.7132493462067
87.49813772647
87.3634563631678
87.242891696699
87.120057789651
86.9625780094337
86.8193572207301
86.6384051800343
86.5625503365213
86.3442485800002
86.0634678652426
85.9387469561628
85.9883046967532
85.8554551421453
85.6985838723918
85.5557034300306
85.3908105543435
85.3080099992931
85.2336270039399
84.9593348375436
84.7897129104791
84.7122932419601
84.6529447936095
84.460300876799
84.2002690489581
84.002039173793
84.0370305929525
83.9473292204986
83.7990677388177
83.7142420668417
83.6802576022704
83.5985652786258
83.5918225017124
83.5572648101072
83.5089907449264
83.4261936615593
83.5106113117317
83.5959126703183
83.6073059572575
83.6318689084092
83.6231246847467
83.5965733405794
83.6126926563763
83.6321070564614
83.7397138614042
83.8047018761928
83.8516674448153
83.9135587753177
83.9798204962137
84.007743075457
84.1136898286118
84.173846097157
84.1502679398858
84.1791748947434
84.2487969060183
84.2805738987423
84.3267214687183
84.3594945807544
84.34173614462
84.3322800726333
84.4172491520763
84.4992249314421
84.573254458348
84.5398747107328
84.543874309046
84.5630571156945
84.6112212068891
84.6214382570953
84.6442806523981
84.7156059921363
84.8075448870233
84.812014778171
84.8448747831873
84.8653692775822
84.9230587715043
84.8877312715137
84.8493363335565
84.8878854362968
85.0191884047698
85.1453744308334
85.18750830407
85.2203719341412
85.2966225576031
85.2797644848875
85.2325908585806
85.2724392361351
85.4985824543785
85.6236827349207
85.6473893256998
85.6893645541913
85.7908878225732
85.8082208381121
85.8310459449875
85.9341718728916
86.0255195114038
86.0964721038027
86.1335490256165
86.098126765685
86.1796436261877
86.3079847708645
86.4079381324159
86.3760715739006
86.3800578889227
86.4218070140586
86.4251428176389
86.3592255252579
86.4185412981206
86.514402326315
86.5342255885404
86.5111202223289
86.5260470536174
86.5949116655078
86.6751231812024
86.6369452350652
86.6253089507528
86.6841352425403
86.819529730762
86.9427976115028
86.9957115120322
87.0428099477455
87.2295307820917
87.3751860595632
87.4472896236402
87.5574554595138
87.6334560813304
87.6760973108496
87.7791182619466
87.8259476194941
87.9341925578409
88.117952398054
88.1699086929596
88.0921699423998
88.1676523710448
88.2615078035301
88.3097069705442
88.3790273136249
88.4741941453197
88.5616740635472
88.6728628424206
88.7754069389327
88.899245166185
88.9461130461409
88.9553822784076
88.989166964311
89.0826894810391
89.2518711638031
89.3489365841608
89.2848757004046
89.3793248564311
89.4881242534376
89.502411347386
89.580982735744
89.7262752799957
89.7688523348665
89.8163901819309
89.8243023278504
89.8695697779821
89.9104869658828
90.0041279293729
90.0882718921983
90.234937819275
90.2898620147446
90.2374391131505
90.2801645087674
90.3721915287791
90.4653807456097
90.6042882649353
90.6563196963804
90.7001661375143
90.7082663608209
90.8031511045472
90.9157528529418
90.872312377646
90.8973507148897
90.9629711448529
91.0146073542526
91.0970716821027
91.1446958710671
91.2163855089627
91.2262849359595
91.3258099583876
91.4179393545889
91.4211760061406
91.5024763648729
91.5923176545947
91.6126314057736
91.6250132427417
91.6556176195065
91.715711733709
91.8051993434418
91.8354831548679
91.8577632812672
91.9572375122807
91.9166126615623
91.9636228999141
92.1127763677264
92.2372255281675
92.2450833744215
92.225784188233
92.2410858375133
92.2261996818119
92.1963679980096
92.2673249115855
92.4136267734946
92.5166090350628
92.5034585690718
92.5227975520663
92.5805610652371
92.6083875965264
92.5789719296135
92.6862366851496
92.7829766105732
92.778585477584
92.7803534489851
92.8118632041554
92.8720286976505
92.9515124966389
92.9905555230569
93.0006344044596
93.0304510638006
93.070808835127
93.058589745767
93.1361657367871
93.1939184615294
93.2204420013256
93.2858167292987
93.321128965306
93.3119883993507
93.3191262300127
93.3317666339311
93.4279440883033
93.4610647218874
93.4328136234178
93.4346784893701
93.5186506845179
93.6060085778696
93.6086639794644
93.590105629576
93.5932983917815
93.589215054019
93.6406125391428
93.6850632277144
93.7061779453162
93.7321691760234
93.7694438943198
93.7869199777616
93.7452063644201
93.7470329804824
93.7753434086365
93.8121642757876
93.8445278830142
93.8964573091289
93.9141750293856
93.9385773552627
94.0061862206076
94.0420566545831
94.0235213906995
94.037674054495
94.0610655235499
94.0130547443589
94.0201197776897
94.0766363472743
94.1332560027555
94.1970812533313
94.2142413031305
94.1764494526116
94.2530146350475
94.2833576208961
94.2419937524027
94.2353109077253
94.2916864686415
94.3394224386921
94.2936518783198
94.2847798102125
94.3491973606214
94.3504850862007
94.3852710908094
94.4369551010505
94.4676466963131
94.4933500951629
94.5200698514108
94.5101516692083
94.5249685715492
94.5431477726545
94.5661421139782
94.6292990601579
94.6619990992604
94.65897088652
94.6751718690048
94.7090511014137
94.7826190358234
94.8309772040723
94.8074424691242
94.7612508245733
94.7471045361491
94.7407828041738
94.8097895117127
94.8490254321003
94.8390720496087
94.8766399758452
94.8839734625964
94.9049826632276
94.9263915940185
94.9124623247584
94.8354475113666
94.7967044381684
94.8488328226598
94.8775564311375
94.9276666064028
95.0134376039889
95.0383733586556
94.9862922026114
94.9041525901687
94.9006616727158
94.9882729505515
95.0281233622708
95.0713095724969
95.0617065480167
95.0176374020838
95.077895278122
95.124582256373
95.1025200379916
95.1263310407366
95.190074957309
95.19908939057
95.1580929713226
95.1317521956478
95.1711027257137
95.2482490974849
95.2972232318501
95.2826618851913
95.2252720219298
95.2437395689945
95.2163243581659
95.1656207170014
95.2182672767871
95.28620487771
95.2598065899869
95.2389599360936
95.2748511415037
95.2858477417463
95.2527936844723
95.2679124848519
95.3235989103605
95.3431916057453
95.2736173948672
95.201960018473
95.154997438844
95.1476574110701
95.1996049429237
95.2495335965176
95.2262061826493
95.1902154632465
95.144778403783
95.1051813947188
95.0988767554755
95.0740903004399
95.0131735681511
95.0108107893656
95.0184424696727
94.9325445811405
94.9147337751772
95.0156286665872
95.0587245243763
95.0891643978796
95.1146021748811
95.0884728519038
95.0608227157892
95.1121018534301
95.1206665885137
95.1188302170628
95.1379309738162
95.1564735596109
95.1162665518536
95.081430154204
95.1386914060908
95.1800102637808
95.1382766102871
95.0123771192678
94.9495218014956
94.9442842581229
94.9244666720437
94.9459214049329
94.9311131519682
94.8533579419861
94.8269464491283
94.8871909005708
94.9380326326866
95.0555744789302
95.1742675017095
95.2705444489422
95.3366813697082
95.3326625002923
95.3376775262774
95.3685828429638
95.3846282309386
95.4040844340226
95.4548104720197
95.5345672476619
95.5954715614984
95.5870425794581
95.5522048514907
95.6035032167076
95.6699536818236
95.6824745256875
95.6729354098822
95.6849632132285
95.7022936966739
95.7101035806168
95.6910673736782
95.6987967396678
95.7222890490843
95.7751193312079
95.8058151216437
95.8420414264704
95.9046052813581
95.9026290776192
95.8713976765109
95.8489383480665
95.8673765635785
95.8793789946684
95.8530698000366
95.8491362258249
95.8507846922701
95.8752644130863
95.8864715056731
95.8587264205465
95.8336405687312
95.8357504887574
95.8731853004165
95.949207249881
95.9355601231604
95.901706743267
95.9162624571437
95.9461830872372
95.9886316960908
95.9966188467696
95.9695384048979
96.0061579700245
96.0412253572207
96.0062811449212
96.0002938327454
96.0232488227666
96.0878938271869
96.1456818559925
96.1412638453904
96.1453846621666
96.158591228493
96.1588909389059
96.2003733383672
96.2477157437406
96.2686374110017
96.2386054132398
96.2409753149079
96.2862419607083
96.282590642616
96.2386961529295
96.2952570613563
96.3431308493431
96.2902861128088
96.3142646074034
96.3813573634521
96.356380066876
96.4151194923517
96.4832746166845
96.4276802624927
96.410418024876
96.4418904494615
96.4251578225635
96.4687994767462
96.550848638156
96.5360088917869
96.503767690769
96.5207491442741
96.5023611848825
96.5514798384229
96.5996418667474
96.5980508299152
96.5656679233487
96.5464867010218
96.6052761745977
96.5828819450988
96.5123361522759
96.5391832646032
96.5958063491773
96.5746156816109
96.6041902348494
96.6918382455047
96.6909008001584
96.702709479966
96.7211766771069
96.7299904477778
96.7425306380336
96.6209531408601
96.5424994192825
96.622641901247
96.6485467266586
96.6167571634521
96.5819789790193
96.633427439297
96.7143944874936
96.7086742171196
96.7048545437166
96.7441151722974
96.7773756017246
96.7613295630256
96.7073055810677
96.671679867805
96.5946293496347
96.5929166992336
96.6329878910993
96.6981071359335
96.6002167220359
96.4375011758162
96.3802419435838
96.3853155406827
96.3167757265678
96.3084835092659
96.3365425394806
96.3810637843283
96.401967585124
96.3509702070882
96.2505096419375
96.3257097856965
96.4176757064214
96.4266765339461
96.3794168354187
96.3149071831816
96.2656740249334
96.3051721116883
96.337034031873
96.2614715671818
96.2548059158005
96.3382947832876
96.3790984097251
96.3920007377202
96.3809985678914
96.3699103399742
96.307930156433
96.2326209805701
96.2035565130124
96.1834777625176
96.095161352014
96.0670675776292
96.1079822292503
96.1252122230199
95.9565416145124
95.8398120748875
95.7830629917732
95.7115942359832
95.6632573364329
95.6287972632471
95.6367214620145
95.6391397520306
95.738294108537
95.786729520878
95.6699642708376
95.5873022287447
95.5515521978941
95.4834865218248
95.2695945030569
94.9668950701998
94.64272888894
94.3429819776901
94.0110547993934
93.7303799091041
93.6279566739154
93.6951448924137
93.9027774083873
94.2075827969242
94.5549145974678
94.8384390768396
95.0584538137872
95.2880497835722
95.5168737133765
95.7403236082734
95.877348917238
96.0574617833111
96.250101134408
96.2523277842546
96.3257927075081
96.4667991431856
96.5540510914596
96.5332874632998
96.4046101127516
96.3930587067635
96.4161089734331
96.4317759174643
96.4623207365086
96.42042880173
96.3816455368474
96.3884269517325
96.3982797283317
96.4157151561092
96.4581897169091
96.4505044296861
96.3743208178108
96.4117586459771
96.4786886803295
96.4677302400132
96.4148376963797
96.3755943535381
96.3523971631084
96.2790518480199
96.2601247719913
96.2558946313589
96.2286547941285
96.2540035907011
96.3158368492717
96.3957749042973
96.4729337222827
96.448120707376
96.3046331303634
96.3272127825986
96.4054036322429
96.3811244639565
96.3703709462507
96.450879132604
96.5499877118014
96.6028111994217
96.5761278072812
96.5191073336707
96.4639197416444
96.4423618077085
96.4861048795876
96.5365041938906
96.5537981939976
96.6214956692821
96.638263999041
96.78335949488
96.8604715755694
96.7370050037693
96.8241926958848
97.0566388518801
97.0756782937631
97.0622175424814
97.1262101711791
97.1948732347039
97.1572896335545
97.118183172089
97.2131566498172
97.254845196569
97.3408310942385
97.5285640051637
97.6111972642209
97.6401880027085
97.5547448390526
97.6184092896654
97.7087562773991
97.6033786096492
97.5738149613647
97.6543247460682
97.6404288556646
97.6552666023811
97.7846675442725
97.8339305509677
97.8331723914258
98.0291549366894
98.2727162183774
98.1892785894185
97.9007140340218
97.7726719065337
97.8328168720374
98.2036773968069
98.3605415457222
98.2860040157642
98.4401363145412
98.5282773019235
98.4476062707595
98.5191822262738
98.6231841495034
98.8473827120198
98.7670197739737
98.465642054669
98.3611610632558
98.6907385523111
98.8441972637065
98.8869606956234
99.1372336076249
99.6398964185746
99.5522614385652
99.192971909173
99.3180213266723
99.4036810213241
99.3169468508982
99.4587912755996
99.4756001522332
99.3136440505366
99.4942834034695
99.775186835952
99.622390658331
99.6283786734352
99.9349824279711
100.165881159589
100.098367548662
99.5668458941664
98.6577507946152
98.5257259990309
98.5633881383023
98.7082081581998
98.7315182826298
98.6336814280186
98.517578119768
98.5025549959783
98.4262479278091
98.2335375499956
97.9897050540758
97.8655759302183
97.9312173329704
97.9194623228235
97.6994929883635
97.6499650436814
97.633360439677
97.6461524925512
97.5359148993466
97.3920857659382
97.3469969984804
97.297985874825
97.221325356936
97.2961995265094
97.4423934811261
97.5170767912189
97.4438909818963
97.4429183237019
97.4495536280892
97.5613803685093
97.6332616012443
97.4987729554038
97.253828388777
97.2696808616261
97.3730270620474
97.4404476173284
97.4780300502591
97.4522231424288
97.4326208496367
97.4193274143048
97.3728681850734
97.4449687002907
97.5595964579191
97.6504351836923
97.748867825598
97.6662126454922
97.4501697716719
97.413887549183
97.5265557867456
97.5295934883461
97.5363523465888
97.7087315636544
97.883235728268
98.0545687668641
98.1169920281802
98.3706747337728
98.5655554148129
98.7770511432234
98.6954745232269
98.7543601594907
98.9355059317561
98.990301516075
98.7835355462428
99.0123940225253
99.4125884618889
99.3654282627519
99.4333540988604
99.6113755468127
99.4496286934396
99.1702687189403
99.2746237744583
99.5773567895552
99.5280841096822
99.4253765973361
99.2503272364993
99.2975394179747
99.5297562847665
99.269380209129
98.9063904399823
98.9771574350937
99.0773086317023
99.021200786175
98.9253617189251
98.8076840516657
98.6557271230589
98.5811308330327
98.4588160217968
98.8208518883631
98.9220589890921
99.0004199544369
98.9362604442506
98.5500625792733
98.5332821021353
98.8567206518024
99.2290370016479
99.3064744313755
99.2871040370456
99.2694841127691
99.270253733873
99.3332540057259
99.2333756484073
99.1401781793611
98.9883382132561
98.8904371111813
98.6099174356183
98.3311914123355
98.3722455997183
98.5376743814756
98.387860581241
98.4380331498165
98.4024580927839
98.2716348590751
98.2015406494641
98.2401685714939
98.2535198769393
98.1826124863636
97.9814058991249
97.8686675248587
97.9864356258101
98.0555671302276
98.0823653411614
98.0910444883244
98.0239431727026
98.0624688121596
97.9408739976697
97.8532661293574
97.9210891843409
97.8528665392136
97.7679039074876
97.8213587589449
97.7987569336407
97.8325979004395
97.8967284799494
97.8657420415635
97.8933432601596
97.9291434164712
97.7795629994031
97.6996440151727
97.8010877447223
97.8721869635636
97.802043954392
97.7565867052153
97.6775328163635
97.645202852533
97.6564660328644
97.6501456913073
97.6329347871522
97.672600938041
97.6844263546049
97.7013035946917
97.7338604978803
97.7429184804322
97.7635630069537
97.7403358210818
97.7040715285012
97.6425143623225
97.5647601985851
97.5083089395551
97.5000400846682
97.633002540241
97.6710392303182
97.6386427220708
97.6403850508196
97.6743840016343
97.7157576316845
97.7751127573371
97.7334452092683
97.6955980433617
97.6334286713572
97.6562659401868
97.6675680737982
97.6681856394309
97.6441601719527
97.6974839435292
97.6853662212092
97.656649995757
97.6878165819212
97.6532360873116
97.6683592125212
97.7325206444827
97.7497994044499
97.7005422861588
97.6559712703371
97.6814238492214
97.7007939009548
97.6757572754686
97.5984678900424
97.5754206774855
97.5819630094609
97.6078720461389
97.6524830434109
97.6614642216487
97.6140900925522
97.6106736407577
97.5987952794057
97.5534466659741
97.5204164552535
97.5287458130877
97.5173809512446
97.506597993724
97.4856108750357
97.4433461688393
97.3924238319287
97.3594562133411
97.3613544359245
97.3001625860816
97.0645885738251
96.2467456347806
94.1765453955019
92.3708650296152
93.1378094676864
94.6905559325079
95.6945998634314
96.3595933091603
96.6559555295546
96.819379235131
96.9185870639995
97.026532537981
97.1013111817453
97.0924244766281
97.0848411513294
97.0270248046996
96.9823380542081
96.9996593608197
96.9891913863838
96.9889847287315
96.9908867180742
96.9642879667137
96.8492882016236
96.7472830647128
96.7678415616899
96.777598375014
96.6932687510496
96.6893655244045
96.727807295658
96.6146606984506
96.4855603527111
96.4013137791441
96.2865980120137
96.1802764244081
96.1276790825482
96.015173971659
95.9171230727539
95.9196004418065
95.8010827014618
95.7172418756761
95.5618389438062
95.3493510455431
95.1455923605358
94.9678533337589
94.7665483341984
94.6006287512658
94.505642520655
94.3791139194848
94.1705199464667
93.9768190611458
93.833874375787
93.6901645936693
93.5431281691494
93.4358732053466
93.2997167500606
93.14120822496
92.9981515587423
92.8783740565222
92.7210585454483
92.5485768282716
92.3307365713981
92.1566173243207
91.9415497149371
91.5484309782348
91.2000894592877
90.7708656221134
90.2300046229844
89.764529515928
89.2426313990505
88.7280053451126
88.3961745733757
88.414719715784
88.8700358244553
89.2115371780411
89.4443057661024
89.6684856489273
89.9660614731597
90.162240220473
90.3576956392702
90.5830585980183
90.6844937215593
90.686414654496
90.8670469053755
91.0721134034502
91.161408859379
91.2295181206197
91.3166730836889
91.4181517293911
91.5465559841167
91.6288372614691
91.6841441277431
91.7797490945339
91.8504124489511
91.9250710372433
92.0318714498295
92.1244289431567
92.2030443261873
92.2922785530982
92.4155552827513
92.5299726649555
92.6275691886514
92.6955909603688
92.7070754914987
92.8011840374409
93.0313886715519
93.1418320344501
93.1791560751124
93.3074375784543
93.4519329246486
93.5784259659831
93.6513044305405
93.6079821827753
93.5580799231818
93.8643314994118
94.0792571219066
94.1536202755682
94.2143499444247
94.2136954190988
94.2715421683634
94.3441673126981
94.4083319579484
94.4860662990111
94.5495649697591
94.6705713201234
94.7506146223604
94.6980233653688
94.6576372256103
94.6659500354776
94.6801241851445
94.6793599635495
94.660384293376
94.6141069622175
94.5674550447978
94.5885789779329
94.5598948914516
94.5206490169911
94.4827840252294
94.3555783302775
94.2598841843533
94.1575245790754
94.0337830341522
94.0409285288158
94.0268600183134
93.9035895856358
93.7573853968975
93.6495521526825
93.6259428459557
93.5773649199756
93.4400516785204
93.3064865998322
93.2511607589609
93.1651112001074
93.0471591161078
92.8723496497909
92.6941106788102
92.5281082356545
92.3572945753865
92.1852547176876
91.9954571391252
91.8261481086865
91.6430046294747
91.4137261940818
91.1741319190688
90.9708989432903
90.7873284883934
90.5636470218371
90.2997485564038
89.9834909894154
89.6189776559869
89.1165781034091
88.2867785650351
87.2054951583393
85.9991179899184
84.7675415432796
83.70371985799
82.7065579203007
81.8072568232596
81.055892405079
80.2325048992218
79.058302117438
78.0247361787852
77.6456751349736
77.9122539117164
77.8482291796244
77.3543667082019
76.7028600208721
76.0384225567513
75.4446561558593
74.772031272562
73.9996182279531
73.277393636805
72.562750485687
71.8739385245214
71.1205888435771
70.3714127020042
69.6398896709426
68.8745693323448
68.0846055789905
67.3251615314791
66.4875445297761
65.667858672422
64.729709425443
63.6263017335654
62.4865822467495
61.2938162505361
59.8798734633157
58.302103832647
56.6735908592138
55.0185356485584
53.4103001807052
51.9335510708004
50.7303657680138
49.9921118798389
49.5974693317741
49.4909449297836
49.6039739187478
49.7499107891296
49.9185682146988
50.2582022704477
50.5446390414909
50.7392175820785
50.9444224705874
51.1982490243034
51.4083334353981
51.6249877742802
51.9227806772484
52.2564110103331
52.5927685934202
52.9407757089782
53.2706540479209
53.6988789989767
54.1871419836095
54.6121252006748
54.9711214595892
55.3463583877888
55.751492794925
56.1691627044346
56.5961912124
57.0432237365383
57.5022106800132
57.9695885487664
58.4614462496991
58.9409537263457
59.3740638411219
59.8242999627302
60.3023294654904
60.7394934014695
61.1826345196157
61.6271725822638
62.0437143767992
62.4744443602837
62.9162423100304
63.3291411933297
63.7313048970699
64.1687647482671
64.6026726976838
65.0121795198103
65.4230196764698
65.8383857631041
66.2324796977115
66.6144296474011
67.0120765394107
67.3935695503946
67.7505889794423
68.1089807107831
68.4497720018048
68.7995446945833
69.1606717650269
69.4999991395311
69.8330511872281
70.1586309754867
70.4678481125378
70.7950778522038
71.1293922025879
71.4335481599039
71.7109845365345
71.9796384875783
72.2495448957069
72.5368007800862
72.8136272679683
73.0520749235226
73.3240137589235
73.5839541067958
73.833497874112
74.0852184857173
74.3203164402888
74.5268370889683
74.732075669651
74.9273212392917
75.1262575801289
75.306863319777
75.4592839237663
75.6133978552881
75.7327128834532
75.7734308094863
75.7927277889493
75.7710418883654
75.6831692836815
75.4864854808937
75.1923114182684
74.798519766362
74.3183580301533
73.7404766202874
73.0713291239998
72.3567114945005
71.6291294780617
70.9496522316564
70.3410189723814
69.8859854894878
69.6810458770052
69.733965660585
70.0850863877801
70.6980182390131
71.4115330246904
72.0508335853569
72.5479356079307
72.8764776173453
73.011106388472
72.9923318519273
72.8313943921793
72.5022846223299
72.0623537809641
71.5525278887321
70.9460102930631
70.2858611191538
69.6169199403342
68.9294956809738
68.2545308574278
67.607108541642
66.9944162350076
66.4059819576511
65.8185685252424
65.2295729445375
64.6311110784297
64.0055309108487
63.3804052661378
62.7589789641822
62.1972041136298
61.745349681104
61.4430762503869
61.3457138681415
61.3806256347364
61.3798577371772
61.1582990117966
60.6153957693282
59.9090437575672
59.3592690431906
59.2246474370721
59.5092210565234
59.9824809128554
60.4489078047239
60.8648457891594
61.1450574200533
61.2933267021679
61.3255445829081
61.2028346713039
60.922517190366
60.5646165038824
60.1530952516717
59.6887879826111
59.231669374112
58.8812720077346
58.7019246430568
58.7301831999615
58.9639259850191
59.380352033368
59.9635789039315
60.6636815069587
61.429723228462
62.2519011244713
63.1258100105306
64.067155420013
65.0093503051026
65.9352132770337
66.8815815323649
67.850507090171
68.7905660096826
69.6374101657911
70.4242458980856
71.2022472284386
71.936554626383
72.5972129641723
73.2077724579818
73.8176946515625
74.2904195888745
74.4688002488668
74.7745199534628
75.467848056215
76.137997995273
76.7083480304026
77.218740738517
77.6628167681849
78.1192608329705
78.5537501928526
78.9496644698823
79.336251644407
79.6855105999832
80.0141112917567
80.3609456291189
80.6875404002681
80.9810815869766
81.2342291425767
81.4706977590655
81.715921040691
81.9526802172714
82.1808686676339
82.363192868499
82.508827691957
82.6381704124645
82.7278304132927
82.738945557322
82.7465995669352
82.8557516826477
83.065607866315
83.3041277093338
83.5442926203846
83.7265700491195
83.9214324918206
84.0959840065371
84.2451377848775
84.3671258006934
84.3664391322324
84.2823170100628
84.3943543483019
84.6841645230622
84.9402878841658
85.1358818083338
85.3170059009726
85.4689798939053
85.6243466253805
85.7921303645085
85.9342646268027
86.0491837394841
86.1534545423427
86.2717427231866
86.3880427850327
86.4767504836804
86.5496025853223
86.6149341627799
86.7235221377264
86.84448049137
86.9107277763978
86.953160843367
87.0064945711637
87.0889370220861
87.1865906589471
87.2807597141154
87.3450895031557
87.3772140627229
87.4312497915322
87.5107959209792
87.5840438475762
87.6580835686678
87.7163126765301
87.7485708927985
87.8215283475416
87.9063407767505
87.9779761767451
88.0109254032555
88.0587421800707
88.1124611299725
88.1615780920943
88.2376359372279
88.3057653530722
88.3108465031329
88.3129312606472
88.3507395974273
88.4208527022586
88.4766458667376
88.5072783217211
88.5247516512665
88.5722404436666
88.6504520795284
88.6845522243165
88.7074219666291
88.7159144694927
88.6898987345445
88.6716295959021
88.6515460927198
88.6992706345174
88.7511054898368
88.7231525847407
88.6248146783654
88.5518364747571
88.5483404068639
88.5422276432427
88.5441634079769
88.5555209372244
88.5400410299481
88.4761368479571
88.4063441201544
88.383921083838
88.340273421734
88.277811433886
88.2592647098058
88.2617317767957
88.199967765532
88.0826189468526
87.9972301025473
87.8412041740168
87.5535045694975
87.1675013242978
86.5510398872874
85.3668650526142
82.3443022101441
75.729705585091
66.9718374200883
62.6816800542117
66.4729982521426
73.5952321960747
79.1043421295976
82.3588677658698
84.081367096915
84.7859929957554
85.069201763565
85.5921207575246
86.0902836611287
86.3157032966215
86.4239737223969
86.5194442854391
86.5247360207955
86.4682580023245
86.4104418639236
86.4111236261558
86.3358037773872
86.2130948488398
86.1462833722777
86.0913114511677
85.969479986987
85.8544149800501
85.7481782163397
85.5878602621253
85.3849648592708
85.1793160530528
85.0035206981177
84.8246073704775
84.5817583475276
84.323426009395
84.0223510224673
83.7140113606161
83.4362656858938
83.1609486494547
82.9050637627953
82.696837597744
82.5396748380606
82.430015474966
82.3678077509569
82.3603318675124
82.3625147669342
82.4675894960886
82.6196508787693
82.7239091175586
82.8233806740374
82.9437933181164
83.0668596178616
83.2188076373995
83.3323047318623
83.4088870845683
83.4761682055364
83.5091495556531
83.5518766390122
83.6223659562898
83.6591064536375
83.6575819364786
83.5607785961157
83.3688612579249
83.4138472448948
83.548378351337
83.6167304807817
83.6467118597946
83.6104865314705
83.5890371478304
83.5391240389044
83.4934272502079
83.5376308673589
83.5561994163971
83.503081865442
83.416521732092
83.3485487772991
83.3113995219996
83.2712293474933
83.2392410536703
83.1806219525276
83.1058303697914
83.018676701388
82.9299461834576
82.7849418223204
82.5809568865055
82.3322343849913
81.9654021911184
81.5447047996719
81.3045541433783
80.7873345238039
79.7832417280931
78.0984397494358
75.828443805591
73.8982918071529
73.7788143399249
75.4002508380467
77.2590113331826
78.3192931146578
