1798
3999.43349933624
650.420452594757
1
128
4
96.1584320582566
96.1822843346868
96.2082681983943
96.2111261746333
96.1574967119274
96.1213442143018
96.0234489108426
96.0351457166546
96.0524204165742
96.0878037522035
96.0932269259946
96.123316392909
96.0742902456499
96.0391163970474
96.0769744999257
96.1439674438927
96.1843290267296
96.1218234214245
96.0614949554137
96.2204313697157
96.2082970421385
96.1031046218451
96.1026443779636
96.090167568975
96.0490905509936
96.0835820112278
96.1001954390671
96.1555943771014
96.1268234677637
96.0947567461422
96.1189874824511
96.129321655448
96.0853630151487
96.1128002031394
96.141566183203
96.1380960754439
96.0871911755164
96.0453187781806
96.1877100136154
96.2837146840443
96.1261678668817
96.1113057795127
96.1200290821891
96.1745304990453
96.2073151392393
96.2266883359159
96.1596382582565
96.1197522892708
96.1503102725305
96.1915697624911
96.1629211915677
96.172633487388
96.1441420758244
96.1375175455791
96.1558425598192
96.1484684454527
96.1261224824322
96.0850207318173
96.0840159505324
96.1160619094509
96.1681645374262
96.1682501478626
96.1873910749198
96.1732506398945
96.1736616774382
96.2605250642932
96.2837746789974
96.2295221406342
96.1402130519491
96.1435292470421
96.1918547005865
96.1949415627087
96.1432616278129
96.1167097695207
96.0378851910767
96.0894365294009
96.1987450521647
96.2448184940633
96.339664441259
96.2464876982004
96.0868096210367
96.1148437809251
96.1829388086257
96.2612623844503
96.1957464988133
96.1178937057781
96.0302643988837
96.0578668522244
96.1551678769708
96.1477755902166
96.1779896803728
96.2551855927236
96.2400905103248
96.2018805317266
96.2094450533342
96.3082805467784
96.2138152635155
96.1153423532476
96.0696588844935
96.0605453378505
96.0660496914041
96.1731073696212
96.3484744101152
96.3570433185042
96.1661113457312
96.0834524453716
96.1290479324573
96.187649988202
96.1829649024866
96.1555414217013
96.1801115854728
96.1997411880699
96.1908744362809
96.2249976190357
96.1662231598779
96.1742365579595
96.2076074428555
96.2001430030237
96.1555631797957
96.1314360823501
96.1393945879688
96.1459102566579
96.1791425698839
96.2393724856366
96.2813256893118
96.2979414476439
96.2695658616378
96.2707320251475
96.2533711001984
96.2694458991014
96.226203277096
96.2147420121641
96.2050163566335
96.2016524681444
96.2427582972235
96.1690214117868
96.138620855882
96.2263745603981
96.1999909255201
96.2803731818224
96.3218067412648
96.1936803320429
96.0519103909217
96.0311970784219
96.1067152221994
96.2606384293809
96.3705224733874
96.3693678670791
96.2367423355271
96.1793127588172
96.222773874165
96.2864952877703
96.2824312220517
96.2474715830747
96.2974223238032
96.3133371089186
96.1541485806325
96.1393936454657
96.1845789601717
96.2817027008893
96.3091915249184
96.3359947743001
96.3206084217701
96.2849828520019
96.3380395897186
96.4149125144744
96.3584325701056
96.1240371349139
96.0223780061249
96.1150403223257
96.3274183620909
96.4651183518522
96.3561248550341
96.2009836931911
96.1611580962765
96.2923888936838
96.1664707275707
96.0930032566735
96.0336510594263
96.0312406957192
96.2138290311519
96.301410140341
96.1439299008976
96.0564534844249
96.1703144256402
96.2463627949378
96.1056242925628
95.8726096257107
95.7800780420832
95.7956775666739
95.8939710305512
95.9652681974361
95.8789625426519
95.9890222378324
96.1366639248898
96.1151667922463
96.013480479161
95.905622673217
95.8666905651753
95.7561660491374
95.6679764767383
95.5745664997247
95.6543339208108
95.7740656893026
95.6321684797678
95.5826815114152
95.5884605300846
95.5119515631481
95.4401545774998
95.5257890448854
95.5033713221097
95.37111014296
95.4149117752951
95.4371843925244
95.3800459561707
95.3598592249968
95.2669065543224
95.2418665545399
95.1542904452676
95.1771554845993
95.2045387091908
95.1829459036441
95.1255741196151
95.0351117955697
94.9977825574533
94.975741206434
94.9697487814092
94.9789588004778
94.8862067179746
94.7677934901049
94.7959366804512
94.8098989785113
94.6661866105568
94.7472256191829
94.9114468595652
94.790165963664
94.5576347110563
94.5377678063083
94.5073263412998
94.5966496371727
94.7322588044673
94.6646328249645
94.4364673475726
94.3431056926737
94.3109662611523
94.3728681543239
94.4437972857764
94.4673728163325
94.3741279384489
94.2374159539331
94.2661075055912
94.1959756151226
94.0400975039482
94.0799682397545
94.0881516220957
94.0718985580017
94.0550968633026
94.026762135332
94.000460006901
94.0093492293444
93.9784711915929
93.9313089425498
93.8813512260861
93.8381737155892
93.8617323733445
93.9444534015531
93.9000441919914
93.8180609131102
93.7206021854877
93.5933707639945
93.5778927293011
93.6905610735974
93.704244519757
93.6047350420754
93.5282030773103
93.5999633682484
93.6255099117328
93.5842994835191
93.5306473725135
93.4736310605498
93.3720998976002
93.3001206832564
93.3150444487885
93.3140870392118
93.2719512968148
93.3598230081072
93.4132976339521
93.4023702380306
93.3020563408311
93.1596095764931
93.0871699545045
93.1446937426979
93.1566724153355
93.0587873034288
93.098061541767
93.2129217401583
93.1201962270028
93.0727108225211
92.9825368923517
92.9681603716185
93.0391722572026
93.0826441230823
93.012229816448
92.969511721363
93.0587166424217
93.096130641297
92.9290971646656
92.7892967887034
92.7395529500662
92.8326273743077
92.8211347349851
92.8049409349715
92.7803763512235
92.7385157080022
92.6611040864723
92.7620817156503
92.8481913420273
92.7599287306354
92.6884682529865
92.7077699869795
92.7043677470948
92.7058055545373
92.6489370342608
92.6491359138018
92.6690584236156
92.6710616826059
92.5761279947217
92.5782756298494
92.5320754566071
92.5159211152026
92.5488938887696
92.5494503752824
92.5439450643682
92.5753043002
92.5335341987204
92.5627601487861
92.5935738825839
92.4804277557693
92.4286294962394
92.4808496098053
92.4604070708107
92.3824577241582
92.3365066925946
92.4319466997818
92.4941105646151
92.4606448481027
92.4324212295791
92.4464340394011
92.4211909236405
92.5105285750095
92.5046297846959
92.3989286371612
92.311545694495
92.2939815431897
92.3892957817454
92.5139902881589
92.5031237242632
92.4961831434204
92.4466737340025
92.485410548954
92.4919232314925
92.4286835828675
92.5041409940726
92.6073069090414
92.52972837779
92.4360161531634
92.4160208611689
92.4906575755796
92.553798150368
92.5770848333566
92.5756160186942
92.6201771411351
92.6072419473333
92.5011123692559
92.4073524819866
92.4506597488079
92.5479480323211
92.5595741584966
92.5734995854518
92.6611765237013
92.5666379428509
92.5210208442067
92.63533515198
92.6363784655692
92.4794872183202
92.538035725319
92.5727402864342
92.6547922238161
92.6896633149255
92.6193935304685
92.555621229794
92.6106628811342
92.5887824612719
92.6023177906645
92.6146371582505
92.6057243346793
92.5576056726952
92.5429029438543
92.571381528087
92.5992717760502
92.5709333624779
92.5065995404872
92.4966683744389
92.6571150838368
92.7579738502453
92.7897002067501
92.7978659640615
92.7341425424407
92.6248535265574
92.6520847998829
92.6854715397948
92.6968248791125
92.6779395820369
92.6506465514825
92.6164144041475
92.7038988049194
92.7150345865205
92.7025333012189
92.6837385082775
92.647285721318
92.6598408676537
92.6839517273903
92.7747618398501
92.8701250837015
92.838785533144
92.7812165650866
92.7794717318014
92.8203233829064
92.7854682744367
92.7459470273893
92.7568472509143
92.9171768953974
92.9481445054106
92.894688051861
92.8795141498539
92.8250736167861
92.7839779840702
92.8537336064923
92.8544392388989
92.8575594806839
92.8806818099721
92.9935201478299
93.05499699165
93.0523898259748
93.0164155798678
93.0286217929341
93.0069718586452
93.0091442579219
93.0700825646574
93.1010173833898
93.0826274373968
93.0311812160975
93.0427429106634
93.1600718008557
93.1473819956586
93.1367421976631
93.1278112497163
93.1455228760017
93.1961734803081
93.2437330521026
93.2824088958886
93.3681654137279
93.3497038176407
93.2397210216392
93.2143435988125
93.2337875475942
93.2869583032957
93.3565968265128
93.3658116843501
93.3619606428249
93.3333877960178
93.3509960425944
93.3853327785951
93.4340602215626
93.4682279039571
93.4901858277726
93.4231406716744
93.3949909182007
93.4807309919349
93.4984364151056
93.433324387073
93.4506305992834
93.533583594568
93.5442234848383
93.5071357166643
93.5650098301114
93.6414914882731
93.6609044912481
93.6314939139571
93.6616983504351
93.7164402857498
93.6928120598348
93.6818337765945
93.7496638801046
93.7367249026675
93.7122770615226
93.722678929441
93.7433113569923
93.6731287297373
93.7266087590037
93.8075338379009
93.7586388609415
93.7899498179183
93.8300236443557
93.7954743038949
93.7834128679453
93.8059432844045
93.8309482557822
93.8528860343135
93.8909046496032
93.9380913351236
93.9845224736213
93.9716955680769
93.9819087573025
93.9792914412192
93.9700326483384
93.9481422615496
93.993559506048
94.0101418103938
93.995346213757
94.0055260258803
94.0021807880113
93.9865488180244
94.0164828317943
94.0453975308972
94.1347264180254
94.1213726519052
94.0928724474329
94.1313722168422
94.2273461389578
94.2275591563576
94.1595289496887
94.1538817037265
94.1615136717684
94.1277385508163
94.1782110671511
94.146083950777
94.149730506744
94.2737251533324
94.3068091726419
94.2555663847472
94.1930596823107
94.0781836459243
94.098623983545
94.1642406496611
94.1952135581237
94.1627679857378
94.2260848212276
94.2299608888908
94.2083048755267
94.2085364557248
94.1051413434078
94.0608846709168
94.0812237408069
94.0461402884589
94.0285774616596
94.0520649445668
94.0645260878075
94.0587417753842
94.0572769664
94.0052665129986
94.0156771823418
94.0788237965399
94.0985434690964
94.1654794660956
94.2359858542876
94.2238239971263
94.2034626467641
94.1360559861537
94.145943976735
94.150960603858
94.1196829412947
94.211274438651
94.2792617428737
94.2552706107051
94.3102902607571
94.3603941953078
94.3207010744367
94.2985427910235
94.3188913660564
94.3538343246832
94.4530160583525
94.5422140123544
94.5228240644365
94.4210578296798
94.4252403417708
94.5092273376153
94.5197070287899
94.4936468634147
94.4974430456341
94.5563286744966
94.584406787076
94.5855192977083
94.61779190468
94.60273730803
94.5658962643874
94.570884177667
94.6304679333436
94.6352667482907
94.619539127536
94.6142381031057
94.5770592868982
94.5572757421821
94.6014246628109
94.6698308938836
94.7098958017666
94.7089079070858
94.6671689135771
94.6980904712363
94.7820942161093
94.7530417705106
94.7778883021157
94.7968643418521
94.8266447816501
94.8658539118205
94.8406848012998
94.8397159947744
94.8616293874011
94.8814863789344
94.9173416280081
94.9331027101602
94.9089711994156
94.9052765742724
94.9500170870606
94.9961759851466
95.0588076846901
95.0085672896871
94.9040246306451
94.9334731556367
94.9988925405162
95.0190864374579
95.0676757881497
95.0955958516035
95.0368105924643
95.0532127470933
95.1106677954095
95.0863026728159
95.1112654352642
95.1578590348466
95.1771360831549
95.1639769739067
95.0883032404228
95.0442263222044
95.0722847851222
95.1181533683193
95.1891918244528
95.1721544578653
95.1196167128554
95.1230573153743
95.2090049710082
95.2574997139593
95.237912361611
95.1826421772908
95.1516911750945
95.1279568968592
95.1258516708751
95.1557952959962
95.2222690437808
95.2567492372368
95.2616100828273
95.2932172185105
95.3390081721155
95.298065065122
95.2812881665981
95.2388144557831
95.1756363091943
95.1700389485615
95.2202189885692
95.2412728013686
95.2380966873309
95.2474599923885
95.3057989720954
95.3439534037135
95.3403850926056
95.2858216694893
95.2753940939914
95.282852002443
95.3063147981965
95.3244241614318
95.31945620243
95.3052177739245
95.2799067279602
95.3046955523188
95.3679771057417
95.4157052797984
95.4969878240847
95.533133947593
95.5028583680448
95.4919109031732
95.5252766927748
95.5585446846613
95.5385006160351
95.5106644982158
95.5689486350813
95.5660005702504
95.528942750366
95.5525794423737
95.5969650229185
95.6365389955058
95.6445701380433
95.6406081897782
95.6219965366884
95.6401360820638
95.6566355883607
95.6639946807469
95.6740777913309
95.643180161582
95.6491651689726
95.6724960268271
95.7147590557714
95.733989660191
95.7348396605234
95.724616400785
95.6946956479025
95.6879796288192
95.7137828584925
95.7157382762745
95.7481128109962
95.7428694784278
95.6963109500636
95.7221834063673
95.7466969313346
95.7058894289021
95.6895415219074
95.6758136136819
95.6632085416335
95.703210978319
95.7381301199013
95.7495317415212
95.7602021299234
95.7754509757256
95.7760840460058
95.7905440417405
95.7913460725661
95.7788114134496
95.8231636264714
95.8851182861199
95.9104771283983
95.8539341754815
95.8206867885865
95.8053362432265
95.8351232786961
95.8779940113195
95.9029033822858
95.9317801259665
95.9292915279819
95.9547137422726
95.9801572885915
96.0013749369286
95.9917159168417
95.9710036981619
96.0320933213495
96.0798131418575
96.0060607385179
95.929576948744
95.9925796852594
96.0577452563213
96.1131685596205
96.1462797511908
96.1276228597727
96.1397039124543
96.1474612897782
96.1671360825711
96.2532782015418
96.2427434846642
96.2029316811867
96.2386057419299
96.1739112522274
96.1636140236414
96.2474745445603
96.2525153734169
96.2808696085203
96.225631773895
96.1682054188332
96.2088267210318
96.2890919768613
96.3504910104346
96.3877214064172
96.4149012448649
96.40473370925
96.3418923819591
96.3170454267816
96.3253405085648
96.2889271195028
96.2060837817044
96.2281058730501
96.306527683078
96.4303059033302
96.4753810761996
96.4416677282831
96.4103958430346
96.3365150332489
96.3025790445023
96.3152137504301
96.3229249048267
96.3682709234404
96.5081755433501
96.6253568008117
96.5369171495262
96.4415295276128
96.4323689511633
96.4656393035928
96.4898204972031
96.4702004418292
96.4381205045491
96.3946504899368
96.4009641577617
96.3895367575862
96.3833365554593
96.3811387687872
96.3874233625967
96.3817346386605
96.3272542027026
96.4197995934076
96.4277499521843
96.3307657151625
96.2687016353189
96.3299660072599
96.3960098911527
96.3858393440934
96.3882872226388
96.305500300027
96.3004728222333
96.4116891495758
96.4031052552983
96.3579716464125
96.4275165494982
96.4741722557555
96.3758052642526
96.3695278207843
96.3738124641962
96.3563816533626
96.3308559180721
96.3492914207595
96.3683627032936
96.357863970897
96.3997508049864
96.4992011857471
96.4094112934773
96.3271587727424
96.3703041734403
96.3725115479091
96.306215401437
96.263556536251
96.2634233419956
96.3429474971107
96.3809876766508
96.3340645317636
96.3080928150205
96.3209547396662
96.3269734342192
96.2939649507595
96.2818669047312
96.2415036433803
96.1519998540875
96.092309496656
96.0875835041243
95.9984359370624
95.8904633631992
95.8200448586415
95.8260302806472
95.7901666461
95.7701360637955
95.8257950161107
95.9187376718175
96.0333526677548
96.1708644641356
96.2612782554963
96.3150122820644
96.3832566451451
96.4555048028456
96.5423186267885
96.6514219950758
96.7344837723784
96.7397782464145
96.7224151662407
96.7198428384331
96.7335353686298
96.6596286953872
96.6586929420024
96.7069819573986
96.7061964156635
96.6729843772506
96.6447725977269
96.5811622639592
96.5388886114013
96.6242710650016
96.7600099624903
96.7452490324737
96.6584973488248
96.6109808625279
96.5712215347807
96.6918054284948
96.781675263976
96.7690176465594
96.7310081537557
96.6176727614976
96.5806842260673
96.4794058245922
96.3543626297012
96.4386207046833
96.5620507921102
96.6147317085344
96.6018912215424
96.5318849506934
96.6164172275396
96.6761709832009
96.6310251618818
96.6325739795624
96.7155880620479
96.7544529820623
96.7352149071512
96.671123164736
96.6639452484245
96.7274296486513
96.7068646231503
96.666416663975
96.6765611678444
96.7349153939903
96.7606716213197
96.8118646347551
96.8227313500402
96.9553022872793
97.0646167210225
97.0614531990135
97.1713225322499
97.266835518993
97.2948400769517
97.2487150867697
97.1596693693343
97.2765413991649
97.3447996519773
97.3371250674418
97.4292472375392
97.4223923729523
97.2802548250033
97.4912984786385
97.7161072443149
97.7663187839282
97.6967861258966
97.6290734494224
97.6188778973505
97.6962810002843
97.4045325575559
97.308300374817
97.6386287521683
97.8309823631671
97.9273416809945
98.2686555543513
98.1410747168068
97.9083589938264
98.1970928132315
98.2230900754135
98.0688930151351
98.1044100147552
98.0925018528043
98.1855127038761
98.1564238531632
98.033852284967
97.9684142606932
97.9927239590282
98.2789621511868
98.5188440265975
98.6408616005136
98.4961218526818
98.1879686191325
98.3327449597323
98.6457092566894
98.6565278104109
98.5864637013224
98.2620896128719
98.4135362507215
98.8430566920477
98.755059616114
98.3628974240515
98.5238543263995
98.8833707214388
98.6628627122461
98.1941107834127
98.4350758981459
98.4937057339323
98.5245002383845
98.9765517311258
99.0848591357173
98.7609992043758
98.8033199263432
99.0683731912537
99.3420732679193
99.7188663957684
99.4918374758628
99.1105805078115
98.9114645568209
98.7124750416395
98.3208946701798
98.3979841684973
98.3968886800476
98.1225118565909
98.2121455185501
98.2730389786361
98.2545408471555
98.1099411851428
97.9085909251942
97.7989946783033
97.9011916671817
97.9830408728915
97.9108268153356
97.821206558588
97.5757538872577
97.347746693512
97.3368364039425
97.3600871863855
97.4128876983812
97.5184961560831
97.3968005154725
97.4025463715815
97.4655663004767
97.5187938846002
97.4645693589287
97.4100385751009
97.351926064928
97.3611083327596
97.446324074319
97.4329427378606
97.4089580072116
97.5031418645525
97.4798462320318
97.4419746117568
97.3796045737419
97.2942995821519
97.1553455510056
97.027203901448
97.2016130750744
97.4582063994898
97.481670444053
97.3151176510048
97.1865375287339
97.2459281479692
97.5449924263803
97.7709380761088
97.8126599032285
97.7364458820315
97.5765578213901
97.4559659702029
97.61795343637
97.8124043624582
97.5922821427216
97.320665376652
97.6432205257974
97.976982460636
98.1158916236199
98.3758784655663
98.588099724903
98.341365900189
98.232188561773
98.7443707947737
98.9176578448083
98.9052290679658
98.5200617862895
97.9848227259483
98.1272459097964
98.6761417514379
98.9215518411164
98.7242928805384
98.5213489856322
98.6590681980315
98.5712381649091
98.4019430911432
98.359897062493
98.2185831804949
98.0480463312225
98.5819480457036
98.854050577885
98.3909495049589
98.1435432568663
98.1448885881053
98.269166904427
98.2170405637988
98.0795698869133
98.4245138308676
98.3155525345044
98.1840943999443
98.3633377130614
98.3160238473347
98.3953827478893
98.6112480422198
98.5364823476983
98.6050911640262
98.6742721827002
98.6681719323047
98.5450291384247
98.4768593963993
98.2118100956698
98.1053386074397
98.3329663867506
98.3906240012703
98.3340033730345
98.2058374363491
98.034979843663
97.8725258159576
97.8855253522828
97.9596314839511
97.9912838038547
97.9629133966372
97.8793716112992
97.7479074628558
97.7877128100282
98.0079181985981
98.0224041523267
97.795068116181
97.6382449720097
97.688256788436
97.6728383023084
97.6426960425159
97.6601209901007
97.6066036507869
97.466017847262
97.4087324700801
97.5781937412966
97.7775542236921
97.7206656187635
97.6015865660367
97.5313391329428
97.4749796231437
97.3977351755738
97.4024110296914
97.4633137954932
97.4568134758511
97.4529671042767
97.4841087899625
97.5508034021538
97.5270658107585
97.462132838715
97.5533675397986
97.5030896416364
97.3214556640624
97.232507117558
97.3408121408085
97.4632307420855
97.4507477704482
97.3712680889543
97.361774297381
97.4484760887253
97.5045498122053
97.4560288247605
97.4049957868177
97.3703328794012
97.300888753014
97.303153421356
97.3723688854996
97.3840214899021
97.4403905435149
97.4169757309584
97.3440695268254
97.3304670310586
97.3352595960288
97.3508363917532
97.4056647717733
97.3956515517824
97.372554297683
97.3798310014577
97.3347649497894
97.2815106770299
97.2938914430575
97.2992763203722
97.3134823268428
97.343547011647
97.3692982370045
97.3572187559684
97.3292961403976
97.2756804082234
97.295719566242
97.3409344187555
97.3074624565529
97.2284128956565
97.2133444140887
97.2495865242751
97.2566428990617
97.2605067065235
97.2269650601866
97.1876258059832
97.1961116692241
97.1513426059762
97.1123206421861
97.1098278047939
97.1011344613271
97.1280324122045
97.1723118889116
97.1422570361675
97.098140047492
97.0392421852928
96.9732196521991
96.9803935048144
96.9974598764277
97.0074983466369
96.9705781016609
96.9021244030756
96.8323816754952
96.692087585819
96.4126311669563
95.7433991848522
95.2059911494991
95.517462570568
96.0148600974261
96.3475174730439
96.5523076283314
96.5846033641435
96.5904439631721
96.6492498983469
96.66780885149
96.6456119932604
96.6382609663201
96.5881247671202
96.5283219960732
96.5094236901885
96.4443295664133
96.4270834749894
96.4296167555352
96.2925773171968
96.1991219205001
96.1780716755782
96.1136885030915
96.0233836737916
95.9626985044885
95.8688832333974
95.7823397540268
95.6560932069059
95.5456748657039
95.4386376991633
95.2665349994064
95.0746913496966
94.9021605279854
94.786281280317
94.6141276031008
94.4320641242811
94.3669511913845
94.1477056482524
93.9888337537929
93.8404925060608
93.6247543426651
93.4460379330702
93.3166703267999
93.0819883678585
92.9653239291381
92.8982150450278
92.6608505493548
92.4618630663352
92.2995729131788
92.2039442203813
92.0883745711253
91.9202393503174
91.8286329296448
91.7675462591413
91.6184634976653
91.4472055043201
91.3649040772746
91.3494688704882
91.2932363013976
91.154629461214
90.9982402117246
91.2005327432268
91.2039076517972
90.9211826383567
90.8332118687975
90.8762116978373
90.7589550416528
90.6289224966702
90.5309011011902
90.3381288829299
90.2834864342452
90.3676411718767
90.22245412418
90.0508915448608
89.9623762109592
89.8940764433625
89.754224112262
89.7089273420106
89.6430249716714
89.4391632477954
89.3094534802027
89.399294128848
89.3230065818925
89.1808310945048
89.1059122968025
89.0614918016145
89.0300056463218
88.9732415388409
88.8794555380257
88.7815668035931
88.7282864966709
88.6741269045621
88.6118545529251
88.5763542437827
88.5275775160909
88.446974877772
88.4010128139043
88.3442801970305
88.2693635537229
88.2226544531338
88.1710181831039
88.0265020382171
88.0473258643732
88.1835004534179
88.0772343484811
87.9435448502698
87.9886406328916
87.9725666066417
87.9092491506324
87.8319618131231
87.5888644775594
87.4974860127368
87.8973027599766
87.8193856880431
87.7459783286626
87.6472484035864
87.539698730017
87.5045058232896
87.3577705327078
87.2509387044977
87.097922157624
87.0257358678601
87.2382914468336
87.2004569311805
86.9174071992811
86.80515055307
86.7736174473029
86.6128761803741
86.4319518017492
86.3279453611346
86.1973581360397
86.0611387726926
86.1272532532915
85.9514172250453
85.8000997469612
85.6946181000022
85.5126339268028
85.3307510743986
85.0583583955921
84.9056774689546
85.1991108182693
85.1147870420146
84.8452903936454
84.6482957376985
84.5295450409649
84.5643549044843
84.5638054084116
84.3470160431073
84.2026415741882
84.2630723709382
84.3211498353542
84.2775551941012
84.1442175187203
84.077362130966
84.0135137291415
83.8701170151017
83.7591276396839
83.6455804773242
83.7681488141689
83.7896689510328
83.5591043003242
83.3260626389707
83.2593980393149
83.1604026570754
82.8633957428149
82.5353392299619
82.4696172429206
82.4883795466882
82.1247661135841
81.6468324472713
81.061731506227
80.506709780853
79.9223844545413
79.2935748567924
78.6864868418085
78.0796618818924
77.4256533125139
76.8612249124428
76.1289013521278
75.3275530546543
74.9314751387561
74.9135755726581
74.599406899232
74.0002788007284
73.3624179232034
72.6034879382173
71.924992422093
71.3427514229582
70.6186544046829
69.903564987743
69.1719002738261
68.483163776547
67.7975173938062
67.1166657345068
66.4874070075291
65.8530287839939
65.1663740523456
64.6052393031473
64.0558636806942
63.4595090057988
62.9454429779792
62.3493031641949
61.6639489899995
61.0271598259919
60.4814341110195
59.8333801613542
59.2147076360286
58.7061919173982
58.3027752549845
57.970463292573
57.8288336281814
58.0993794168142
58.4458955647431
58.829992331893
59.3596936370698
59.8115541222939
60.244232405042
60.9616389879994
61.666822560732
62.1580313850634
62.6291708440676
63.2021244906637
63.7894959605104
64.3942113866445
65.1004554855027
65.8704639091156
66.6297494275848
67.3449523267768
67.9785532363538
68.729216913482
69.5951938334552
70.3019846109801
70.8819412242003
71.4555279662305
72.0551577602384
72.6352314476981
73.2036495745516
73.776578788747
74.3185447971049
74.8063515400909
75.3103102712925
75.8234552888036
76.2687072209112
76.7113787706695
77.1636901232251
77.5630756829266
77.9583118349123
78.3513784104766
78.7279487373578
79.0934764243139
79.4338294539934
79.7680608685561
80.10824798244
80.4412928110009
80.7639073063459
81.0650242769594
81.3334410321684
81.5940339592743
81.8482725725037
82.0914574403344
82.3297052348355
82.5623055775874
82.8164449758522
83.037579163284
83.238403720119
83.4367161807618
83.6125987250626
83.7933743028779
83.9682048631969
84.1316706558096
84.2820416559849
84.4321894442543
84.5910389995747
84.7218386365718
84.8243430860696
84.9282088158145
85.0555568602008
85.1677759807572
85.285665458439
85.4359702845124
85.571242197658
85.7060866887706
85.8420963504316
85.9769310398108
86.1036028170129
86.1994346629923
86.3215503209335
86.4425068477727
86.5527999378699
86.6334397246596
86.6804368975924
86.703525197707
86.7207402452524
86.7256662533611
86.7125897918488
86.6630102383972
86.5923728076768
86.509977749243
86.3823073344461
86.2090074769936
86.0035518570977
85.7658260558121
85.4990613706557
85.1728792065549
84.8194222727476
84.4799474197814
84.116413308295
83.7172295724546
83.3300426798613
82.9632213592258
82.6151615418612
82.2636460942671
81.93694927752
81.6594935018035
81.3960681472272
81.1244074025652
80.8793088310047
80.6276711917424
80.3844534221106
80.135381260796
79.8472012191157
79.5279885187082
79.2156779908855
78.8918007729025
78.5909006977436
78.2722009380322
77.9126114596241
77.5143585215923
77.1261231988088
76.7496627072436
76.3903840960804
76.043702921809
75.6995465361174
75.3446145228818
74.9689485108342
74.5693407124371
74.1664304248856
73.7699259272619
73.3595023337844
72.9125868969828
72.4445748012097
71.9445369316026
71.4715348643102
71.032390627303
70.6325478283845
70.3077630160144
70.0364185007691
69.8180720179805
69.6399083713152
69.4843343714912
69.3275745794651
69.2111513127376
69.1741541451322
69.2077075672052
69.3378930517396
69.5762429676834
69.8984678750693
70.2799076022414
70.7079882184565
71.1287317285445
71.584312827035
72.1023107279305
72.7187763690978
73.3945448516512
74.1120814791643
74.8368147812333
75.5381354143229
76.2033380301027
76.8614779787797
77.4943659276462
78.1089008474893
78.6918312607062
79.2309058916743
79.7616365662904
80.3104539806352
80.8028849074881
81.2458400444896
81.6572977961749
82.0176559152443
82.3541480535751
82.6724751551178
82.9575017200127
83.20663012275
83.4081366028957
83.5742179997535
83.8182340770088
84.109561090805
84.4041094723978
84.6974581766873
84.9752613086116
85.2366164349962
85.4469648147131
85.6537606904987
85.8472881587616
86.019758232844
86.1688749826018
86.3385469179932
86.537003243701
86.7169668940018
86.8834669499303
87.0542635410239
87.1950439087067
87.3028835601692
87.4007968358857
87.5203124271382
87.6316580945957
87.7124222113325
87.7759323737753
87.8771676668455
87.9542260835272
88.012380659068
88.054417179971
88.0304401647628
87.9746244973493
87.9090916333955
87.7515568329822
87.5788121800143
87.5844433163923
87.7691811189072
87.9846524217626
88.1792948892184
88.4362951568697
88.721027151677
88.939933213442
89.1692099859741
89.3745631067568
89.5522756330031
89.681110137489
89.767645531923
89.8620494554506
89.9903996162418
90.1185403984247
90.218387196747
90.2976981653389
90.4056400617131
90.4569707632498
90.5182170592948
90.609467636076
90.6657826203399
90.7008427002343
90.7181441588824
90.7649322200789
90.8383087655963
90.8703197925344
90.8758168972392
90.895545313805
90.9582348056484
91.0003760820161
91.022812523231
91.0674097759904
91.1108839185499
91.1430262878952
91.1663790986607
91.189499282719
91.2061649268536
91.2373460347022
91.2806363316031
91.27263247646
91.2654014886471
91.3055967564737
91.3295450838821
91.3422432697636
91.3614682426766
91.3598504649468
91.339138963955
91.3214165048944
91.3109249812961
91.2917423519603
91.2214979315069
91.1288500730159
91.0121111393847
90.8340916558239
90.6174074064023
90.3380184145528
90.0115600560658
89.6468982623095
89.197082185799
88.6833454828791
88.232810726858
87.8563157329152
87.4836163820917
87.0803876091919
86.746709077505
86.5796618114684
86.5605925666805
86.6381074115431
86.8534161956359
87.1489004546365
87.5164102894516
87.9600549013949
88.4211746579526
88.8303113762209
89.1662553714291
89.4094360967024
89.5714323732258
89.5849489486226
89.5285981385119
89.3947944844654
89.1788476070716
88.8315990324711
88.3155014137768
87.8129094640558
87.3743332889385
86.0985230088219
82.7760404446119
78.8945285830729
78.5688841933363
82.0294078205807
85.6543466605625
87.7890262134283
88.8323893196677
89.3035755199612
89.5139838426452
89.6054292097183
89.7494019087279
89.8973628495857
90.0215165323947
90.0900997497308
90.1308741351681
90.1454571417683
90.1230692436799
90.0522322683554
90.007543411001
89.9863042844522
89.9588354187624
89.9550215725211
89.9425044953259
89.9152587184875
89.9335047344645
89.9670028712531
89.9400036995734
89.9435373324253
89.9399710279349
89.884334328439
89.8520789565447
89.8317700821544
89.8288137664265
89.808915017676
89.7607562943168
89.8060939317593
89.8639947606412
89.8146949124208
89.7724428313799
89.7374034102333
89.7446295091177
89.7206225582602
89.645618885096
89.6052409722373
89.6164279606698
89.5910887141514
89.5150172952658
89.4620214863795
89.4893381063901
89.4993254968527
89.3951437833972
89.3044383801088
89.2506529521971
89.2193568042007
89.1340699190051
89.0191751228519
88.9564670940244
88.8706918531892
88.7921323598028
88.678041340563
88.5035592241522
88.3168216641134
88.2286513668597
88.1476284101542
87.9897955056706
87.8003682366689
87.6678916005988
87.5760406363925
87.5689661832772
87.5431118012797
87.5203109067576
87.5484773505308
87.5633062027972
87.5842559751838
87.6747579231402
87.7557533923806
87.8007927015269
87.8248904887362
87.8189956470595
87.8445308885261
87.9409389890463
87.9716703071255
88.0575342032713
88.0874102253653
88.045796888667
87.9390704593634
88.0960137318821
88.2292876499953
88.2291779646046
88.1323514105182
88.0629066425424
88.0715220467992
88.0873001181308
88.0160954940645
87.9060155639765
87.7467132369073
