1798
3999.43349933624
650.420452594757
1
128
4
96.4514229683241
96.4149316260956
96.4836216144198
96.4798026408256
96.3850750928848
96.3939710188249
96.4128453905725
96.4928512236658
96.5570789774969
96.479023767331
96.4702837404781
96.4898478016936
96.3781538733537
96.3580701483564
96.4125921069341
96.4557023940999
96.5554029091269
96.6090846570893
96.5375263413905
96.4619245853928
96.4546660073548
96.4369289853953
96.3966057541291
96.4001765808485
96.4277991069315
96.4158016336285
96.4958878279783
96.536723336778
96.4712123203023
96.4386480309614
96.4166827929492
96.4113609249105
96.4269934455454
96.4460162321128
96.5146502376243
96.5121108116272
96.3593972661288
96.2846890815645
96.3980626312105
96.4761228416314
96.4397885519593
96.4247911032516
96.4481722845662
96.3822743585169
96.3126017324228
96.3344865483474
96.4327257239604
96.5171113946417
96.6306128617267
96.7676337463109
96.6752570104518
96.4409924718151
96.2889288200636
96.2200519869462
96.2597248219518
96.4562751464537
96.6031046872465
96.5709794927822
96.5471097523775
96.54867668958
96.5606495054234
96.5413588481384
96.4150926054991
96.2978533468777
96.3367234408855
96.457841170131
96.5246246928423
96.58475178995
96.7049895499012
96.6013539221157
96.3141287080075
96.2444461010808
96.3744425964665
96.4736231377186
96.5616947206014
96.7312488480124
96.8899272763561
96.6926719017447
96.2128638525091
96.1035225442565
96.2115429012283
96.3107818534067
96.4783900454368
96.6290388473969
96.7124826687814
96.7063134713614
96.6089508607394
96.509158550724
96.3910973059315
96.3553898770163
96.410925954051
96.4670173664314
96.552123920026
96.6327322148892
96.6578997702452
96.6193086113057
96.6026199673264
96.5482945927091
96.3953963352279
96.3293206166157
96.4146044700149
96.5899079946829
96.7150220715513
96.7286402171114
96.8039960435977
96.7423990125024
96.4976749707664
96.4147728036174
96.426641148943
96.3697275569376
96.4259037947411
96.5678110297199
96.5706571533238
96.5754150933288
96.6444596692554
96.6366435037205
96.6178873090037
96.6154298282718
96.6006981641416
96.6300338184041
96.6657394016984
96.7073646247411
96.7542129101093
96.7253575675336
96.700734531951
96.6120510722802
96.5255386667653
96.6168192998654
96.6384544687298
96.7331950899971
96.8970837517402
96.94717208618
96.8773021347699
96.6383765392174
96.5191184235442
96.5018588512738
96.2787964168704
96.2061729822359
96.4576276142837
96.6892361237136
96.761792684352
96.5672729495572
96.4534277461526
96.636886246455
96.7297112278809
96.6617244873726
96.6300020844349
96.7359594433056
96.8399406804095
96.7697893370179
96.6270293204376
96.6336186977021
96.7455832680963
96.7322681125817
96.5877107244513
96.5847961888717
96.6791787411026
96.6696107816762
96.6901626328853
96.6830618509597
96.6437688629873
96.6498180948637
96.7290602095094
96.8228218388136
96.8572337756362
96.8068012043902
96.6174944818916
96.4573439431918
96.4865564154096
96.5661802613648
96.6526278731008
96.7825334662936
96.9013574699524
96.8059521854349
96.621810911629
96.5658127107909
96.4049606426808
96.3364612012781
96.4310363647694
96.420591698891
96.4455897620243
96.5693438747467
96.6161915009835
96.6028774348768
96.6291480862832
96.6658247676734
96.5689136859451
96.3386622879816
96.0619980316304
95.9749295412897
96.0217311424276
96.0997923100351
96.2057744160958
96.2832266779949
96.314338411945
96.2996899560953
96.263720784714
96.2031108769592
96.0554266219136
95.980983449752
96.0059003934677
95.9768853500588
95.8919674446792
95.8549536854139
95.7904358260467
95.7738643315788
95.8707901403953
95.7965635187655
95.6451164709988
95.5856912673642
95.5599946696462
95.5930236103795
95.5922372763423
95.6291992503536
95.5726833007267
95.5129635719717
95.5476408598038
95.479597124257
95.3578253090985
95.3409677758597
95.3505277783675
95.2639342362775
95.16300344104
95.1787982486799
95.0940703928797
94.9834752075334
95.0466324535073
95.052047717014
94.9979780725392
95.0735431048705
94.9995551465932
94.8095346021086
94.7452421210153
94.7434280792502
94.7223443295244
94.7750290919041
94.8497253436915
94.7090026099925
94.5190415192517
94.4953149581015
94.5281121293898
94.5575876604091
94.476930148158
94.2856248489687
94.1573485554657
94.2245007647434
94.2674953721581
94.2090936654095
94.1545369872858
94.131380790797
94.135701186977
94.1533445311529
94.1082567680916
93.9661803544265
93.9298426504477
93.9315885261764
93.8349756678567
93.7518199244313
93.7096567302826
93.7625568471411
93.812832931462
93.7001967628498
93.5503127886231
93.5090662781611
93.557720924628
93.5573500370802
93.438190642067
93.3684180596167
93.285398957996
93.1960738080153
93.2350501555037
93.2498008212389
93.1489731722917
93.1432664609964
93.1854033445284
93.1028507998139
93.0222055880656
93.0374863503304
92.9906742902713
92.8952186578909
92.8624226375868
92.7780572431121
92.6559966558755
92.6417993827353
92.6060585155574
92.4943858845145
92.5166517865341
92.5972330048995
92.5848847149582
92.5231110679837
92.5174666460003
92.4906990664733
92.389431435756
92.3870375881466
92.4378451316039
92.4232094614218
92.295836679273
92.1644968606323
92.1119907058296
92.0886683182467
92.111905778065
92.0745248874199
91.9362989292819
91.9139528201281
91.9215688161836
91.8809922167254
91.8424762560018
91.789079849848
91.7273456051884
91.7489074235121
91.7949522820538
91.7322905451437
91.6316869123521
91.590349549003
91.567019254562
91.6155578643261
91.5996189397217
91.494954040791
91.4435754386653
91.4276407866756
91.3998278044041
91.3978296577185
91.390063046461
91.2836295185332
91.2861598399562
91.312544919445
91.1983168638355
91.2005211472063
91.1922370040055
91.0795460523732
91.0471067205857
91.0430156692203
90.9555384047267
90.9455575902067
90.9902825906299
90.98105997021
90.9763258354874
90.9452358492488
90.8826956568101
90.8431676992426
90.8363984691097
90.779268146608
90.7925292364031
90.8547518512728
90.7598693817145
90.6675897435781
90.6623347718483
90.6393326783425
90.5830480361336
90.6185891433659
90.6454534071327
90.5624242605782
90.5379436302158
90.5817175842417
90.580747211685
90.5520210334883
90.4901071246885
90.4745436644944
90.5151912718344
90.5185353286894
90.5196722280594
90.505223919956
90.4300928851566
90.3851348234029
90.3998107295639
90.4034452846434
90.3765809817001
90.3757541478133
90.4023213698209
90.3785267276643
90.3869372702905
90.4440881566889
90.4077390068625
90.3372621973962
90.2435545806416
90.2158714812141
90.2380316070653
90.2227928570825
90.2632539835876
90.3335689719509
90.3006165599084
90.2917277790684
90.3155641859724
90.2912759053125
90.280518543899
90.2626895288944
90.1801419678204
90.1850031198269
90.1948318007924
90.2013581433608
90.2806933273209
90.2832370434501
90.2355454474996
90.286371347024
90.3370462161528
90.2938646391376
90.2554939946623
90.2744603157614
90.2693606430134
90.2236355399311
90.1798729260785
90.249447787212
90.3203299656203
90.2847323083292
90.2761872591414
90.2583477219462
90.2317159760536
90.3118743359592
90.3753429794896
90.3530955302424
90.2975920209252
90.3150237219127
90.3352579540967
90.3079234915479
90.3101504817248
90.3406554801169
90.2707941569903
90.2417486187234
90.2957857654867
90.3016207702411
90.309804471413
90.3801130133489
90.4059057296003
90.350851073305
90.3544115960897
90.4471726631745
90.4601081507546
90.3632456183638
90.2986421823258
90.3800575553116
90.4575829268746
90.4510417738467
90.4849843941837
90.5262247937545
90.5072587326373
90.5500197134296
90.5879878493514
90.5853991468899
90.6736922566756
90.7009619647221
90.5863143537287
90.5629171853889
90.6404048842585
90.6975061620018
90.6978770172543
90.6902255774312
90.6821271724381
90.7084028068956
90.7373098825397
90.7605089500739
90.8027277971968
90.8589097110495
90.9178336554583
90.9995425814399
91.0352289743635
90.9885356048742
90.9559465118916
90.9793824190434
90.9908211576562
91.020596093543
91.0988819967123
91.1643068154933
91.1192454313691
91.044713626462
91.0455598774941
91.1329465347646
91.2191985351703
91.2456612410387
91.222702881043
91.2073645081774
91.2649811195675
91.3737311253737
91.4058270764531
91.4331839802039
91.4486276487772
91.4243934740256
91.4001897505489
91.4444854686169
91.4782277448783
91.4270341906428
91.4247905104489
91.5089829868028
91.5625588604852
91.524796392656
91.4554341676045
91.495881978897
91.5874563635319
91.5979480208152
91.5817155060304
91.6017179181088
91.6286352406739
91.7028126467542
91.768282125599
91.8351294923948
91.8401237924843
91.7921906182798
91.8092328329293
91.8590898711223
91.8504289152191
91.7821453415781
91.6909831233846
91.7356183437119
91.8656476269725
91.9360855852812
91.9376771212298
91.8824337410964
91.8945297710603
91.9940144705371
92.0238784794247
92.0410318883666
92.0381004693645
92.0256842970638
92.0644147620486
92.0968219104152
92.1222944451196
92.1578071576261
92.1259846627693
92.1571219066789
92.2548551253769
92.2657125025236
92.2060052971059
92.18405539908
92.2306298837259
92.2984675688337
92.3111264245793
92.2912036201965
92.2917253396529
92.3126126048653
92.372337708947
92.4604296863992
92.4361081758214
92.3893724596147
92.3513933268914
92.3429179327264
92.3823368565332
92.4017823045689
92.4369629800483
92.4174445964012
92.3616455727425
92.3945527315003
92.3851168316306
92.3529003644079
92.3287394449504
92.290938963604
92.2288950970351
92.1869063062202
92.2417939374161
92.3312770628874
92.3141917966626
92.1947542324322
92.1071004580849
92.1340269589146
92.1532109684328
92.1127273298071
92.0906349057587
92.1081649530668
92.0826667773984
92.0434667412281
92.009827683804
91.9587180584022
91.9527882905245
91.9794564523966
91.9662570627261
91.9554579398925
91.9423793717505
91.9479198261343
91.9537184079903
91.9070642973727
91.8383484556866
91.8071816099384
91.7754517519842
91.7556976025259
91.7276477664602
91.7390842774378
91.7871239107133
91.7763799113228
91.7518961144748
91.7825635248626
91.7858079173018
91.8381075466602
91.8978302006151
91.9153831997451
91.9910329965222
92.0718424327406
92.0797536855235
92.0977897627406
92.1752808572232
92.2348855823111
92.2515654987724
92.3010805585565
92.287577052042
92.2917316840838
92.3438652908037
92.3668445295635
92.3959765224048
92.4533664415402
92.4989060193388
92.4867932340156
92.453773542613
92.4320195130844
92.4289646100427
92.4660776355642
92.4928741235646
92.5252008647563
92.5390717654631
92.5419337571459
92.5989719114905
92.6546403091978
92.6814371333751
92.7393837015605
92.7585629791052
92.7552303454035
92.7341684169642
92.7239972914654
92.7503778806677
92.7858950409126
92.8056956686199
92.8305953963684
92.8788762518628
92.9396491646531
93.0046087054645
93.0778774881797
93.1243074018023
93.1268039061278
93.1246562660105
93.1404160551491
93.176006231732
93.2232976797845
93.2796888419004
93.3513204487484
93.3500972590238
93.3284003256113
93.34259371567
93.3924166975759
93.4187282403115
93.454122780584
93.4727197544309
93.4625965545218
93.4736948698026
93.4612453368665
93.4489673709095
93.5201089251022
93.5802927323354
93.5706499644436
93.5484557843783
93.6006720515179
93.6195838827119
93.5737801846604
93.5687433174578
93.6119336207571
93.6762320940279
93.7231830485817
93.7123232730325
93.7031822959146
93.7258193925906
93.7224107742784
93.7225230493993
93.7991696953148
93.8547334586405
93.8275210790544
93.7728197611305
93.7854485563082
93.8405980189377
93.8524171717004
93.8768715819068
93.9114722593037
93.8889177142447
93.8787606829191
93.925959548762
93.9653571977
93.9499078707586
93.959285241651
93.9669004663227
93.9541293196671
93.9426141154144
93.9380272137767
93.9928834893673
94.0687137387265
94.0380078946062
93.9772491320688
93.9754317293133
93.992075000658
94.0221183478758
94.0443429417405
94.0482754815795
94.0599016062489
94.0877075193788
94.1277771505753
94.1354586907702
94.1311294123291
94.1665245340603
94.1720598858488
94.103511876196
94.1072494909035
94.1530163668949
94.1784359909313
94.2093813630659
94.2187094966153
94.2223699324904
94.2474825706779
94.2627298525167
94.2838887811234
94.2946318837058
94.2691335694629
94.2423361271456
94.2573773713739
94.2971823968869
94.3247768293253
94.3401430177679
94.3550707404115
94.363416475154
94.3642388452264
94.3590348017239
94.3792265134811
94.3778653273561
94.3810245822771
94.4351555531292
94.4742790500774
94.4438626537314
94.4082051529756
94.457601994685
94.5062520488017
94.4824060343588
94.4946313615816
94.5571963485221
94.5661461452683
94.5330122331516
94.5301365751342
94.5532497739727
94.5658767527203
94.5597087611865
94.5884320048341
94.6338413994676
94.6639026084908
94.6759206585376
94.6975884923058
94.747938681758
94.7794554856246
94.7683251621318
94.7740524544845
94.7944265717082
94.7741353339731
94.7507206158427
94.858198255828
94.9434071488782
94.8735121610995
94.8169698241397
94.8855507782869
94.9606607994935
94.9402416984204
94.9456938270418
95.0061120146307
95.0088509708902
94.9786450436293
94.945960318803
94.9921750186427
95.0553295589004
95.0442729582257
95.0456288203315
95.044914112591
95.0452512348592
95.1265809684501
95.1991060862384
95.1585824535535
95.1387643279032
95.2111668946913
95.2078608179272
95.1773967029897
95.1655008634612
95.1409647337132
95.1691474030291
95.2510170373315
95.328577904037
95.3306120766391
95.3041274227554
95.2757823393519
95.2509533025777
95.2819637089523
95.3061906764304
95.2827772665891
95.3337984162863
95.3583125864143
95.3060345869207
95.3205798497404
95.3530218687976
95.2930692662093
95.2777605096082
95.3897977675642
95.4496453450913
95.3981241606659
95.3613767748408
95.42227564047
95.4146507884328
95.4776017381184
95.5674711260542
95.5040023243703
95.4430506522974
95.3783206262414
95.3305830127654
95.3977088141374
95.5056098380882
95.5083344505065
95.4758339908839
95.4514311314032
95.4244648420838
95.453791157943
95.5243592275672
95.5135977487828
95.4367506038326
95.4673339970038
95.5007188953786
95.4571727811006
95.5343619886276
95.6022125294095
95.5083454475705
95.5305599550693
95.6322581220686
95.5912625785745
95.5264160074878
95.5558860250799
95.5874995231304
95.577367048347
95.5560472601854
95.5512710589423
95.6350063870677
95.6678342936469
95.5871183661341
95.5660485171237
95.6140678327677
95.6615583072256
95.669872916837
95.657271141678
95.6031232892363
95.5275208056753
95.5293472803489
95.6038818162372
95.6878293045625
95.7039348624867
95.6431859837522
95.6514407755941
95.707478333953
95.7285367785784
95.7788550590005
95.790344906269
95.7834782479734
95.7382900897688
95.6800523527457
95.6693813300586
95.686889325496
95.7046346598269
95.7125139999813
95.6868424314379
95.6519465156047
95.6466751101386
95.6952557132105
95.7372723521983
95.7193378148004
95.7121166862561
95.7156564334233
95.7308409377181
95.7383260975403
95.7116344818506
95.6945860809344
95.6608220511288
95.6377670950586
95.6487666030484
95.6717370006032
95.7199687781681
95.7949053507556
95.8337499138246
95.8235096891639
95.8098605036327
95.8435145454539
95.8744329629979
95.9427570211496
95.9800366678759
95.8490541429428
95.7956493352716
95.8905603672411
95.9572339138732
95.8731545954757
95.6176575675265
95.4520705401459
95.5030050174532
95.5804650694723
95.7291966798652
95.9451998435861
96.0458310066656
95.9898446694884
95.8904729030008
95.8316451925506
95.8090898297235
95.7457658961794
95.7260588461768
95.7278536238199
95.7159075681796
95.7155302499885
95.7293708782603
95.7979975877486
95.8150119634988
95.8304070729028
95.9192149663181
95.9453997164061
95.8621025408453
95.8049047835746
95.8255223308446
95.7964662108212
95.8005853969126
95.9011877040138
95.9450351218977
95.9247413824748
95.9558475198945
95.9781315863202
95.9791319571284
95.9886934289929
96.0286594305501
96.1332213555397
96.1727612248194
96.1016518603367
96.1108380764536
96.2261058273134
96.2870027577194
96.3408031526855
96.3713796689323
96.365051711886
96.3333220052153
96.4697359338004
96.5689465384458
96.5227389689804
96.4905252280535
96.6245540700926
96.7229141971688
96.7689880435443
96.7495213064403
96.7016984310073
96.6901846870394
96.7034096926055
96.6780436659767
96.7088613841628
96.9328920423971
97.0042533345679
97.0024697149381
96.9834122186816
96.856878785737
96.8759122277516
97.1136419917778
97.1601377653715
96.9256656781384
96.7905614105285
97.1013986963569
97.4232490900603
97.4174064880285
97.4112514432216
97.3464156861856
97.3817854471428
97.4738053492546
97.4996722785931
97.4623292697887
97.2399575758457
97.2890559802574
97.5727758691688
97.6378380635762
97.667713634337
97.6683386562757
97.8333047793455
97.8752327652224
97.7138347594702
97.8219753852216
97.9423401466065
97.9183116466092
97.9052319367879
97.8593607862326
97.8259989419643
98.0430138203672
98.3307113412385
98.199725105813
98.285373526194
98.2414831849884
98.0973745129239
98.2747394179414
98.3095790905789
98.2344001147136
98.4388794253581
98.7943236317386
98.8757219787847
98.7899298593811
99.1134274744769
99.3123136003449
99.0870002787225
98.9245438437464
98.7144091983044
98.162173835493
97.7585693585502
97.7170178377399
97.6860798870023
97.6895216738109
97.6555731595767
97.6621456556272
97.8276653116483
97.7785451942444
97.5465922691793
97.4263682790095
97.2588412976297
96.9578345744339
96.8798989020839
97.1545405913349
97.2389309205769
96.9820287708224
96.9457927787346
97.1663757090332
97.1350462270071
97.0595240960481
97.0240696921602
97.0922390490542
97.2000517862895
97.1739331184347
97.0516853623014
97.010787811975
97.1439443736874
97.199989478814
97.1589159807647
97.0904235000976
97.1204065824123
97.1532567699746
97.158435076531
97.2723974773018
97.2663459635889
97.1266078352216
97.1536909688957
97.2364974184114
97.3467582958645
97.4122580959358
97.4089525578061
97.6201636121113
97.7448074904467
97.6996563603605
97.7684799412188
97.695512959429
97.5988854313317
97.6002736242748
97.6076200433841
97.6560475572484
97.7328236884452
97.8588397507555
97.9606806167831
98.0019586086122
98.3107135692945
98.6590702891819
98.4860579592459
98.2942711304751
98.7669971488068
98.9909979436118
98.8776061092699
98.9536717710602
98.9915121338468
98.9451978644658
98.8980461364652
98.7733799999363
98.7992472351134
98.9107543705279
98.8981418798298
98.9372982410994
98.8259139832957
98.6971748200638
98.920832830855
99.036571349778
98.8465751910633
98.7002236417113
98.5763067613468
98.6113845318176
98.5890106381105
98.346349338621
98.2677047310683
98.1714141013073
98.1413261823038
98.3262324250148
98.7068975317695
98.7634121730721
98.6015397555702
98.562315987532
98.6491137914103
98.7411903152435
98.8087279008418
98.6833341513144
98.7339601021483
98.7624363358074
98.8569553917361
98.9491845329427
98.6454084571779
98.5545414174084
98.5921110292815
98.3414498434666
98.2448077066253
98.1443795865556
98.2236495170711
98.4695211119024
98.1471055603108
97.7299012394282
97.8706129234726
98.0617872499459
98.0384804274163
97.7941842418352
97.7585934814379
97.9071400854407
97.9455618675013
97.7642310644908
97.5669098556637
97.499208175407
97.5628187138767
97.6065703410281
97.4777289196285
97.2697439520252
97.3371620979312
97.4740447742855
97.4720428661543
97.3924797818037
97.3956394455741
97.4129521052557
97.4888164428905
97.4109856546686
97.3131687651647
97.3367560905929
97.4459858719355
97.448345457838
97.3675121827337
97.2809388255112
97.3217239746531
97.3659324867991
97.2923190153435
97.2445270539679
97.3072929007436
97.3401946749214
97.2909280431054
97.2187328346167
97.1615173787508
97.2270340842491
97.2914064704532
97.2523604101067
97.2397034811038
97.2408959588762
97.2246415489458
97.2120527447636
97.2293387066839
97.2252491828081
97.1670249331928
97.175878795425
97.2581503937832
97.2283939076093
97.1886410249444
97.1365082664708
97.1435593389559
97.2054827546961
97.229387282901
97.2607458339788
97.2881840930061
97.2642926760823
97.203285580089
97.1645873598872
97.1726864703597
97.1382340873762
97.1764702215821
97.2617284785375
97.2929133949183
97.2691582243577
97.2059555110935
97.1992172651734
97.190454105565
97.1486654954182
97.163617888347
97.1401000725381
97.1302168238449
97.1707143179011
97.1420087170343
97.1164159043187
97.125052283825
97.1089576398135
97.0882997631654
97.0798195182717
97.1023258220866
97.0136540155073
96.9241248295224
96.9256852250959
96.9377291581496
96.8939392690424
96.8019267999343
96.7348401929718
96.6771035229829
96.5960479985597
96.5534265551838
96.5133766267632
96.4456356355668
96.3668347268411
96.354177978664
96.2744217289814
96.1796939437021
95.992576355563
95.8728782761159
95.7671085213468
95.6651292378746
95.6617076674229
95.6172800046824
95.4941591156745
95.4607261011551
95.3718632559846
95.2547864648136
95.2047931838223
95.0920058044383
94.9406071787456
94.8554453470979
94.7889613730691
94.6924073290028
94.6327274857632
94.5592567749657
94.4284216164055
94.3898488040019
94.1664036454009
93.8560551558428
93.7727849216205
93.6676253217012
93.572726325425
93.4831329184626
93.3840968836051
93.2960949898931
93.1364193025183
92.7782270042276
92.4446446574013
92.2645838006058
92.1428597598168
92.0737200276069
92.0173514848369
91.8790627713308
91.6379327969076
91.5305420131281
91.2744770744013
90.7439886713724
90.5903139118105
90.2340123000331
90.0261917131878
90.0500257107981
89.8531367753704
89.6224634725157
89.3976691522007
88.8158498216185
88.3739853894997
88.3292434998357
88.1457042409568
87.967355773902
87.5654268866254
87.2582911783849
87.0310912249971
86.5838561276026
86.2441438626605
86.1320671983304
85.8308943226886
85.4223967222332
85.2304323253058
85.1202343274316
84.9798986377564
84.6175828209286
83.6749235886835
83.5394718916993
83.6997543086915
83.3252261399396
82.9595167732671
82.9383723735339
82.8380939842839
82.6612600329837
82.4525835358618
81.9385701229744
81.5060055268064
81.5657903357798
81.5165615293096
81.3140332149691
81.1047739344809
80.8964485663647
80.5608134006194
80.4663683492329
80.466053307616
80.0678141619502
79.6216914936433
79.657337321521
79.5558495255573
79.3122002775432
79.1032995164813
78.9291044541165
78.7449730930481
78.536409858647
78.3626161217813
78.2186946956499
78.0777834883759
77.9415956383249
77.8167674298179
77.7141864912383
77.6449614748768
77.6041194669543
77.5640714605549
77.5196908909732
77.5337834697038
77.5792014216855
77.6052406608639
77.3058678166767
77.2667602109888
77.6642546882589
77.6887181312778
77.5392283939986
77.7975160621199
78.0672864486721
78.2813232322279
78.4789163822609
78.0713423424628
77.9295468182404
78.6259243943842
78.9116414319006
79.1896341460489
79.5281255843273
79.7930816686823
80.1770295913193
80.388350343166
80.5515537613735
80.5904087437934
80.755285390124
81.4580294208018
81.9678728204978
82.0759407158489
82.4367664026299
82.9019373909144
83.1753361814829
83.405026869463
83.7118385862043
83.8587602084545
83.9199533354029
84.3341432251169
84.5594688051355
84.8006865151115
85.1401876725874
85.381161297102
85.5131290271395
85.3791093196531
85.5472309044546
86.2023748323812
86.559474718684
86.6841471605287
86.7889194479218
86.9406363471949
87.2450492342169
87.5082342463843
87.5141027529407
87.5672133416232
87.7692996734071
87.940595549431
88.0503611020966
88.0761463499677
88.1367570172071
88.1289405302163
87.9382473148888
87.6820969607366
87.4007116108749
87.3751377243456
87.3086158743151
87.0084603530004
86.6731217630695
86.5685243515607
86.4742628061629
86.1574818515537
85.5939951180035
85.3716011198427
85.4659691649801
85.335577234619
85.176303587115
84.9409342535306
84.7772752622576
84.7168982765524
84.5879562065942
84.4362546707276
84.2400309031661
83.8112693753275
83.608372192526
83.5635305265289
83.3148065451976
83.0385278939077
82.8369860519225
82.5924554809635
82.2535680650593
82.0231925835388
81.6093393536205
81.1560025750557
81.1023594476343
80.9822463732286
80.7920739665939
80.5977383784524
80.4411415441704
80.2891272590255
80.1156035803589
80.0229445552121
79.9928702196412
79.8627010895092
79.7762075919583
79.7059255302689
79.6315027104277
79.7611666018203
79.8419897525538
79.7564309711697
79.7042621810514
79.8086931081264
79.8756975351438
79.9120498891274
79.9884058435696
80.0980580626624
80.1749891579798
80.2495492455066
80.4366403886113
80.5906856513655
80.733012958203
80.9388300436851
81.0821774564949
81.1870590452221
81.3902317707458
81.6143722213792
81.7964947862184
81.9545992566975
82.1457022646428
82.3160900180591
82.4671342562003
82.6249079139618
82.7911423165886
82.9324581732334
83.0616480368997
83.1613004248706
83.2916605834562
83.4470858263561
83.5941805630249
83.7216344811686
83.8270065183518
83.9242743640188
84.0143301687154
84.1068648290112
84.1948788725662
84.2468540265414
84.3000314870555
84.3761562870951
84.4574277374332
84.5081378014776
84.5601682894168
84.6361547842115
84.7024499413067
84.7673253953966
84.8541262720345
84.9314616894414
84.9923315257378
85.0555716905093
85.1160667979778
85.1642624065173
85.2204341547066
85.2687027336398
85.3019571458374
85.3318156206337
85.3750630580281
85.3929164485464
85.3952424205736
85.4062865083277
85.4001330691542
85.3619628084139
85.3197433706128
85.281058368132
85.2457610264332
85.2107576031879
85.1854838630048
85.1482094369714
85.1027849845813
85.0805690406809
85.0656458779212
85.0482083266938
85.0418654783321
85.0151135764532
85.0013429330187
84.9847443891126
84.9663291144023
84.9432707622822
84.928381226068
84.906562019945
84.8918997289907
84.8765283116988
84.8668742520205
84.8936397199328
84.9333914801565
84.9567965538527
84.9857184613848
85.0359044734232
85.0923716901245
85.1368169876436
85.1846353872707
85.2514542592659
85.3163596903142
85.3970302916486
85.4810106448979
85.5507957454812
85.6178682779941
85.6846136520814
85.7861013652377
85.8741433739064
85.9256975265187
86.0020621558389
86.1006445393421
86.1703980029369
86.2591008916153
86.3517197922198
86.3848794152346
86.4084089858972
86.4251559954195
86.4118116849903
86.4060669063256
86.4066253613068
86.3489099326826
86.2767690584792
86.2175684734379
86.138188156533
86.0570450866314
85.9929946114679
85.9535397926227
85.8967594078863
85.8170252833164
85.7348233103514
85.6426680319435
85.5663949547333
85.5013398027836
85.4022721737367
85.2857593291931
85.1809964046631
85.0830480411595
84.9680351272359
84.8759002657026
84.7813897969599
84.6599017566243
84.5154428661306
84.3734772385114
84.2450176307242
84.0945292273549
83.9213383397218
83.7383588506975
83.5343919381895
83.3504870830057
83.2117385339396
83.0852198830264
82.9717654754915
82.876555972268
82.7857284098378
82.6927552301856
82.5846167089727
82.4821059530779
82.3966777804041
82.3133355054489
82.2140665738337
82.0724721739908
81.9268136282112
81.7907310047918
81.6154717354227
81.4143992079403
81.2031410186837
81.0232258039442
80.8582392374826
80.6750283954377
80.4815452311857
80.2960801073378
80.1208972827649
79.9436485046186
79.7831743120447
79.6348406991604
79.4939373033398
79.3703592641904
79.2291996311698
79.0899939733349
78.976426893558
78.889508497472
78.7931828473176
78.6993705482159
78.6157492280654
78.5021059203002
78.4069915953252
78.3582968225116
78.2650018751533
78.1468238553091
78.0553078799882
77.9907925307762
77.9304601885377
77.8653437817422
77.8014311645101
77.7738505806544
77.784155024833
77.8075177225909
77.8606380230563
77.9140544514603
77.9702188287618
78.0817487154975
78.1991658121252
78.3093278642963
78.449339038506
78.6089243037909
78.7587370841658
78.9123231672476
79.0945873483844
79.3101855379778
79.5404556862687
79.7677993233103
80.0049879279025
80.2301144491054
80.4533166436052
80.6765024733652
80.8983760029719
81.1320169405718
81.3541704007346
81.5664069300269
81.7599251450312
81.9539730489797
82.1547004400932
82.3333580401523
82.5012494007294
82.6792357662239
82.8452025160899
82.9903435030263
83.1383538698462
83.2751167833854
83.4146267342561
83.5745284256335
83.7102765128456
83.8488975212483
84.008837102721
84.1787106602976
84.3225697766394
84.4706157623494
84.6263281202814
84.7711319726681
84.8962192240314
85.0139929685691
85.1296829060485
85.248177590801
85.3610308663216
85.4747892103265
85.6123972943694
85.7270550897216
85.8195654101605
85.9197565775082
86.0371786118332
86.1210783337463
86.2079457566524
86.3266409802246
86.4171103448973
86.46496060184
86.5169759876611
86.586116331954
86.6576204908457
86.741248404235
86.7758762267511
86.7948391376735
86.8412060084227
86.9001443727516
86.956687805983
86.9982663786377
87.0553135294013
87.093426353077
87.1209986307258
87.1860943342183
87.2668672011185
87.3156391885029
87.3114516152385
87.3233234755328
87.3602995052815
87.3914179775939
87.3737851812924
87.3507535718831
87.3828583652945
87.3844600800478
87.3486276368608
87.3278952886496
87.3572143000693
87.4365340315903
87.4802902414867
87.4670212028073
87.4385929031981
87.4286022269109
87.418297620669
87.41936229325
87.4099525952778
87.3873852118235
87.3468054691777
87.3050578321521
87.2562938551092
87.2357345457756
87.2099327631366
87.1460955435871
87.0825184058671
87.0274251081843
86.9292346147637
86.8407634894802
86.7504676661291
86.6571874741638
86.596233238556
86.5380299525181
86.4284976417352
86.3342224658036
86.2789569256674
86.2179764936211
86.1190381070752
86.028332552116
85.9612521444508
85.8654746801383
85.7845676844498
85.7034916007276
85.6038365152547
85.5224385425608
85.4019465859331
85.2945627233441
85.2362678485449
85.1474005913245
85.0490604332031
85.0183106437662
84.9668245876111
84.896641500155
84.8541850839658
84.7818285600549
84.7062821577229
84.6824350516798
84.5988706014177
84.490788845007
84.4311137372877
84.4288406260551
84.4445371456395
84.3949705850297
84.3597827371199
84.3655246699544
84.3591199698144
84.3533700482301
84.347904803343
84.3049585562626
84.3076746460206
84.2564418075367
84.1786706734411
84.1571736989665
84.1692544699848
84.1835255627461
84.1201485449852
84.025282560483
83.9545801396662
83.9690708805478
83.9521064487514
83.8812525971709
83.8393169118969
83.8097869493724
83.7651893392098
83.7282287635801
83.6822723149824
83.6276298386922
83.578089126044
83.482389927755
83.3411825805661
83.287877727214
83.2507899026491
83.1693178592403
83.0826089059088
83.0201078037107
82.9568422855656
82.891408896352
82.7753070309113
82.6467889641627
82.5741751351095
82.4860843416208
82.3265728274389
82.2082643461426
82.1386501404106
82.0349042876453
81.8848602637732
81.7621307737582
81.7017198368029
81.6561576625194
81.5712756311562
81.4552102656511
81.3708591058472
81.3559348905718
81.3172309647376
81.2394220002228
81.1211770667597
81.0302957573959
80.9128229438441
80.8228585684884
80.7230403229672
80.6667654242345
80.6227602745354
80.5405320351757
80.3301731788105
80.1792404262399
80.2535901692318
80.1523032387757
80.063496849125
79.9613373244363
79.8230568365342
79.6817149619486
79.5821279866273
79.5196500040271
79.4337674365989
