1798
3999.43349933624
650.420452594757
1
128
4
97.0455180953751
96.9417811972174
96.785618987674
96.5402601639599
96.5895481521838
96.8373522889387
96.8941584692186
96.7880494888759
96.7225720377185
96.7311849126323
96.8335194959838
96.8820990036108
96.9073871270894
96.9414076242352
96.8526290419616
96.8324518242978
96.9331482361502
96.8541855524469
96.7982579077803
96.8359503475834
96.8100943630945
96.8691871687317
96.9205523709209
96.8958981834096
96.9476026494469
96.9224790758629
96.827716832444
96.8432223733076
96.8245154154402
96.8256740107378
96.9573486525229
96.9379975170432
96.8647387720896
96.8829160474835
96.7509728389414
96.6102085628544
96.6779802193964
96.8595680153321
96.9486320871849
96.9007810051538
96.8372732254611
96.7894423232925
96.7271733887612
96.8013994279722
96.9576393472762
96.9852182865623
96.978229014158
96.9815165174876
96.8991948512766
96.7813775552975
96.7402994692998
96.7568484676447
96.8692037543391
97.066381329233
97.1040162241647
96.9010691253474
96.7278946796065
96.7272228798499
96.8081889488876
96.7215887065908
96.6151511339474
96.7338113732321
96.8647283756712
96.9503604266124
97.0178978746384
96.9529698654003
96.8054813132
96.7132831121716
96.6919272027056
96.8249696302701
96.9418800104226
96.9474005140197
97.0348385364032
97.1475751396983
97.1238772448954
96.9436812147646
96.6080791659298
96.406209073955
96.7157351826241
97.1458815266807
97.2816148254385
97.228275391428
97.0054919216926
96.7224873920664
96.6367388572396
96.6052190696385
96.6856068930003
96.9340774087792
97.0384443771614
97.1033182304755
97.173489192466
97.0783634871901
96.9317343214354
96.7643385735916
96.649043621987
96.7509926293111
96.8611496639583
96.9495574917055
97.1216872992046
97.2949963973634
97.2676935704996
97.1156130948824
96.9886131262955
96.9263965048447
96.7892671469667
96.7369471958356
96.9313513907915
97.0507373673678
96.985394490266
97.0012129859229
96.9982209989143
97.0162688904469
97.0248139083809
96.9041437185265
96.8773396099581
96.9368172999703
96.916178595477
96.9356556780427
97.0768648650386
97.1766309685528
97.0858666817627
96.8786046830311
96.7376645720153
96.8263069642569
97.0661358738052
97.1895957746789
97.0956540121056
96.9751886194467
96.9723455079942
96.9586486811353
96.8841319390663
96.7710202397783
96.6504235062707
96.757526852774
96.9916912267774
97.10916704338
97.2170091214851
97.2241280897461
97.0962583019648
96.8965398444072
96.6065908933852
96.5524317383041
96.7990018588531
97.1246633796339
97.1620587203656
96.9797895476463
96.8537979243179
96.8969975063671
97.0782460136253
97.175013531201
97.0790004880359
96.9625637847202
96.8196968959183
96.6463506974509
96.6472299091622
96.9473915677749
97.2010988494476
97.2027986209781
97.0871381618931
96.9790703508042
97.0640335330492
97.1875457654495
97.0900581655907
96.9162627112674
96.7005671244647
96.6265876644589
96.8744127105594
97.1282373795639
97.2316402015004
97.1028144779123
96.7620412169187
96.5212448408588
96.5015187344771
96.6634007946431
96.7074643127905
96.6346235434333
96.7522019360143
96.8912967738232
96.9072045763075
96.9334002587689
96.7457662072042
96.4815875249134
96.3743946803905
96.4163663452188
96.4810127521772
96.3364674002323
96.0887309767332
96.0806177363006
96.325354718755
96.4720000361796
96.4667109822641
96.3372148905186
96.0634544025482
95.8791540568953
95.8701048115969
95.8443036671709
95.7291627242593
95.5039745612295
95.392518801274
95.505843900207
95.6148773718712
95.5041478624435
95.2664398907129
95.1761341824898
95.1559576926422
95.0221738785387
94.9133200640845
94.8860776216836
94.8205859466622
94.7941263944813
94.8244782912255
94.7941158391616
94.6627347618378
94.4656762954868
94.2662054431458
94.2001951156546
94.2121910525392
94.171845827539
94.0986497778461
93.9497433893962
93.7977277979348
93.7953310194702
93.9085395875073
93.9177829332657
93.7322018947622
93.5587615132507
93.5480289857727
93.5099075788334
93.3619415030375
93.2323257653451
93.0670799834351
92.9113612287931
92.9944990199296
93.1464698486533
93.1275102224419
92.9009946102451
92.693348433898
92.6518828596563
92.570844382097
92.4424257136838
92.3421460911412
92.2375120542317
92.1887172441714
92.1311244536439
92.0413835983545
92.0568903412001
92.0945470548829
91.9954146587146
91.9142066673515
91.9377370664583
91.7435288780173
91.4436651050611
91.3398771467714
91.3068009448906
91.197026342909
91.1724640186248
91.1253729358517
90.9656434583789
90.9263418866534
91.0441949698592
91.0319811892819
90.8450829622301
90.7621833057991
90.6707910183543
90.4329230196187
90.3391219152856
90.3618882925094
90.4088889087037
90.4111154778107
90.2710755406292
90.0725457973842
90.0323681306528
90.0549992087189
89.8549872183581
89.6854949305032
89.6080950239389
89.3738951841117
89.1773710653092
89.1643353755535
89.2306039380451
89.1754977193535
88.9577724207152
88.8296597765686
88.7685706507591
88.6029292779175
88.497839451723
88.435042728374
88.2751197695241
88.1558476204988
88.0587277088583
87.9016841336779
87.7630333224295
87.6820806599049
87.6849846950468
87.6237295576862
87.4695957254844
87.2953725985174
87.1181134764936
87.0092326885318
86.8900492791789
86.7089988236341
86.5842826818773
86.5034524978406
86.4008076507098
86.1663186329625
85.98895036993
85.9346616916632
85.8141355287126
85.7181111303313
85.5693482530637
85.3020237675411
85.1407820023737
85.0979574734978
84.9900130672011
84.823221340807
84.6909492363516
84.5683723146454
84.4124295899837
84.2720349894674
84.1414035010636
84.0523412797697
83.9943011878636
83.8641474106986
83.7570759410292
83.6223089964352
83.4051242384484
83.3483469263438
83.3945683570231
83.3506027009021
83.3539306868526
83.3049026348076
83.1839289266221
83.1901568932566
83.2494241123758
83.2354608846926
83.1658865640703
83.0946896551459
83.050891019983
83.043337378429
83.1043214005767
83.1197636909452
83.126338627128
83.1721829193156
83.2008952403792
83.2830810089643
83.2980408865693
83.1845335055989
83.1533288810155
83.2257408707576
83.2831715151136
83.3568695151166
83.389628083307
83.2929150090825
83.2481557390488
83.283409091746
83.2547691995271
83.2280581483734
83.2815721468048
83.3556017749163
83.4275500025446
83.4353764339514
83.4005294046645
83.3453579105163
83.3325333037314
83.4104755671556
83.4761263408959
83.4593140346315
83.4638748236678
83.5126530205374
83.5527950076052
83.5343639925699
83.5559611792163
83.6705561924125
83.6505119623852
83.611923476151
83.6699271675847
83.7268130577016
83.7669091704271
83.8485077045726
83.9276948025455
83.890278642189
83.9302522971753
84.020611632786
84.0587616848937
84.1529522621243
84.3209870943773
84.4354204923178
84.519419207724
84.614527725007
84.6311970178544
84.6064907708253
84.6212420726577
84.6905941902027
84.7751022818499
84.8395580659004
84.8913590716335
84.9211207535849
84.926694607588
84.9130270335188
84.9610115661865
85.003887821675
85.0361117004922
85.0890183541716
85.1068102742859
85.0827305568454
85.1198934320143
85.2041145356078
85.2114736010347
85.2652316225252
85.387627315425
85.4474554150489
85.5678933812926
85.6912558194642
85.6747145093067
85.7024729954102
85.8594535819627
85.9773351610744
86.068953358417
86.1125894500688
86.1553679253738
86.3219844055503
86.4407784551628
86.4993884675058
86.6078778049258
86.6410697400894
86.6248499384293
86.7170856790589
86.9117334474833
86.9989476993169
87.0325355223871
87.0978445292358
87.1509629521564
87.1985059030639
87.2554880375649
87.405371236571
87.6048715963111
87.6506057547366
87.7010327272546
87.8485851273609
87.9125509305626
87.9065247625489
87.9793867246557
88.1192861405312
88.2203308910683
88.2204451813951
88.2786611349262
88.5014636149016
88.6727467475013
88.6572273659319
88.6744983208894
88.7487231549644
88.8310771428985
88.9274782861356
88.9688002897571
89.0297819838495
89.0949474256742
89.1534321977385
89.2495640086834
89.2926804342351
89.3512857705185
89.4361170061673
89.5534798162828
89.6839819774514
89.7432818291302
89.7500699197886
89.798643737553
89.8825631116603
89.9443985317042
90.0105965680862
90.1518266689574
90.2461079947021
90.2659227666872
90.3236332837462
90.4318029666942
90.4806378758697
90.4822583214757
90.5670182105869
90.6880731700631
90.7348607844557
90.7204077723371
90.7145565760633
90.7871873878783
90.8886693085755
91.0228975730052
91.1082010014967
91.0949774702855
91.1246866814174
91.2206323385889
91.2843338141525
91.3539599872741
91.3968610385816
91.4550258520021
91.5666357394437
91.611942960383
91.6257600874039
91.7196373302091
91.75561992359
91.7386650524495
91.8050347647365
91.8670830317156
91.897393335646
92.0112469320081
92.1368041713161
92.1907364033383
92.1839649041853
92.2070367734726
92.2570512408848
92.3090860879885
92.3295562283747
92.3299052811081
92.3500304960132
92.4245599690835
92.5055391804589
92.553708327276
92.619333371566
92.6895694139021
92.7363447469385
92.7381083908147
92.7158172356978
92.7943791937138
92.9074063346649
92.9575608826092
92.9899098384649
93.0530743458027
93.0493839228693
93.034841457401
93.0837077025268
93.1517865888141
93.2013812840828
93.232674678971
93.2553958431225
93.3243330058475
93.3878927128059
93.3989258858509
93.4029415114919
93.4158876210586
93.4199880256805
93.4986907397055
93.5414022671401
93.5185573037304
93.5582289040879
93.5856527734693
93.6389123328851
93.7457081536956
93.7406211700083
93.7512571951953
93.7827090009384
93.7251580014139
93.7001904392642
93.7526475128262
93.8102491981125
93.8693595514867
93.8617809479846
93.8410666856926
93.9095369489642
93.9926447323279
93.9627176700757
93.937841944263
93.9764958638915
93.9953041593234
94.0160518788941
94.0968014608692
94.1218226028258
94.1033777167608
94.129045598795
94.1820062715438
94.2334987592763
94.2260882484884
94.1920270599
94.2582167354217
94.3308599424048
94.3181290616709
94.3276378736663
94.4146382813118
94.4094433712918
94.3131893486967
94.3399932690652
94.4276076377145
94.4777969917253
94.5520119931996
94.5906084491779
94.628128347419
94.6653426324358
94.6716456143617
94.7478372055474
94.7906915683823
94.6977878615386
94.668917285156
94.712402120773
94.7550931733132
94.7691299382439
94.7534150645062
94.7800765816794
94.8820321182674
94.9237707768704
94.8785990502166
94.8595605860608
94.8552662063327
94.8358669036838
94.8487693564996
94.8676322953812
94.8794343993835
94.9039222275858
94.9584645590117
95.0018801479563
95.0104676350294
95.0244163299323
95.0719705137101
95.0426052952653
94.9911965688771
95.0069752048009
95.0581917963057
95.1322528903421
95.1833413981545
95.1927969063478
95.1885736134842
95.1532316422454
95.1769535907579
95.2506286029598
95.2541867313274
95.2393251892045
95.2781320785426
95.3292786643698
95.3397885972329
95.3273402150212
95.3246216198955
95.2822114513746
95.2574580068129
95.3095589822965
95.4000044208368
95.3993530009933
95.3562871841367
95.3811646421129
95.3789275138003
95.3494655102872
95.3603440844366
95.325439699204
95.3179153818271
95.3848246066013
95.4138982470155
95.3959818792631
95.3780467151935
95.3129608972443
95.2768763916741
95.3834604593769
95.4708009955133
95.3791000937262
95.3021500864579
95.3349770138543
95.3918149604842
95.4360242601128
95.4395992246642
95.3428269863835
95.2109972585524
95.1703420493157
95.195005784902
95.2321647570718
95.3294382187651
95.3665822944271
95.3174356711093
95.2977001559947
95.3314404828341
95.3325514778637
95.338194274713
95.3839965079235
95.4198409695076
95.4031365509598
95.3613221886231
95.3314294825
95.3237073703292
95.3246296980024
95.3491280026958
95.3843531231902
95.3999620907823
95.3920853068509
95.350346054165
95.2640170700364
95.2190749363798
95.2395665388171
95.233621847348
95.21733442112
95.2297406732401
95.2780345085394
95.3747415060879
95.4678747124022
95.5462495494526
95.5995489861947
95.6332574662416
95.6457089503817
95.6844478941299
95.704408428069
95.6954825812356
95.7223642613697
95.7605782917049
95.7640504236478
95.7680373617919
95.8103708347101
95.845595092659
95.8341583670489
95.8561110503165
95.9098813504789
95.9279406835433
95.9385490854454
95.9647153868382
95.9351769533385
95.903514508488
95.9357703875827
95.9700740998976
95.9985418172653
96.0622458051566
96.0890138268119
96.0545455476013
96.0611546051264
96.0884107826177
96.0874534585217
96.0666300416836
96.0492320333435
96.0587098834455
96.0785529719723
96.0814968098551
96.0482792847854
96.0488940654514
96.076641019855
96.0965451922062
96.1029783570269
96.1012743945936
96.091395922547
96.117232667805
96.1356846539213
96.130392827277
96.1878095761917
96.2373046257303
96.1936524590162
96.1794961608245
96.1971836254768
96.2093426825862
96.2500281398137
96.3266512516293
96.3952393548099
96.3797825161683
96.3582171574496
96.3919515332071
96.410458598378
96.452762062345
96.5075776640141
96.4393343956154
96.346059421135
96.4255652280736
96.5703728883588
96.6158056249796
96.5717733491121
96.5710328853801
96.6085276898526
96.5848140491737
96.567060510426
96.5884867995723
96.619780222226
96.6543769140898
96.6535526596223
96.6961362765943
96.7613399731978
96.7636991871322
96.7198629483401
96.6895813109802
96.689443572389
96.7897237909603
96.8322074302391
96.7662888302446
96.7475402203883
96.7368823025629
96.7670938379839
96.7557871685667
96.7272890548464
96.8565985422592
96.9084816836682
96.7760923037055
96.7417881986609
96.8060824940646
96.850497745026
96.8931147967279
96.9204854858755
96.948482883381
96.9201433003386
96.8639903681315
96.891943644679
96.9257345642336
96.9372251615129
96.9580603029601
96.9769946607479
96.9485705203827
96.9130463350958
96.9430375363698
96.9872234145454
96.9700312005447
96.9676163178282
96.9620724366283
96.9168958203227
96.8582974923186
96.8574018705863
96.9120887957014
96.9459353474226
96.9908310254074
97.0491999410388
97.0063966294761
96.9551768776898
96.9795354733443
96.9979286508394
96.9374187677273
96.7582383817857
96.6473061457573
96.7156819608918
96.8225633675186
96.8041394463597
96.6892011030406
96.6337310384616
96.6922176994825
96.7503607243204
96.7412522370107
96.7257056612776
96.7197813852294
96.6879453683497
96.7312402744042
96.7695941850606
96.7115206532512
96.6593125177896
96.6802117936636
96.6892484433384
96.6527039603209
96.6137028546261
96.6299828052841
96.7547977581102
96.8425483265982
96.7669623168766
96.6915619988333
96.6667269642467
96.6416564230486
96.6188165635621
96.6424658618125
96.6246318478254
96.5249633919794
96.4595009403202
96.4227752557053
96.3199341897421
96.2439183735294
96.2574205346838
96.2622538435046
96.2438898250742
96.2119282358085
96.2388560224319
96.3369054319991
96.3361084247778
96.3212376480194
96.2843336734937
96.2295866072561
96.1604866034898
95.9871500926489
95.8034574829365
95.5637675147212
95.2855957130077
94.9870792518007
94.6882528426695
94.6000905859651
94.7318149560259
94.8842701374665
95.0616397063759
95.277311160073
95.4755080480429
95.6409839374792
95.8256624811778
96.0127958335952
96.0952897124684
96.2024475535404
96.3329404463922
96.4764134621149
96.629070666438
96.620553178407
96.7265594719514
96.9145455898773
96.8921129530539
96.8606709570388
96.8862129347711
96.880229313475
96.8981306736501
96.9976705638525
96.984953357779
96.7953352407184
96.5790908215652
96.493817882238
96.5548230536942
96.6437240824956
96.7541545510973
96.738390995241
96.7123448006044
96.799037647714
96.8726282459809
96.7919474995486
96.7209813892664
96.7260003600529
96.6355591614489
96.5369447785933
96.5679235566152
96.6510289696196
96.6830259277318
96.6004961169028
96.5253778545415
96.6209828000986
96.7321025190074
96.7627316482882
96.7738719218765
96.757378738235
96.7651250124474
96.7479311580262
96.7614857012085
96.8019944886621
96.7684207436078
96.7504114374612
96.7333289053762
96.7112711271187
96.8213404816844
96.8956495711319
96.8946318166006
96.849466047505
96.8774958215588
97.1204621550357
97.2740336841979
97.243979858987
97.3076997153407
97.4687377685397
97.4394173075519
97.363142508146
97.4336260042156
97.5156542984154
97.6077054825752
97.5513342265182
97.5403464868124
97.7185600317684
97.8373958820934
97.8763226531457
97.8086759089031
97.6897428869817
97.7647237566135
97.9865773181542
98.0313095411835
97.87157201983
97.9184346718581
98.0866076279506
98.1835887170928
98.2928999428536
98.5568843175045
98.5582952977833
98.3288591357719
98.3792486812938
98.4786460926898
98.6238793550777
98.7269503602822
98.6998082460801
98.6247335416934
98.592484530721
98.7327183414084
98.7907195521677
98.6759051722357
98.7123206654074
99.0490423423988
98.9759607012728
98.6580064282269
98.902248980241
99.1910204315946
99.0983321248083
99.2354165434354
99.4838698152721
99.3833918948806
99.2139884397561
99.1791466329588
99.4654299801142
99.730376062026
99.7678537069997
99.9515646678937
99.7006638985504
99.3639382465428
99.4985629158115
99.70102929713
99.781968932236
100.123905980103
100.296079646959
100.269253494203
100.331544056684
100.395252845129
100.529796616305
100.36374727101
100.16179341473
100.244367820604
99.994507154441
99.3892130396131
98.9795896561443
98.8717092040961
99.088818146375
99.1493175909346
98.8124554721503
98.5815990629227
98.3608475662586
98.388901396373
98.596862629096
98.450835780642
98.1505127640211
98.0731456690364
97.9722245804422
97.8045771961207
97.6171427468877
97.6544924573696
97.7926982019506
97.6355179503332
97.643166952266
97.8832926487996
97.8855473497326
97.6763084433947
97.6054818230124
97.7898174987834
97.8204951337849
97.7079348167527
97.5809845993873
97.4786486580349
97.6269875534696
97.7315291720576
97.5939403502741
97.6103934510373
97.6310532869835
97.5131175227748
97.501036252595
97.7662828515347
97.9645757040142
97.9524387213911
97.9379798055873
98.0001998699351
98.0089368459514
97.9405533151068
98.0486385767781
97.8944019298511
97.7047769771304
97.9351745741448
98.1259685425482
98.1721146898614
98.1606512199263
98.366822956685
98.5363590076938
98.4038850205522
98.2955143494164
98.5159221511611
98.7732012414468
99.0486196203176
99.0546577219496
98.902495988653
99.0316703605848
99.3623019380669
99.6205036872466
99.7854883219025
99.6635663409926
99.572705949515
99.880124040061
100.025294909695
99.7729835328383
99.5910671358043
99.5581504121353
99.7801618256074
100.062877837582
99.7404035899099
99.3395291944407
99.1332469017607
99.0882294101337
99.4688721254414
99.6693408596652
99.4060656901137
99.0311911431137
98.9580169986979
98.9575024347086
98.8764561803383
99.1396710006267
99.5176060930318
99.3233796988656
99.0732744546766
99.2023315957071
99.2507855313096
99.2946481188114
99.3173750299781
99.0975532385715
99.0617649717576
99.5267723827554
99.7538000097037
99.5380300570239
99.5884637352376
99.6896442452091
99.4369752532144
99.2011783215451
99.3262245659863
99.2783742727418
99.0909463608344
99.0008154223365
98.8428747506216
98.7724886613453
98.7105351057242
98.620836514019
98.853894748731
99.0013200087799
98.7559707093732
98.5321484919669
98.4669316829636
98.3929057637155
98.3043306839585
98.2867837728491
98.4344039969687
98.3655948797251
98.2555102119195
98.2727539880854
98.267015134054
98.204363016671
98.2261786231511
98.2465521731899
98.1103505397582
98.0961728616829
98.1548193838616
98.1240733959762
98.0443142667844
98.0319025459746
98.0654313301149
98.0479144908426
98.0916538510799
98.0871399062106
98.0417312832325
97.8977195585002
97.7793465678394
97.831737094681
97.8479041857806
97.8583357084074
97.9094822159514
97.9000882135665
97.9077436715394
97.9000055807943
97.8353916904405
97.7876611264722
97.7969145305222
97.7740109196381
97.7421367748282
97.6941582293871
97.6907718382306
97.7361889756242
97.8068846451612
97.87618515939
97.9112357642564
97.8103587069658
97.7121736944863
97.7566850731582
97.7527594427178
97.697480758466
97.7401709860877
97.7661407841849
97.6645629775586
97.6323648818823
97.6500596044902
97.7675085614641
97.8550558105338
97.8448035876026
97.7620021104608
97.7079918477743
97.6798662994231
97.6208391193743
97.5998630360748
97.6509388964052
97.6976156249124
97.8151053263969
97.8228994275864
97.6887538656431
97.6739997367609
97.7323979879236
97.7283197067567
97.6449706848551
97.6349934810313
97.6870331721855
97.6759381348736
97.6668031774446
97.6500926274755
97.6028418618391
97.6094347323239
97.6284485238503
97.5742669741276
97.5160361973137
97.5529176719328
97.6743911808818
97.698408960991
97.6182580463608
97.4934319452054
97.4311185849496
97.4376440972234
97.4336514163613
97.4031386689798
97.2901423104315
97.1533259689139
97.192408394801
97.3481250650368
97.2109504089877
96.5857876319171
95.0397841467406
93.5686847694294
94.0310102982271
95.2542459507311
96.0115976794803
96.4939877145008
96.5852221666348
96.643232106611
96.8444499085399
96.967763823652
96.9465218645828
96.8839568558332
96.8813732485773
96.8529207096409
96.8157342353713
96.7234629111958
96.6651312333344
96.917698170998
96.9429767107182
96.897464488469
96.868483400469
96.7499710170769
96.5956823633127
96.4078845932286
96.224892155938
96.1812662705968
96.4011352355807
96.4957076354598
96.4269428447507
96.2396035133545
96.0438998707312
95.8575138493264
95.7610047044287
95.6133772171638
95.3684156962908
95.4845039745736
95.5063892072619
95.4500808245682
95.4398565008575
95.0704053428611
94.6938913251049
94.3583547807714
94.0649242059
93.9746784920434
94.167274676468
94.0141322068191
93.7052074500961
93.3223998214244
93.0796559837709
93.0102244622979
92.8057514383549
92.6713258560406
92.646388464932
92.496616854888
92.2521959623896
92.0924219889581
91.918832909141
91.5988548285643
91.1868110949845
90.7394193942485
90.7694701737098
90.8843913653542
90.4014531881008
89.9178188986295
89.6396851571868
89.2352489486275
88.6608600382266
88.0738153036745
87.6295116886926
87.6371333079555
88.2940514720441
88.6991726123753
88.8124691308872
88.8745413198165
89.0211431422497
89.1705983930352
89.3419653395414
89.5265165468407
89.5243497875894
89.5360048878179
89.8596554153095
90.1042432062553
90.1568182988181
90.1877159790549
90.2460140764178
90.3565823781325
90.4349861994022
90.5287243976375
90.6244986118935
90.7116369384233
90.8213489439427
90.9230936283037
91.0396162522259
91.1714476057512
91.2461826527056
91.3505038332191
91.4845384353603
91.5850564922367
91.6464796072484
91.700100436381
91.6959321965853
91.8319650001714
92.2517171845981
92.3435858685258
92.312194958487
92.5184732719514
92.7328913783114
92.7492406881113
92.7391844932584
92.5114775867346
92.3994912510142
93.2318920003744
93.648975555034
93.6905993794109
93.7359918363779
93.6772527004062
93.7406970208936
93.6778727558374
93.5805625679983
93.6067605075119
93.7740781480302
94.2316860897909
94.4970887180914
94.3677164701398
94.2711593632739
94.3807951541427
94.356683171305
94.2476981376061
94.154920677726
94.1323189271315
94.0940634052082
94.2748871620415
94.3750061081621
94.3523565229445
94.3612744364998
94.1339133449267
93.8716981912118
93.6276514696179
93.5577116671966
94.0186454295205
94.1662624624716
93.9262061919285
93.6544343653404
93.5011384261661
93.5200376252883
93.5729399239635
93.4230091033732
93.1855886446168
93.1475205801762
93.1647032822985
93.1000336607321
92.9119304239925
92.7168262950755
92.5143096486529
92.2114748709485
91.956372825919
91.7703849073974
91.7048994852329
91.6508281990288
91.3580847937014
91.0318024662594
90.7714143418631
90.5744711312905
90.2088076764906
89.779870708809
89.5489642143836
89.5952181632632
89.2315531125242
88.4713230028519
87.4983499692794
86.4755681442365
85.5423779876321
84.6589136515363
83.7751379759721
82.9088871998419
82.1034872711554
81.3140572018355
80.4790370229967
79.595890955842
79.2081711633538
79.3582037055795
79.2568230954968
78.7209688497113
78.0420495238607
77.3226615389245
76.6323385725599
76.0841597280988
75.5456570536209
74.8797288942831
74.1750679884253
73.4678507750339
72.7977308334559
72.0850580807074
71.3697887305228
70.6602286358431
69.9067427116986
69.0973090863191
68.3651448198207
67.6058992497864
66.7719275501338
65.829394624784
64.792104368296
63.6375815667115
62.4194212562432
61.1563257458232
59.8526663468906
58.5352858056367
57.2741006450789
56.1479427026538
55.3189711565605
54.8905808615267
54.8016614600791
54.8697281956454
55.0641428703436
55.2340739867368
55.4312842426943
55.7574809744754
56.134366843537
56.4049458409237
56.6252646932654
56.8343251227104
57.1000439717737
57.3655038170489
57.6927616296114
58.0205528564811
58.3508609841708
58.6927846524036
59.0353900623585
59.4396420076469
59.9926186311339
60.4757268423723
60.8778053760285
61.2623148640587
61.668526191957
62.0915003464223
62.5572869130585
63.0095478411869
63.4977602511165
63.9798495724532
64.4585601787091
64.9427794382109
65.4466547209339
65.9287433751876
66.4085854031352
66.857507954415
67.2816418138679
67.6961115766543
68.1367707720316
68.5719175431727
69.0154548640992
69.4501372160396
69.8696654119769
70.256939286545
70.6486426138991
71.0407698975781
71.429028109527
71.7927183931722
72.1755396606393
72.541191393762
72.8777885922916
73.1957264002381
73.5415690786919
73.8558964008017
74.1549169550709
74.4439260441769
74.7371583584388
75.0474954719203
75.35571075869
75.6111171548411
75.8631712130186
76.1225912315351
76.4065528295293
76.6653620991316
76.9046262465885
77.140237262534
77.365539195738
77.5740962155709
77.7940682152282
77.9885889159764
78.1965455853436
78.422283721468
78.6540080331175
78.8468971392663
79.0237927200927
79.2017475343514
79.3713043179273
79.5172848178368
79.6603642128916
79.787743555491
79.9015682380223
79.9814660024371
80.0348587562995
80.0687283358952
80.0580023101444
79.9483293325962
79.7545569858101
79.4861851306382
79.1543760341055
78.7212985914425
78.1545671731631
77.4556515561304
76.6827803668261
75.8415036204526
74.9814879400573
74.1644165511221
73.440283539006
72.8464114933799
72.5205452112266
72.5428377606794
72.9219791447297
73.5798091741464
74.3526076902987
75.0603882710143
75.609018655245
75.946082839082
76.0643553421691
75.9929298650581
75.7538859692329
75.3876862898775
74.8923381961042
74.2602967745534
73.568178271869
72.8308286486778
72.0740782305254
71.2983875594872
70.5267559283248
69.770081416068
69.0465740975582
68.3340378332426
67.6285413046331
66.9117284813442
66.2051564350243
65.4927065973966
64.776492672885
64.0580210012008
63.395585001394
62.8389376461262
62.4690583480756
62.2954832724773
62.2588274129535
62.1718934447153
61.8851933104796
61.2966991198285
60.576620875889
60.0015877859096
59.8302479628911
60.0503901412437
60.493362731496
60.943475991889
61.3369184131476
61.6070242128239
61.7317597942099
61.7023342105801
61.5410312505419
61.2095685468168
60.7767782180711
60.2559877123348
59.6765877743468
59.1115657807989
58.6719064290385
58.3701472779337
58.2904974238512
58.4581979984492
58.8484736160154
59.3907200604896
60.0601450431508
60.7959858719388
61.6228621162668
62.5246102115375
63.4978220440017
64.493219687022
65.5230084122666
66.5202835395407
67.5032494755449
68.4851855126943
69.4298893322072
70.2940072045995
71.1245790221584
71.9139404754992
72.649266189819
73.3303784028921
73.9800272598507
74.5057494657823
74.8120505757186
75.2105121542728
75.8872085013707
76.5436665196466
77.1491192010438
77.6757148494652
78.1452323330655
78.6046255100256
79.0634631470635
79.4691435232842
79.8586353750925
80.2608027322832
80.6433832272487
80.96844720824
81.2995312246857
81.6129750436858
81.9030598004885
82.1524445662893
82.4104176528016
82.6699733410157
82.8835576930193
83.0667977368723
83.2499923203489
83.4075289194182
83.5295066505757
83.5515822705929
83.5283872875935
83.6466967616613
83.913642144359
84.1671196620694
84.3862621006811
84.6043348116041
84.8100133121894
84.9876883595003
85.152094975863
85.2626540449868
85.2419005316894
85.1407847696409
85.2361468297297
85.5261544427107
85.806989032171
86.0303362561361
86.2227931075319
86.3964275463506
86.5744332510032
86.6966279841371
86.8167616540145
86.9661457263054
87.1154531434815
87.1933682663565
87.2760583731569
87.4010353178869
87.4722055206392
87.5322359018918
87.6105513517933
87.7234611009036
87.8044453317761
87.8481236601493
87.9418734776232
88.0269553933258
88.0927386869848
88.1882371125942
88.2514779069068
88.2725369239364
88.324021566424
88.4123826183536
88.5228709949339
88.5728192476416
88.6018211830628
88.6403705807461
88.700581373807
88.7779383199116
88.8568434266094
88.9105451866731
88.936490891731
88.9845841258999
89.0322258586898
89.0694376905691
89.0985666994317
89.1573792744018
89.240873655474
89.2792090650491
89.3053239511047
89.3434698236782
89.3717039310982
89.3685193294226
89.3534897469754
89.3792578981997
89.4519874582842
89.4757494338324
89.4757476791121
89.5100738217327
89.5289745900643
89.5159494600618
89.5067811815722
89.4720059968639
89.4087042449143
89.3491889914704
89.273625741228
89.2682793589248
89.3139612979369
89.3093480560584
89.2892363530897
89.2279255945641
89.2053911199421
89.1908843730889
89.1469945514545
89.0933997147149
89.0397972002387
89.0120597274306
88.9977546438063
88.9318735164294
88.842779646419
88.7739684217118
88.6286977166064
88.3847411955853
88.0469477868019
87.5153978018278
86.4895118333248
83.8350967546078
78.007332423465
70.529948879114
67.2978596452759
71.0052232367266
77.1156911874723
81.5072553221546
83.9633749823226
85.2160329454489
85.7323801620818
85.9204069454702
86.267620402181
86.5629449790023
86.6986954469139
86.8171539680812
86.8638554730679
86.8257635015788
86.7880573028024
86.7292122827376
86.6355034710323
86.5583146027482
86.4844679731891
86.3717823013809
86.2404609147125
86.0817583100948
85.9295714365348
85.8060998293125
85.6358331942401
85.4557218635696
85.2773966805327
85.0402494975845
84.7748141682137
84.4915803161744
84.2213839556115
83.908907229996
83.5878755169318
83.2739166369127
82.9623582957903
82.6725297608528
82.4798635540515
82.3129864429356
82.1995531539502
82.1144675772152
82.1007178609298
82.1660949797175
82.2194224559037
82.2994624606465
82.3651911831849
82.4246781109005
82.5447935708935
82.6859341317309
82.7570833598166
82.7930466474854
82.914966230799
83.0133154688081
83.0547343508709
83.0669411375954
83.1167489528282
83.0906507148011
83.0834845258157
83.0498492763646
82.9011041994875
82.8743555947431
82.9112812002905
82.9266838403318
82.9841170220433
82.9987139791715
82.9255344152387
82.8366127920919
82.8540627278279
82.8205787203817
82.7427352119732
82.7001445613611
82.6786357681587
82.654552998182
82.6420483268858
82.5799637335747
82.5375707232141
82.5183651730868
82.4445118235074
82.2977772521032
82.2138220742688
82.0699726910924
81.8269012300382
81.5105882684575
81.2192447125771
80.8607492632038
80.7788809889397
80.3220214785878
79.2621998744817
77.5114507584452
75.0235230609142
72.9420570926587
72.7603561095415
74.4330033233224
76.3701103434993
77.4714005469093
