1798
3999.43349933624
650.420452594757
1
128
4
93.4386270429509
93.4050875670126
93.4602970911436
93.5161692085547
93.4495338724332
93.4509839879138
93.3394911023485
93.3959050767135
93.4604925256758
93.4667027230648
93.4413897384465
93.4660880909895
93.5335074108315
93.5865628454232
93.5615482241272
93.4755297854339
93.4490573139693
93.4811705390119
93.4758067409892
93.4970304216137
93.4998718336377
93.5034641052597
93.4559614602905
93.4946724548759
93.491690100827
93.4473970572518
93.4786057241969
93.5870248541955
93.6051070758285
93.6182543601087
93.5505522220388
93.5933031131533
93.5174263951036
93.4630038145668
93.5326240667544
93.5692769246091
93.4703001247856
93.5078228844695
93.497489563826
93.6146917760532
93.6276504140856
93.6032479335624
93.5838995272903
93.5307442879634
93.4670700450217
93.5454800139055
93.6759439155299
93.7265927664427
93.6746917203036
93.602788152901
93.5614166835256
93.5774411406912
93.5224182810763
93.5995200476426
93.6969851806143
93.7761287962485
93.7374720553788
93.6756496944456
93.5967207415538
93.5685824017309
93.5164659714157
93.5594795628204
93.6203551899133
93.7803736785299
93.8162508630952
93.7449242537449
93.7371793150299
93.7254563782523
93.6048111947932
93.7135901435609
93.7387513641915
93.6965993186292
93.7515584760597
93.8211373758009
93.8261860300178
93.8505653019342
93.7926687271807
93.7096700503517
93.6070622321405
93.6635685643801
93.7390758079953
93.8944559963992
93.8924298177624
93.7966194581672
93.7480400162086
93.7453123128938
93.6952652364575
93.7309343168252
93.779666366623
93.9997942066376
93.9807917507168
93.835743771886
93.8391211934316
93.9699803199318
93.9332516466448
93.9560892880426
93.8437581801569
93.8518132743009
93.8289048065451
93.8445693323345
93.9217815159125
94.0237022670938
93.9564484776058
93.8169903126168
93.7702662916885
93.804832534127
93.8114527922562
93.9202627506957
93.949787279639
93.967092617992
93.9075269239184
93.9139453219889
93.942840268265
93.9827397475919
93.9505194787426
94.0263507556268
93.9910655559533
93.9294335405994
93.9316890299635
93.9719793005969
94.0341920819936
93.9986198030461
93.7625729087808
93.7660700580914
93.9380731118709
94.069338727547
94.0195216392939
94.0442635987961
94.0644385918579
94.1600176519455
94.088666171132
93.9893798467751
93.9034941304068
93.9777276956901
94.0087120337456
93.9914460696508
94.0178447045428
94.0962609421243
93.9606558866562
94.0264782524775
94.0657744388906
94.0177684466581
93.951797782919
93.9616468946692
94.0115551957237
94.1288602906087
94.070322862631
94.0285554990703
94.0757076388835
94.1996856827967
94.2335019398076
94.1433377209927
94.0977873801721
94.2255636603459
94.190875724145
94.2301310006866
94.2323972300702
94.1513728473817
94.0384019729912
94.1133640650666
94.1232519962322
94.2036195715429
94.2516185873206
94.2812061950232
94.2908150642998
94.1781226609389
94.1025779660851
94.2030789500743
94.2300126838923
94.1835789327457
94.1448935209664
94.1429608576309
94.0614920236911
94.0606606010547
94.0355653978366
94.0662904875577
94.0072300975663
94.0011734647465
93.9633446860246
94.0635097339949
93.9776834276216
93.9094301380063
93.9347670872398
93.9957385257151
93.9577428817548
93.823546351251
93.7528500436809
93.7281828210881
93.448275644454
93.3787677353878
93.3188495572496
93.312177673479
93.3280480281034
93.3018151443053
93.2772057336093
93.1677360639197
93.0724212844792
93.1080633807507
92.9261089864011
92.7205927358854
92.6322656608689
92.6634975621533
92.5679191566649
92.5543455731079
92.5099017246989
92.4534924265736
92.193695337405
92.1103793114468
92.0413942098221
91.9023660887229
91.8632877821042
91.8561351859871
91.7649922438296
91.6197270592653
91.5415556678862
91.6454642271985
91.5785868892816
91.4492176817766
91.2757673605362
91.1176741153525
90.9249492805524
90.9378213247086
90.7944651839719
90.7103409575933
90.7692277064575
90.7804071200548
90.710274893936
90.5944849779149
90.4833115092357
90.3529866972545
90.2092073169172
90.1958477037224
90.0388019347184
89.8950038904351
89.9342868276025
89.9286361952633
89.7145674583046
89.660006647585
89.5661902355966
89.4706778319923
89.2490830610344
89.1869389422792
89.2359493010317
89.2421691132014
89.1593854330669
89.0064871475933
88.8498900715681
88.7358988454144
88.6759791113469
88.6229733315021
88.5047980786582
88.4189634790373
88.243479804606
88.1937056121431
88.1304295412845
88.1058438170247
87.9798621297116
87.8051909509365
87.706163744622
87.7208425624199
87.6575543711113
87.559791605189
87.3996160065175
87.280406301812
87.2059744487961
87.2348417838175
87.1004759321951
87.0350947604272
87.0557616546001
87.0270825746865
86.9187034225529
86.898839683774
86.7360351469388
86.4814918322403
86.3150176532805
86.292263056017
86.2409949432724
86.2439366026986
86.162732576605
86.0790428210437
85.9889676773297
85.9497507948908
85.7751167943025
85.6765086205925
85.6689104522732
85.5933894914037
85.4621973920894
85.4545139043728
85.3563892280113
85.1957217819709
85.0937540420825
85.1778833583345
85.1400432843386
85.1579543099989
84.9438657644751
84.8446632079932
84.8399920006435
84.7991894917567
84.6603182904863
84.6177219752232
84.5267966084836
84.4106045493164
84.2745278640544
84.3493183680508
84.3080811804924
84.1156848297585
84.0300743826075
84.0637203434836
83.9104237461931
83.8558191525158
83.8772150482971
83.7872540918777
83.7328534344239
83.7553921822482
83.6411465120462
83.5670607762935
83.4077234515738
83.3425600618273
83.358426065537
83.3427554579415
83.2610536540734
83.2595214661568
83.1715389645748
83.0515597971909
82.977433181168
83.074716159162
82.9922225578873
82.909333861796
82.8744137272623
82.8806418416088
82.8695223340427
82.7582497341112
82.5682712134189
82.4985480012693
82.5034465519456
82.4731235627438
82.4504752103694
82.5369794843343
82.4602579944402
82.4344236375478
82.3331642147744
82.2914576576787
82.2866264524634
82.3150816064356
82.2693021915112
82.1746716867144
82.1094415653114
82.1390896254956
82.1049480707806
82.0938713214909
82.0840744471414
82.1523602084205
82.1119735164338
82.1136980315462
82.0189706954514
81.9510521687062
81.8773482215356
81.9208994206213
81.9468949995128
82.0149255636174
81.9253015636669
81.9515687015948
81.9173734858975
81.901951805316
81.8879310479704
81.900987167177
81.8756621494288
81.8661344904097
81.836283048165
81.8151983412427
81.7819426824309
81.7893860509824
81.7565284901811
81.7663356380094
81.7208791666478
81.6871914816653
81.7221124343276
81.7910221314087
81.7357071390892
81.7340709754384
81.6573484197329
81.7224196734294
81.767676737117
81.7746226869894
81.6574771162837
81.5993918704295
81.5495613889424
81.5188204858343
81.5338441575001
81.635127471795
81.6319094697649
81.6869117098118
81.6507660899216
81.5020393593847
81.4088618676729
81.4219374668847
81.4915177295937
81.5622298958165
81.5101298468655
81.5383820837571
81.5657129302546
81.5436082123478
81.5251806530479
81.507269391034
81.4558090470165
81.6018996618524
81.6152265259406
81.6208582851633
81.6548769425092
81.6741689545798
81.7190120818444
81.7876307119177
81.6364285692229
81.5774318137331
81.6007388918744
81.585947873471
81.6099544251307
81.6848350605791
81.6266028062501
81.7418368432798
81.7797496707311
81.6266825540074
81.5134441261486
81.6143203065579
81.6572768285262
81.7161215968563
81.7296515484446
81.7747638012945
81.8377983052909
81.8322525910967
81.7874346913099
81.9610151154758
82.0565669947042
82.0165922539864
81.9183058795047
81.9079491345206
81.8923727225046
81.9719391676414
81.9672735120315
82.0540430143502
82.1033061188144
82.1589643227398
82.1524017819393
82.2050407363907
82.2487712264094
82.3283053836251
82.3910407892396
82.3887866743039
82.3866691970846
82.4127550912462
82.4542313005521
82.6106990603001
82.6468156829796
82.6802235696814
82.6900876100363
82.7258988309685
82.698793729013
82.7464819318701
82.7576421748959
82.8759044101963
82.9442846638445
83.0106097246812
83.0581544041108
83.0125634910112
83.0063555641356
83.1332753059171
83.2255003647336
83.2376017432904
83.2292086913264
83.2739853608385
83.2854117793465
83.4381098002008
83.5396586255044
83.6535119391246
83.6580258232524
83.6421555979028
83.5871821164956
83.6785747801605
83.7203548903815
83.6716789526398
83.6277273108478
83.7492898838964
83.8488294130883
83.8680281162996
83.820068826678
83.8997815978735
83.9427041210733
84.0292380280619
84.0594213916965
84.0999081650513
84.1585416810079
84.1923915256603
84.1044835312866
84.1917423490905
84.3332597160849
84.3883965896702
84.3711525989528
84.4110636600321
84.3978044741979
84.4562003974999
84.5374879508158
84.514372759847
84.4776281213463
84.5781177997931
84.5835644397837
84.5629400192912
84.6331475261423
84.7206647373745
84.6558116490614
84.6409912122058
84.7079982601216
84.9031811579278
84.9991259744063
85.0521346814956
85.0956767290343
85.1478480475607
85.1559101289754
85.2722581210087
85.323366631743
85.268645456283
85.2494196794949
85.3084920696916
85.3668819423526
85.4158714039742
85.4184316808011
85.4410493866101
85.5360506052
85.6251014349415
85.6519313108599
85.7453033201616
85.8356127686798
85.792308491265
85.6802393068038
85.709128524201
85.7088617629214
85.7270003898749
85.7649004941969
85.8334362050748
85.8714749139366
85.8928006739313
85.8444198009114
85.8023002732271
85.7790421050946
85.8068614450184
85.7440516251849
85.6783780059625
85.6818489343139
85.7414604997146
85.6590959083382
85.6013793964056
85.609379892897
85.5832946194133
85.4626088406987
85.3554259699761
85.2627688269304
85.2766066581767
85.2901701591198
85.2597512155616
85.2175190288599
85.1646890832283
85.0897365265297
85.1055907548924
85.0897719078134
85.0565294617918
85.0129770881859
85.0440933910894
85.0564237586717
84.9695676986468
84.8213252839856
84.7639325157692
84.7087988494243
84.7078753430664
84.6792142833982
84.6822406292029
84.6503827672376
84.6520882018427
84.6817268400685
84.7020258993297
84.6417926857777
84.6794529688835
84.7680172396168
84.9196540806619
85.0874862708447
85.2163409298499
85.2263656619875
85.2349697017055
85.2694637222341
85.357562788134
85.401745574215
85.4613360791522
85.4694902956223
85.5653155309076
85.7192279299749
85.8114798785601
85.8208366934546
85.8803833771795
85.9333162623427
85.9567657852448
85.8949348569785
85.9159610562676
85.9841646823779
85.9766544128181
85.9705509510336
86.0379637033062
86.0954694665884
86.1335736439053
86.0816615850591
86.1122323512197
86.2134382593858
86.2421045039834
86.2070809555112
86.245030203714
86.3207481208023
86.3318174449028
86.37632629061
86.3969640616145
86.3900222639984
86.489970310361
86.6202684358684
86.7348968694068
86.818947242328
86.8983669627477
87.0261226662123
87.1175514233686
87.1158528145948
87.1902169430573
87.2108781448083
87.2595674361779
87.3022282408237
87.3141395582307
87.3205981667689
87.3979943697723
87.5070406946732
87.5671268409785
87.5731221206898
87.6225530765454
87.6485324771654
87.7116089333684
87.7584087138789
87.7862933195388
87.7840045154549
87.7956948767557
87.8113713657803
87.8132381766243
87.8893922555189
88.0313426557823
88.0704379006646
88.0664914232273
88.0583154711212
88.1338398639835
88.2201265125634
88.2349787430798
88.1890525671517
88.2152314722045
88.2486410118938
88.25477889337
88.2646107543648
88.3357982228419
88.4271228529602
88.4660354140849
88.4210003209007
88.4877441939829
88.5162598898947
88.4661736755112
88.4613689830293
88.5026204281941
88.5739636542273
88.6115556871456
88.5654984028833
88.5889943019158
88.6547469006404
88.7343022736131
88.7130220002928
88.7239134988442
88.778204989358
88.8186944076207
88.7705653434373
88.8016156890383
88.874206641769
88.8805441287287
88.8697950366506
88.8700935356939
88.8822258635356
88.9606233012565
89.0170886577876
89.0231812114572
89.0334844009237
89.0376774786627
89.0300126965406
89.0531929443836
89.1057600706862
89.2106112015474
89.1919955888835
89.136647628971
89.127555377933
89.1748074022413
89.2223202981347
89.2490298962547
89.2474694424497
89.2640084199254
89.2734652488171
89.3176497693029
89.3419853998452
89.3473322227507
89.373951427914
89.3840405381823
89.4044798153035
89.4762856077217
89.5053914681608
89.5053120157569
89.5091869099092
89.5258594941977
89.5567829123353
89.5882978463671
89.6211904850123
89.6186117761214
89.6008726405704
89.5899637856303
89.6080400740418
89.6461831139468
89.6390852588771
89.6401249833674
89.6529653336602
89.7001955676199
89.719456928601
89.7192510079622
89.752526570651
89.8195706468428
89.836567394131
89.8806909789111
89.9360511083652
89.948074139488
89.9674607434806
89.9828503916126
89.956334811304
89.9639316536352
90.0339275975078
90.1269342639112
90.1271727581695
90.1370920916067
90.2353465044515
90.2244528421313
90.1879893803543
90.2633199671538
90.3053202452993
90.3513917974603
90.3606283060947
90.3998569413931
90.4884478360245
90.4905825169373
90.4847927056763
90.4946279204299
90.4766568299945
90.4823135501389
90.6065088717229
90.7762189138026
90.770343701146
90.7621156004382
90.7066765178284
90.7520391521523
90.8385344449158
90.8615620986011
90.8110827014891
90.8209367845759
90.8108823720748
90.7476015066482
90.7772793864523
90.9564905021717
90.9893568157683
90.9731632249064
90.9459860217163
90.9355262546922
91.0091459659833
91.003667757567
91.0627317542178
91.1062297367033
91.0524309633512
91.0770975443631
91.0983292659992
91.1345706518383
91.2203633012632
91.2883309733699
91.2263150022708
91.2527526668715
91.3703180137784
91.3603832562115
91.281823359907
91.29300650483
91.3464549013691
91.3900903735311
91.3168191869141
91.2501293343395
91.2968867233821
91.3745483239381
91.3846059716434
91.3592573155605
91.2694353771146
91.2604579505619
91.3936685315254
91.4809064721078
91.4463808598257
91.4725982271773
91.4734694235718
91.4343325293249
91.4640425302824
91.46763292821
91.4264868227105
91.4558251798048
91.4684119333442
91.4988353249654
91.5264542100504
91.5638225614517
91.5769470951852
91.6148061379709
91.5733929704202
91.4857976328655
91.5337663434672
91.5792162967581
91.5380017411622
91.62113879291
91.6721397734885
91.6385245812707
91.6073643147211
91.6336775824202
91.7141798907355
91.6564435515525
91.5823631370983
91.6038673753511
91.6290287066034
91.586962442726
91.572320709386
91.7346778037727
91.8284770787058
91.7695275506771
91.7430919644911
91.7255874910375
91.6841799812459
91.7117355594141
91.7769665373782
91.8098616450368
91.8196448020151
91.80829620293
91.8254895423346
91.8256472035588
91.8971110414209
91.9431624257215
91.9285892335907
91.8532767971742
91.8634237642425
91.9033342405435
91.8744287401867
91.8249452848379
91.8198878760512
91.9007389777047
92.0166180418877
92.0443255822683
92.0020227012796
91.9804020176529
91.9125819179192
91.8989872094234
91.957251812153
91.9468424526993
91.895520827669
91.8864136360435
91.9165339880614
91.9495541068409
91.9589087714411
91.9221298353187
91.8803637319997
91.8615121518705
91.8711372666682
91.8401370332737
91.8327435570126
91.8768360978721
91.9387452044538
92.0832036466703
92.0947161284735
92.0021871982583
91.9988833450635
91.9914493709771
91.9720246524979
92.0189982232233
92.0764038345812
92.0484683457213
92.0698236572683
92.068205412083
92.006903568918
91.9153500628007
91.8759990530078
91.8673424248866
91.8643396808702
91.9106308598812
91.9175418961806
91.8929464598403
91.8950291124712
91.9068934274505
91.9203721681156
91.8987917207778
91.8501194024297
91.7569027074796
91.8135203996555
91.8216237385536
91.8729678440887
91.9980584101596
91.946040476951
91.9832368807364
92.0205050614107
92.0115947421525
92.0762083373397
92.0939479565895
92.0450817192972
92.0615599881934
92.1325789316405
92.1407158845065
92.0614461991331
92.0834157688052
92.1674471615393
92.2559668731658
92.2072596187152
92.183612741687
92.376515403125
92.3877301488439
92.3843038644426
92.5382931378387
92.6311534295245
92.5747873844621
92.6846470985758
92.8649566033684
92.8167715299989
92.8720117587586
92.9103946604452
93.0340763253602
93.1915716700895
93.2006248826468
93.2078449227787
93.3087331324997
93.347695827412
93.3380141013788
93.5840830574632
93.6046715561996
93.3850190637292
93.3008214948345
93.4270051004791
93.4980507888416
93.5269439542521
93.6596679479056
93.6649286877524
93.778364315009
93.7842553619299
93.8644118891912
93.9947575858043
93.8199895682878
93.6548009681438
93.9518261021391
94.1194745595466
94.0753463182391
94.1381440067586
94.4134796041328
94.4584810177172
94.2365516476516
94.2147038359737
94.5856076439226
94.8460256157981
94.7833606022271
94.782210809076
94.7978089161927
94.7908072286155
94.9690811729116
95.1342745283901
94.9256297311509
94.7559166364745
94.7626218880856
94.9409692993314
95.3217478581012
95.4764121512009
95.6584125004307
95.6783212529757
95.5227613622974
95.7353556149412
95.9525511071918
95.7836724948462
95.9365266859588
95.9620412615987
95.770490764298
96.123868318117
96.3486264966754
96.4966203478556
96.3184628697466
96.3945929560001
96.7771621605236
96.3958547487616
95.94829357677
95.8728406630385
95.7091073855727
95.6913697573102
95.7289742529581
95.7275753813679
95.4184722114182
95.215894984588
95.1855957748525
95.1337058415016
94.7672173355658
94.4835719648303
94.4426599501096
94.407349677813
94.3901520028501
94.392440561112
94.2210162351257
94.0050640989851
94.0827431128413
94.2477168007087
94.1023226278788
93.937512253701
93.9593881429443
93.9923392165014
93.9034185119228
93.8715740345305
93.9964783687144
94.1818017934243
94.078605891198
94.0706388284027
94.0552470182686
94.0629480149495
94.0891817817537
94.0978570607861
94.1051760398523
94.1653280630598
94.1576920694412
94.2085487235359
94.2367164063402
94.3248295975538
94.447054707227
94.3757498098227
94.4906219225541
94.6927601442209
94.7154074459194
94.9119385286595
95.0739330770465
95.0125375485583
94.704823735794
94.792176423069
95.0954028682467
95.1956750720227
95.300402542561
95.4573579472067
95.2043117526817
95.329490869587
95.7737680724979
96.0312158237548
96.3168043868331
96.6910276953371
96.8465032114859
96.4646716337134
96.4610190759912
96.8505347064015
97.2075516133655
97.3277104824876
97.2606077715722
97.0278591022609
97.0993702207742
97.3942459613659
97.3694765349464
97.1592034039354
97.1308950638082
97.2777494134592
97.4463371168895
97.4031166129362
96.9758738322666
96.6452931005995
96.5222644652297
96.5771107420685
96.605044410085
96.7586540204833
96.5138232145515
95.9142489044718
95.9839476341161
96.4884258857033
96.5568347453288
96.6393653656438
96.8815531795269
96.6703384931791
96.23903846398
96.0772632715594
96.1490707637022
96.7472737904773
97.3713282448952
97.1560536245481
96.8984302271477
97.2361125114582
97.0162918768683
96.5769416811744
96.6207761699312
96.6356419015076
96.2607432578973
96.0232983907909
96.1271086054007
96.3155969096716
96.0167959067009
95.6505859576225
95.7425801561246
95.740503716704
95.5735099866413
95.5864367685624
95.4380359262992
95.3969164628669
95.4311612237407
95.3683144359804
95.3259112775749
95.1486237736495
95.0869005895809
95.0045114176945
94.9307192827907
95.0271331325022
94.9983958630412
94.9250088030883
94.9764463002928
95.045849744544
94.8989191580774
94.8005315198096
94.773801837457
94.7646876002001
94.7088888189972
94.6779465017813
94.6547759110289
94.7716555672992
94.7382885375073
94.6505043667763
94.6489243026279
94.6775097714606
94.617821862049
94.5849569574752
94.5497930698019
94.6326300573121
94.6133361798722
94.5893436450043
94.5679998851538
94.5408749722143
94.5183305133931
94.6061582398368
94.6130032485139
94.5271266075032
94.4953290421984
94.5157700632003
94.5136927665462
94.5851933162099
94.5733873933492
94.5522000428871
94.5348625417706
94.5647852711304
94.5818513588098
94.533560863747
94.4419864961989
94.5076593368597
94.5745494359508
94.611521985754
94.6057303010883
94.588410913796
94.6225366861923
94.7027680285083
94.6145642593328
94.5652808170016
94.5912860839272
94.5499348345842
94.5486401668921
94.6342708880587
94.6426979796025
94.6208438028252
94.6189770533265
94.6022346510264
94.5773750259238
94.5949038501305
94.6033974541306
94.6344804415746
94.5961032108995
94.5651872329543
94.5807883538945
94.5962286214877
94.551878498488
94.5063658083615
94.5005771254328
94.5453091919997
94.5181131589817
94.4900137288629
94.4348515428186
94.3753639267038
94.3857504769148
94.4144795033053
94.3026089497071
94.1977168273381
94.1766858826417
94.1451801840557
94.1260360420164
94.0955313556486
93.9353928794307
93.8051247558992
93.7795201862583
93.749081825998
93.6416746621595
93.5417183658936
93.3917937163618
93.2703056561275
93.2194219755116
93.1686729374772
93.1093219341436
93.0926778399731
92.9303185925226
92.7946008143986
92.7930458271958
92.8116947306851
92.7546378003196
92.643459215548
92.4989803744089
92.4142458487829
92.344076893756
92.1972263845869
92.0449887360044
92.0570705493503
91.9550560623118
91.8161115629507
91.593336875338
91.4071404867474
91.2021774975846
90.9765136436608
90.684717458048
90.4968233533936
90.2982366205771
90.0317164106028
89.7325233066984
89.4481760273372
89.1167326957581
88.8163860484553
88.5691879434821
88.2380686320394
87.8332441304385
87.6305422006635
87.2857241666932
87.0973021952282
86.7811944368077
86.3206937982145
85.9047481161408
85.5124283287746
85.0094276019862
84.7186674149021
84.5930616467218
84.2363493296974
83.746317266011
83.2161772721613
82.8809430691393
82.5601308187471
82.0757198279155
81.7238300953885
81.4395230901235
80.9806115061052
80.5101259147914
80.2411240877374
79.9255945110555
79.5338027300917
79.0416442793521
78.4600457803394
78.5149738867166
78.5435991858452
77.9209068906996
77.5657059121322
77.5758731620373
77.3047854674777
76.8524677909162
76.4270733711793
75.965706847686
75.8608290122512
75.9815411440501
75.6704902114834
75.216728997998
74.8977163606583
74.6664204557341
74.3804712441188
74.263548910883
74.1039542394987
73.6105051779812
73.2786773674446
73.347444797136
73.111975954449
72.6765967773213
72.3421071523197
72.0346332437644
71.7798715915242
71.5015323308447
71.2593420974222
70.996310617013
70.726562231637
70.4317471351043
70.2084398596693
69.9816946087207
69.7434847467943
69.5134780311419
69.3364502380001
69.1048177435885
68.9028644733456
68.6815134782709
68.4480959908162
68.0019033333639
67.9518787727916
68.2639563582372
67.9785211841651
67.5536106265569
67.7083282842726
67.6920002556163
67.5413568677674
67.4048179466013
66.8151490907996
66.4185210364219
67.8558611404242
68.2228631078589
68.2916499716725
68.3315150419662
68.3749479227278
68.6776427643628
68.7474143865268
68.8773494390186
69.1363629749165
69.4701385338235
70.9442472640858
71.8734618841083
71.7061042916381
71.8568230012466
72.6585656164328
72.9774702078962
73.1035373176129
73.5143186418379
73.9188168688654
74.0263604472401
74.8535003316631
75.3739984118274
75.6702860656728
76.1818136064883
76.3682776555767
76.4700798802869
76.3290673342813
76.2442694239898
77.8007175752542
78.7011867993734
78.6267905277981
78.4984394987424
78.572383096593
79.0681331331256
79.6500469154673
79.6551752865963
79.5370594805421
79.9406016382937
80.4859651761745
80.7515483650635
80.7408379611655
80.775785223743
80.8542564888107
80.760379509487
80.6575972919767
80.5290658391048
80.6798810918047
80.838642722446
80.5076587166099
80.0439693673142
79.8203671973028
79.7523291404431
79.3639161607343
78.7499020699759
78.5348075693339
79.0005191241763
78.8386893046245
78.5048214156114
78.1767608676568
77.99969210679
77.9636056733861
77.8437939424562
77.6724760178729
77.4534104004124
77.0859781643558
77.0050245437055
77.2082228241513
77.0111421904512
76.6700816888656
76.4349988802713
76.1838648811037
75.763993638446
75.4088527731933
74.992603618019
74.500316695278
74.3152242787409
74.0417541099569
73.5451100679916
72.9918546395214
72.4949791999814
72.0160379795404
71.5386053442469
71.1962439080796
70.9510926497355
70.5381322339867
70.2360459843598
70.1135007365939
69.9425394343027
70.010292635019
69.9868933820233
69.7400164364717
69.5676364774647
69.7410679880293
69.8477529232699
69.8171665481584
69.8255361190968
69.8967610449821
69.9646260207007
70.0340456779211
70.3844748527599
70.6721814914218
70.7878355495997
71.0160768429509
71.1892955316314
71.2688255129757
71.6416722579351
72.1106500976177
72.3369163383593
72.4685817880545
72.6874035170133
72.9816260712542
73.2254068278134
73.4667481118656
73.719179648989
73.951080967662
74.1691171373463
74.2788018748344
74.4643216198088
74.8509828115724
75.1558393845924
75.3355684809974
75.4664956323689
75.5970482324405
75.702834386918
75.8049757307619
75.9094539979122
75.9884484341335
76.0175036501572
76.0694559051922
76.1534009176182
76.2025591006327
76.2387552362731
76.3421286705916
76.4153670720323
76.4452340919916
76.523492770791
76.6293160798222
76.7340201335673
76.8332083883984
76.9475544458034
77.0713813133865
77.2034370370895
77.3319429010389
77.4744474797331
77.6051436843036
77.7297209571511
77.8443987250228
77.9046212649965
77.964904918223
78.0420270504083
78.1042036579998
78.1605821156542
78.1988707916454
78.2207948806694
78.2492486085941
78.2860825775814
78.3047777097172
78.3243513281938
78.3548519640858
78.3605543512787
78.3842698946148
78.4205974053482
78.4718163061283
78.521467957273
78.5225746923905
78.510162146181
78.5357228947878
78.5601414407909
78.5715297126591
78.5879538255304
78.5820457115873
78.574339826414
78.5957742093355
78.6183373961768
78.626502886866
78.6417789040982
78.6736194045733
78.7106050113268
78.7389103774945
78.7885364825048
78.8511114421821
78.9134735820197
78.9895594947669
79.0617858386079
79.1367168792987
79.2260153908003
79.3502932139022
79.463169038831
79.56964898063
79.6929299011176
79.8164910905777
79.9439380051419
80.0695438669553
80.2009133300593
80.3165900953663
80.4087831820617
80.5443190119527
80.6846207896783
80.7869209509274
80.8557160537442
80.8921186013282
80.9242403583518
80.9669887219713
80.9577699637337
80.9145281544316
80.8753669205917
80.8293822731962
80.7754336845925
80.7068166708567
80.6122121513444
80.5174665950659
80.4277453837261
80.3457826625391
80.2549403271236
80.1386508473883
80.0132784209517
79.8730215878615
79.7324064072415
79.5699055991058
79.3933782222282
79.2604420744915
79.0996741008183
78.9294944168571
78.7787530320046
78.6042082410435
78.3963343440919
78.199060288793
77.9945867430118
77.7684110858454
77.5634456171196
77.3363633820549
77.0999282109641
76.935408176818
76.7727020106776
76.5715471505949
76.3919639733645
76.2609326479612
76.1416932363299
75.9957593894668
75.8062996104769
75.6182599398595
75.4222803754957
75.2006818634124
74.9468608094069
74.6618044149459
74.3639432201806
74.0722405165702
73.7765365803831
73.482212292435
73.179247277821
72.9011512698229
72.6552284104436
72.3754766922624
72.0885733857552
71.8370860574914
71.5740539338833
71.2824084464267
71.0358462952651
70.8187217651298
70.5388443249659
70.2552594811508
69.9941784059883
69.7474789517446
69.510370287917
69.2593532717746
69.0059066507954
68.7979607199565
68.5899276471886
68.3636866845048
68.1446924561546
67.9582684740689
67.7848221404144
67.6433624160435
67.5043745607792
67.3457120054227
67.2118393505382
67.0803330897835
66.9617053139182
66.8817302128817
66.8304224460614
66.8128490240256
66.8009941222104
66.7909670275514
66.8001282684501
66.8516387740862
66.9293935226341
67.0458830643185
67.1926656293376
67.3776033253264
67.5683358716922
67.778364132108
68.0075202238611
68.2655639254147
68.574280565696
68.8990641040473
69.2314573091284
69.5690346817816
69.860242637204
70.17198152694
70.4900752589482
70.7914983844148
71.0895895629025
71.3762467936865
71.6604528240855
71.9725557431746
72.2160509121649
72.4136021419089
72.6428756127098
72.8523871272083
73.0256896590326
73.1968873439421
73.4112763709224
73.6291984239782
73.8422280825887
74.0878592546636
74.3555450659432
74.6355696908615
74.9014832948076
75.169402443117
75.4339160487375
75.6842332810331
75.9009788288837
76.0962936662287
76.2955823173055
76.5342034905111
76.782430091854
77.0116621951746
77.2153299050932
77.4113471461387
77.6147898903782
77.8162363375891
77.9833400959349
78.1413918896086
78.3026834048247
78.469508334634
78.6156228134317
78.7482562705658
78.8768429404194
78.9488087562717
79.009549065405
79.0892517473655
79.1636150884223
79.241832207317
79.2969868877507
79.3592608966145
79.4502918326632
79.5594383908009
79.6338305313727
79.7087688493761
79.7927515278245
79.8792362813801
79.9423898821866
80.0024585368687
80.0579360398362
80.0952135969243
80.1174214083368
80.1507750229796
80.1519461596005
80.1625933239823
80.1807557915573
80.2183555623927
80.2611677795699
80.2610294595598
80.231723852034
80.2301246695329
80.2015573078839
80.1962411641571
80.1832165934349
80.1457075994228
80.1147265847066
80.0988813553287
80.1072585043474
80.1236433586065
80.0957299000633
80.0793441455475
80.0643466696582
80.0313410558176
79.9832782477751
79.9455371099118
79.8874535268166
79.8025730215057
79.6765886240362
79.582262527899
79.4780325349819
79.3085584199493
79.1244242662046
79.009901332039
78.9402590398929
78.8645950571587
78.7901294645547
78.7283027091887
78.6036027393511
78.4529169508403
78.3392202561784
78.2479257668266
78.1514671118697
78.0573548455938
77.915477565773
77.7550675431922
77.5896838494621
77.423199731513
77.2634725929204
77.1203847647305
76.9868581379721
76.9265117144654
76.8698434198183
76.7886551462742
76.6758897359643
76.5757931537133
76.4801358685765
76.4087268856333
76.334858884805
76.2217974495322
76.1109172628671
76.0154266255893
75.9011195114886
75.8522758799998
75.7954263943038
75.7312942928375
75.7088121610257
75.6666829005354
75.5489592863597
75.4509515884157
75.3909057186042
75.3287231926306
75.2478288898636
75.2008506002172
75.1337585277056
75.0412559391261
74.9440324837309
74.8959119739341
74.8117110053104
74.7142378650402
74.6236655675007
74.5529510407023
74.500880270143
74.4355967774765
74.3472399627905
74.3014233835335
74.233712874203
74.1052843935404
73.9754507481097
73.8961553862407
73.7736327957036
73.6956154266039
73.6211746907474
73.4736026546489
73.3133774784545
73.1903669859073
73.0711533139704
72.9528340921174
72.8242895007971
72.708155431235
72.5854663283798
72.4798752776661
72.3128422699514
72.129833318285
72.0034387977243
71.8618223966636
71.6564481270008
71.4886542763363
71.3677137012145
71.3085021994582
71.2264973807069
71.1298860139826
71.0343963997437
70.9461085926164
70.8097412342468
70.7555444757682
70.6789578644721
70.5766309707836
70.4511765389398
70.3940253421369
70.2833343379062
70.1523581787252
70.0369262039456
69.9139801765583
69.665170419516
69.7734557569656
69.76369381737
69.5791268955468
69.4031729336321
69.2611331045851
69.1569763002023
69.0793081857134
69.0065526458937
68.8855520287874
68.7105518907256
