1798
3999.43349933624
650.420452594757
1
128
4
96.5079700171464
96.4405531510443
96.4655156217532
96.4530248989928
96.4142465991287
96.4605902119969
96.3875401569009
96.3737133764884
96.4902453548114
96.4895942211292
96.3713123068119
96.3475534391868
96.3907746348006
96.4419363067672
96.517896860703
96.5266467334129
96.4407504019214
96.424429472908
96.5214933781982
96.5871513210975
96.5476737825318
96.4967000828813
96.4833782001203
96.4721980801379
96.4396377203092
96.4423486350536
96.4620197987478
96.5310907557492
96.6171256852815
96.5706623471579
96.426676697791
96.3514783417664
96.3772814776652
96.4708622450378
96.5375100856274
96.4786132648191
96.423422749828
96.3986612561843
96.3482201003601
96.4128102690834
96.5312956730473
96.4779836472906
96.3621462139919
96.420511836566
96.3979423847701
96.3436182137987
96.4390040894559
96.5393527297659
96.6248392000111
96.6672545234492
96.6616493261276
96.5072167529048
96.3559493403293
96.4084741543297
96.4063588464733
96.362295453577
96.3821266492937
96.392247250042
96.4379144413358
96.4662856641561
96.4439907883517
96.436470888545
96.3976527449154
96.4329952221244
96.5056268163917
96.5056745969059
96.4875108265508
96.4584990210453
96.4132215514076
96.412329388325
96.4195036559204
96.3405679132552
96.3119887438659
96.4345617573342
96.5015446650169
96.5005194867203
96.5916912377726
96.6107329616046
96.362329175282
96.1478564496087
96.2069612179452
96.3542573625493
96.4704880230623
96.5708177875914
96.6034978177809
96.4948359133939
96.4143055300374
96.4569648769747
96.4287092296112
96.3021103268418
96.3406369422742
96.4321478909365
96.4542906779494
96.4410559167495
96.4252670143051
96.5676174362452
96.6312287015461
96.4758893132082
96.2695046705427
96.2283852423869
96.3950123851962
96.5761318709151
96.6443898277196
96.5856748169986
96.5249727395226
96.4730231835545
96.4305320467781
96.4396300492544
96.414981822247
96.4203189806306
96.5579184752784
96.5626779803393
96.417499929008
96.4196080328172
96.4919107076582
96.5486140120702
96.5986521969953
96.6034971755182
96.5505654420878
96.5836212901932
96.6268394817427
96.5372912066662
96.4778289340999
96.4853871418383
96.4126306840223
96.4208366980568
96.4744958575171
96.4517231383426
96.4999119172329
96.6446070234324
96.6822015970985
96.6719898347168
96.6364631079622
96.5806694398092
96.5274749029662
96.4111648366877
96.3105122182135
96.3498094518732
96.4330407445876
96.4186153732031
96.4450624326236
96.4719934730013
96.3662493632575
96.4003892356889
96.4404177442023
96.378115627578
96.3125781362808
96.3846488088436
96.5688989915904
96.5330711761101
96.5315476569718
96.6992975198005
96.691681037818
96.5864758207045
96.5070224612467
96.4406634230777
96.4779811480746
96.5174676366517
96.4541624848675
96.391276172958
96.4078162145858
96.4642021467154
96.552552739615
96.6437766242752
96.6409705849177
96.5871258324973
96.5676320982043
96.4245087943526
96.2826328983437
96.2937697936867
96.4646200394119
96.727726073311
96.8255233324271
96.7177163458084
96.5706399239578
96.5113401763316
96.4190530510428
96.2794207372427
96.2674706353599
96.36152479381
96.4773234511706
96.5409805696839
96.430760096218
96.4585090733061
96.645304832701
96.6725495806559
96.5635562502877
96.4659716458955
96.3193941261125
96.2311003517304
96.2082745648542
96.1779651707136
96.2270414262149
96.3124149466381
96.3144623949563
96.3842711891183
96.5277679233414
96.5262768737369
96.304235454183
96.1261522572711
96.0822197863311
96.0275713640046
96.0509093771536
96.1463953117316
96.1089716390485
96.0059946263291
95.9354786769133
95.8511974554111
95.9039753438788
96.0045030260443
95.9368594823822
95.8773872957016
95.8819606621696
95.9231857964684
95.9072433020512
95.8052352897575
95.6576125109942
95.633394250356
95.7984653769427
95.9397935278459
95.8610509092332
95.6378093579866
95.5085525900315
95.6250130646005
95.6253897775099
95.5128185087959
95.5359218519923
95.5894795787537
95.5087290681889
95.444949368555
95.5443660115469
95.5886015178703
95.4718196972525
95.3187670629557
95.3107263161791
95.2375719214379
95.1239433023723
95.2092847001724
95.2435715126789
95.2658749236184
95.251135664838
95.1680051020788
95.144529749666
95.0482977250923
94.9669001069757
95.02821759656
95.0513815807622
94.9522953074239
94.9302310727498
95.0010408470716
95.0111582208727
94.9358498296114
94.8227416446767
94.7848887514084
94.8023016206246
94.8774249323428
94.8907180891671
94.8064689751315
94.7593077326817
94.7683558244553
94.7367868917331
94.6286682529241
94.6516910390319
94.6952028886843
94.7100974334336
94.6859742515326
94.6153283297816
94.5640373617377
94.4528792086966
94.4157554326499
94.4639199080163
94.50021569993
94.4412786826915
94.3383334294202
94.3697935723217
94.4686054568385
94.4458439261879
94.3001536195557
94.2039470440561
94.15719515124
94.1647009873179
94.2753321471735
94.2281458234995
94.1383849206606
94.1476966458872
94.1419762467907
94.0762082135659
94.0497846582479
94.1068734218768
94.0967642041205
94.0291501838909
94.0159514162562
94.0096420522297
93.9367007035703
93.8784582047951
93.9100231137118
93.8687988246266
93.8369876638388
93.9081613392701
93.9031460287962
93.7561776114999
93.6258785801012
93.6363448973956
93.7240998019557
93.7554943776855
93.7103556269635
93.7404134335238
93.7521989748256
93.6880622097495
93.714384874494
93.7799686284311
93.7270096541154
93.6256659921289
93.6116655176821
93.6432211327738
93.625586797709
93.5712799986702
93.5091496836598
93.5048605071989
93.4578705735755
93.4683322580885
93.547511901334
93.4854270735845
93.4198500150267
93.3338823143612
93.3539565206676
93.4000675274031
93.3613734802048
93.4037497092336
93.4039486034865
93.3581288705251
93.3272336160805
93.2374499124714
93.2338253323712
93.3087534654051
93.3434080716117
93.343845138987
93.3423241904354
93.3120542286582
93.2638495022789
93.2179359406437
93.2346859841435
93.3098596669262
93.3078786102649
93.1971917608542
93.1362767215607
93.1684546030853
93.2728522458972
93.3773404272621
93.3648560381971
93.2593917046311
93.2305461361239
93.2580611348724
93.248041171067
93.2020363581357
93.2206563136555
93.1792537693782
93.1497704883933
93.2155732363344
93.2260450275748
93.230726000563
93.2650202453583
93.2802105800729
93.3292393518533
93.3514700967077
93.2933572688026
93.1917719408251
93.1772954963105
93.2038515746002
93.2557092956929
93.3309010400336
93.3473007861123
93.296774457666
93.2283518455744
93.1835003856816
93.1861840351927
93.2764097697468
93.3301491012574
93.2458507841393
93.2563112930263
93.3022002652818
93.314158562238
93.3331541941461
93.2794403160337
93.2252182670849
93.1954381704926
93.2068789254758
93.2371848947595
93.2079931183967
93.1966450662464
93.265164911959
93.3077705308795
93.3073663914623
93.3197035800612
93.2957526959086
93.2461113593777
93.2041246601301
93.2013955693299
93.2485681751684
93.266597928621
93.251669131992
93.3100472200683
93.3423900561859
93.2527822104169
93.2332729974394
93.2875962968594
93.3162912945253
93.3156365941136
93.2321226410132
93.2754191928037
93.3894996897043
93.3423182928406
93.2819379439478
93.3311225911171
93.3636802873455
93.3279047376155
93.3035073553989
93.3625706295082
93.3496997050424
93.3098664232619
93.3901808604103
93.4399480699714
93.3665836644011
93.3042251773829
93.2692769270674
93.2904938815623
93.3724311029287
93.4671368490951
93.4801415332699
93.4307520059974
93.4133580628503
93.3971315708441
93.3651113266765
93.4134356128273
93.4615422054158
93.4841789581307
93.4875382614217
93.443648616205
93.4249231692928
93.4832025493885
93.530878159825
93.457070199146
93.4461461917482
93.5451686249439
93.5640503782758
93.565562985147
93.5761855266803
93.5997973789561
93.614129679377
93.6263266324855
93.6725284242999
93.6579144279401
93.640199351482
93.7438003031218
93.8041961549361
93.7284695416569
93.6243645749827
93.5967586359223
93.6258804725222
93.6665961158317
93.7457561855188
93.8527106445258
93.8098185794797
93.7502375436937
93.7830746970803
93.7753608508014
93.720577583168
93.7010476208757
93.7450457196322
93.7850252727156
93.7333280068749
93.7783849911514
93.9491336751788
94.0215859697707
93.9306333349275
93.860215007014
93.875197448177
93.9072101123125
93.9504325862356
93.943579112462
93.8902911268726
93.8806783440042
93.9300265480748
94.0449172731785
94.067445488647
93.9487828327491
93.871565482096
93.958345755969
94.0227940057609
93.990069017627
93.9908988190337
93.9922711267168
93.9621341434654
94.0179605766168
94.0877833238486
94.1046001973405
94.1101487456522
94.1311647403676
94.1227793918844
94.1509250548455
94.1768902211641
94.1277447054103
94.0742450716304
94.1007089806452
94.1405147334352
94.1211439162368
94.0835257602037
94.1107961250566
94.1855228322891
94.2246139422982
94.2179185460104
94.233260202035
94.2555026977307
94.274322676517
94.2990784704747
94.3158080764711
94.3001682941011
94.2649511430574
94.2328608445312
94.2027973893072
94.1942703571981
94.2161089770289
94.2563353093395
94.2992655637033
94.328662932967
94.3951541512066
94.3929380036783
94.3616516701404
94.372595039225
94.3815760233133
94.4557467242334
94.5104308215285
94.4170144744387
94.395499307463
94.4513765835381
94.4536767774666
94.3990249417942
94.3652442606332
94.4249470703848
94.4826930346692
94.4642976191789
94.4112876000415
94.3695483135933
94.3942701531326
94.3731742503053
94.3200890548918
94.3484630483271
94.3949994698632
94.3729720773264
94.3419545092848
94.2844094049027
94.2419960866516
94.2889317669773
94.3114745548624
94.2576291510807
94.227673813325
94.2112874592302
94.222233555951
94.2169193063356
94.1909425199827
94.2022212814644
94.2336121194147
94.2636342458522
94.2902730364698
94.3040845802697
94.3101543886875
94.3398475503548
94.355001615213
94.3199214580169
94.3056748342562
94.2821075725795
94.2463067832759
94.2708387806813
94.3318435303345
94.3508862796403
94.3187461040201
94.3066496544326
94.3655019858524
94.4226241427659
94.4610243106434
94.4772275684277
94.48713735193
94.5422739984758
94.6157872441624
94.6098348629428
94.5412059352756
94.5129322680837
94.5555707436255
94.5707187137838
94.6051135754779
94.6373661183305
94.6187672011469
94.6287366089187
94.6769353797536
94.6803255009593
94.6491862711286
94.6877531437437
94.7167733917449
94.630245778407
94.6148044183112
94.7162270582763
94.7663884227186
94.7175791312348
94.7425986703237
94.7750060445159
94.8016348227818
94.8463051754885
94.8082897556339
94.733445969181
94.7219381284114
94.7719805644646
94.8291769151584
94.8615036179655
94.866802971275
94.8385043624565
94.8466182120204
94.9061898698083
94.9565214593181
94.9627983037796
94.9601282490882
94.9578536136638
94.9509285494054
95.0269816364158
95.12240057208
95.1105930786632
95.0892160104569
95.0763502829117
95.058213960424
95.0783582541769
95.1168106486708
95.1074065165912
95.1103167481698
95.132085206121
95.1318658776474
95.1367120745128
95.1428323020157
95.1484972282243
95.1937460013523
95.1969176610937
95.1678948777767
95.1624166289256
95.1763322633198
95.1772939519603
95.1715647130651
95.243101631311
95.3172588412172
95.2429611638533
95.1573494652412
95.1857821923376
95.219926532041
95.1809305665453
95.1482187266012
95.1346556116066
95.1423716768701
95.188315119171
95.1880531870208
95.1711155968872
95.2539877531217
95.3118143622947
95.2584463321202
95.1999284679702
95.2414078936944
95.2504018264332
95.1757293211326
95.1743014591879
95.2433535266444
95.2762597046237
95.2500921703674
95.2302280250592
95.2707759964896
95.3085309474664
95.3485421043111
95.3497281838789
95.2981058263693
95.2531152203645
95.2330145559599
95.2524880232799
95.3026760899331
95.2939630282123
95.2415607006041
95.2281210787851
95.2657548920819
95.2743069804931
95.2993937785286
95.3444768283644
95.3821356586933
95.4384257524882
95.4442514629826
95.4236505493979
95.4221245469357
95.4298681502403
95.4477947675511
95.4572873916093
95.4885438133281
95.5415383572398
95.5523864103989
95.5255722351256
95.5530326198442
95.5550222326012
95.5483151171315
95.5797211027439
95.5873962626432
95.5974061400383
95.5901223036245
95.5487201556054
95.5385797215466
95.5525673969385
95.5779217241031
95.5784497846682
95.5904329945316
95.632859428943
95.6103433711473
95.574857107505
95.6089686192235
95.6322088438052
95.652189331777
95.6375128578695
95.6056499909503
95.5918999309517
95.579547338353
95.5714535082408
95.5565626391958
95.5567024885148
95.5822650304306
95.5872653803249
95.6175852266373
95.6461556269402
95.6452573278176
95.6285211502998
95.6229062710371
95.6368845247878
95.6617549441037
95.7141740595593
95.7327907837893
95.708647032638
95.7351200911424
95.7696866286847
95.8042329501768
95.8090657068618
95.7875317470143
95.7779831656148
95.7976430256895
95.8802763127658
95.9290874547142
95.8902380921169
95.8527821169035
95.8548720517546
95.8909562761481
95.9031256466082
95.9508343472216
95.9942492065832
95.9496019632012
95.9416249726756
95.9514001265756
95.9281042581096
95.9494328821103
95.9720373551563
96.0505063866904
96.1505177556922
96.135370057924
96.1064636161542
96.1312143381977
96.1219370939742
96.0835508859196
96.0952917807993
96.1697871090205
96.167445344294
96.1033086507976
96.1005925198445
96.1923539619741
96.2310577400538
96.1677988786595
96.1979437543466
96.23997238046
96.1901603664393
96.17989929989
96.2127558490668
96.22625869479
96.1929070009068
96.2450789835246
96.2982585296956
96.2851767655804
96.285289906967
96.3083454409338
96.405798291215
96.4342265100149
96.3241360975702
96.2996630303473
96.3695612713525
96.4094989078001
96.4051588429125
96.3739667674929
96.3873243136302
96.3991397516231
96.324795491287
96.3145644174137
96.4094783080153
96.5009364279011
96.5121064902693
96.4528978567959
96.4014210749377
96.3851805022283
96.3678987347934
96.3818710727516
96.366723362474
96.3361878715709
96.3329563041373
96.3412437644941
96.3865977371519
96.3945033561684
96.4016039665903
96.4075467718465
96.3543412409323
96.3159191186774
96.3220346990666
96.3705859424845
96.4076804888277
96.3488342685366
96.2977599706227
96.3461853054145
96.350737489192
96.2791156148756
96.2714886254432
96.2812135332044
96.2682380156682
96.2878435009143
96.3227491432966
96.3736172282082
96.38900361335
96.3184832459414
96.2960165653048
96.3172132005548
96.3170078357364
96.373040983344
96.4475953507088
96.4730259406837
96.4514006966121
96.4460055331602
96.4185371163986
96.3277239254511
96.3007111418054
96.3215513995937
96.2836133485595
96.1850275692721
96.0987676489779
96.1142355743112
96.2064937548095
96.3307844654845
96.2924843613834
96.1879141890528
96.2308709314186
96.2261406114637
96.1984610077371
96.246942491871
96.2249627637314
96.1794833005588
96.1149496418506
95.9308113965299
95.7457613284361
95.7153800888663
95.6628763760073
95.586627265376
95.6505284900359
95.6900678869461
95.7340155793951
95.8633532560646
95.9795783503853
96.0921207001685
96.2191162208466
96.3466421607088
96.4851665237089
96.5688932273376
96.6545557736524
96.7328152911435
96.724231838613
96.6969681955457
96.720033066416
96.7885018503125
96.8004195241828
96.7143543175302
96.6166285868775
96.5706042271636
96.47138515187
96.4091497718631
96.4859083492211
96.5928518689064
96.6232729879516
96.6092197724209
96.6898363352867
96.7180068162354
96.6372597404853
96.6146417041768
96.5663073531251
96.5096854191749
96.516729890119
96.5540874578312
96.5614477700811
96.5160287619663
96.4687037846776
96.4567248425306
96.5343836289215
96.5973059837684
96.5384770154684
96.5517428360077
96.6436223813633
96.6249465312585
96.615153914785
96.7046542058138
96.6818493966073
96.6079235282679
96.6830330577785
96.6956229418997
96.6889474546225
96.8409886204768
96.9238173920556
96.7924791083131
96.732696814151
96.7883113478497
96.8198651937089
96.90122898296
96.8949161538871
96.8871427404406
97.0631303211722
97.2262791033493
97.2362653504182
97.1797794542723
97.3030474843389
97.4564544164604
97.4963973237798
97.5281317589862
97.5417907651596
97.5100567995695
97.6221526159686
97.7435352243876
97.5733393449144
97.5346351044601
97.6596188565215
97.7596841382593
97.8569044457204
97.8665880183161
97.8933263347172
97.951749274579
98.0314948542073
98.0541299218796
97.9341878099311
97.9372573947028
97.9691568017817
98.0026467463289
97.9575882748103
97.9103138464389
98.0749511339696
98.1590471169979
98.3264155478111
98.5565436359173
98.5849872642997
98.5857065114745
98.5696558210785
98.2975165856031
98.0893984028195
98.2310670121464
98.4511075414026
98.425930341557
98.3677485779119
98.5662868774053
98.8990011751598
99.0346956592917
99.0775583333367
98.8625376340573
98.6381703563451
98.7205895751794
98.8338211223776
98.9703096721855
99.0110203428386
98.959168765779
98.8801879344891
98.8886578649277
98.9009834388401
98.8948476603524
99.0009066034409
99.272369698079
99.6355463575822
99.7217477002842
99.8102784016327
99.8414895891782
99.6699455629963
99.5142701905461
99.5949063427102
100.111562375622
100.159967310747
99.4005910356259
99.0349677656744
99.1726993189442
99.3662864884473
99.4007095881039
98.9691305336256
98.4905600224361
98.5076847083628
98.4052905120557
98.2175045903434
98.2383736901548
98.2130841475949
98.1110556193498
98.1619380390148
98.1422817234016
97.8419094070667
97.5341512012725
97.6734431811092
97.8425465369197
97.7597736269152
97.6646991429008
97.6908861572544
97.763564594854
97.8035101427543
97.7273711872525
97.6249670702102
97.5850691551543
97.6608700740339
97.6650220142981
97.5129720321142
97.4865024214558
97.5685295820398
97.593024901723
97.7264230881107
97.6827953611952
97.662386939937
97.8679358021065
97.8227591620274
97.643421611464
97.666285733772
97.7343945593407
97.7980330846371
97.7127068762455
97.6635639619978
97.7864904640903
97.7477002211089
97.4880185868658
97.563149066128
97.8472382719517
97.8811028199933
97.878117371704
97.9510978584107
97.9379588026442
98.0323627214085
98.4052343669515
98.4386940493788
98.1048362490507
98.1882564528566
98.5133068884273
98.6515900379297
98.7269690152717
98.8609170552793
98.9670887571219
99.1920856620888
99.4610479650512
99.5139425783963
99.2767127447657
98.9710188273366
98.7423704587355
98.9197058537832
99.3885320495991
99.3307337566862
99.1080065738584
99.5520426735544
99.6387125263447
99.2573244266813
99.1478271078416
99.3343970414229
99.3873612124902
99.1267778724019
98.6268625390841
98.6054485203273
98.840203358169
98.6794701062006
98.6016762814426
98.6640803442983
98.6504167134181
98.8287234825669
98.8412257872905
98.6108934981545
98.569864315791
98.8142606617824
98.9779199750682
98.7225196584292
98.7098001285406
99.1876205233918
99.5106387298714
99.4402151839991
99.1374255460985
99.277557925886
99.120125492542
98.7145674743159
98.5896962685001
98.6299048585727
98.629295539334
98.6261963994979
98.6523990119967
98.5181186639679
98.3942494865265
98.3753622115364
98.4047029106581
98.4202687799629
98.198989596423
98.0760373139947
98.0370243994197
97.9953603498508
98.0301834752293
98.1120355914441
98.0073476608578
97.8825424075043
97.860728082352
97.9390648411759
97.9710631363611
97.9280435665079
97.9713448683019
97.908675343252
97.8196490959294
97.7445992824725
97.7146555419081
97.718166101898
97.7218723358588
97.7042675959947
97.6127505872789
97.5366424530185
97.549711889275
97.5126345950606
97.4987386556004
97.6135193639494
97.6406421502189
97.6023449635175
97.501353534572
97.4704399714666
97.5025524507376
97.4512733730437
97.4133684912401
97.4680472237557
97.5087116898179
97.479618275086
97.4315470306032
97.4346180349338
97.5031260797317
97.6048560440076
97.5935033364554
97.4335893183261
97.289231955048
97.4016521786822
97.4763342252677
97.4049538923165
97.424678418273
97.4750650534571
97.4109495976194
97.360887141166
97.3392995847305
97.3468222271775
97.381377071608
97.4378835791212
97.4532442676172
97.3617690142455
97.3422264986152
97.3481614160304
97.2882484392887
97.275986249081
97.3100756098599
97.3385139252856
97.3338613618418
97.2841415767853
97.2864645611496
97.2496670159198
97.2188090785237
97.2500545570577
97.2536089160438
97.2724485765482
97.3322645482623
97.3477306426563
97.2670505349711
97.1937968442526
97.2394126569507
97.2906728385026
97.2557517044383
97.1899127022694
97.1240667907837
97.1358059547226
97.165414873736
97.1382397836449
97.0844238097417
97.0251038614963
97.024703420346
97.029035137356
96.995548878372
96.9822305240162
97.0194523435099
97.0365230829418
96.9926336697205
96.9718433527918
96.9868532844377
96.9755560294578
96.8649390550063
96.784809358096
96.6406206970209
96.3126708533025
95.6657432986569
95.1304145454376
95.3799627589747
95.9332992129724
96.2645766225009
96.516049289259
96.6433079545871
96.6009676243295
96.5327563032397
96.5386272325675
96.5436645728591
96.5311078602152
96.537986065886
96.5264594541607
96.5301467391016
96.4822874825022
96.2583863545559
96.1547232582379
96.0801491841587
95.9484121043576
95.8865505540792
95.857586482436
95.8312306225364
95.7764113760326
95.6020405070107
95.3208092601636
95.0977787004227
94.892257457591
94.7293187054639
94.5863472886919
94.3995500671875
94.2158068736419
94.0120844688909
93.8472728385096
93.5563312817146
93.1527631121654
92.9199646412887
92.5951350537841
92.4936509146105
92.4029874110838
92.2459247395219
92.1250342809225
91.9278496147687
91.5275526292378
91.3691755328344
91.323366747373
91.154231192867
91.0061079303716
90.8742301400771
90.8380267539557
90.7016694294653
90.5012279563406
90.4265316160396
90.3707701087588
90.242409644058
90.1492140371664
90.2144877375502
90.2573365084588
90.2096690590455
90.0550659772584
89.8768386076595
90.0210346638466
89.9651987079853
89.7067593445362
89.7029317570321
89.8231204638543
89.8122994608099
89.7821740555851
89.6880556641598
89.5086729205203
89.4808663410017
89.5160367755413
89.4408178136289
89.3584146647002
89.3043148992014
89.2262366253726
89.155601617362
89.1864265751182
89.1195617935006
88.9310655052286
88.9173030029176
89.0089717792552
88.9304882963128
88.8406098910232
88.8191570503262
88.8299161238141
88.7785133866692
88.7276717605825
88.7037069172675
88.690485671552
88.6479451022335
88.6069651260274
88.5595165799986
88.518618521032
88.4866223653297
88.4355491545395
88.3978616107342
88.3961668720301
88.3958335817487
88.379686124279
88.2860446584249
88.1387611891413
88.224811649194
88.2816895540497
88.1210286247879
88.0810177500222
88.1835747411984
88.1910532286771
88.1870963489604
88.0701217640239
87.723923367113
87.688547346984
87.8721696603739
87.8135055487002
87.8092136548433
87.7656082676748
87.7399183594489
87.7618190861131
87.6696615264939
87.5297115193617
87.3285547813598
87.2180227053606
87.2971979508203
87.2452748747823
87.0507462686588
87.0656606769374
87.0247321983133
86.8851767645357
86.7752659308132
86.6717182252121
86.44867941183
86.2638305317983
86.2809416236535
86.1705247274105
86.1054816928763
86.0782910255883
85.9616781152086
85.7840867711935
85.4660947578319
85.3898452289896
85.5832989387447
85.5552133253288
85.4262040058515
85.324840570643
85.2820701381237
85.3379025313065
85.3026617473404
85.1059703791002
85.0442925252147
85.1327946501334
85.1648006626832
85.1503890570062
85.1024024220333
85.1024676006153
85.0673958717748
84.9303149858124
84.7460148989205
84.6187955053746
84.6728287720023
84.6019783400912
84.3794588198959
84.2298230558554
84.21602463071
84.0371040531494
83.6743600221804
83.3083360016642
83.1854629390989
82.9837383295343
82.4988308947205
81.9118061201665
81.2308984667815
80.5739966707014
79.9634821401079
79.3387062583102
78.6780952167984
77.9502597664711
77.0153670806082
76.2297566254756
75.6224286161747
75.2206705850385
75.1024367420043
74.8315308371506
74.2330210734862
73.4992553358549
72.7951214805513
71.9836630241179
71.1838398637709
70.622701784039
69.9616793518169
69.2721833585629
68.5984674500021
67.9282042659549
67.2338486487487
66.5505099606307
65.9071289114838
65.2848127279543
64.5357539475429
63.8279249161081
63.121249326724
62.4252117230082
61.8415584693406
61.1588531962789
60.2976812596533
59.4788618372561
58.7759655736254
58.0367876871904
57.3366353801404
56.7961386094138
56.3569237437275
56.114808252671
56.2408407504998
56.6755249114397
57.1172624672137
57.6302473433494
58.1768824609944
58.6498857967153
59.1640166173292
59.7984581935712
60.3333948722268
60.8088848724294
61.3014416901221
61.8577715272548
62.4496262330102
63.1024293465871
63.8156944930318
64.5703977296616
65.2959199271909
65.9700862648031
66.6434666865741
67.4347587587348
68.1474510072702
68.742950682345
69.3250997245427
69.9498968770384
70.5443051527501
71.1203699878165
71.6848426250246
72.230445101798
72.7404891796207
73.2497270067788
73.7455478172791
74.2246162928346
74.6766237918644
75.1150253057476
75.5321269490604
75.9481015676347
76.3321174766549
76.7178650678812
77.0886854084016
77.4647369950551
77.8416053536427
78.1910093604811
78.5199796359729
78.8715974875392
79.2100231143401
79.4992339392343
79.7772016719713
80.0770773514709
80.3714624537523
80.6420484638154
80.8988743290912
81.1699281629964
81.4300933049128
81.6783644565141
81.9053245050392
82.1343841677078
82.3522829450564
82.5555249317308
82.7374018959154
82.928875064944
83.1118598520889
83.287604168157
83.4524587622089
83.612693806218
83.7474918956821
83.8787861000055
84.0445209589313
84.2232991515871
84.3809504347333
84.5326393400826
84.6690314072841
84.8213504791251
84.9855374316021
85.1404229956031
85.2819092396825
85.4172184830914
85.5384107888231
85.6521327801123
85.7346697093057
85.7920040438376
85.8455299016594
85.8976132224519
85.9195868921939
85.9277600046005
85.898111841675
85.8306538480725
85.7351640963248
85.6297341146246
85.4856714961391
85.2816705361694
85.0450547207599
84.8145133279402
84.5656130660155
84.2657572516992
83.9116577161043
83.5653408948244
83.2038230756208
82.8420584163985
82.5011965778011
82.1857348631503
81.880328443073
81.6015707477275
81.3523566888389
81.0996791594377
80.8371998426419
80.5957999792429
80.3630769014783
80.1176855264603
79.8574920329194
79.5798715596791
79.2721255745479
78.9408432033799
78.6125570199448
78.2971506150312
77.9526435967156
77.5794333919901
77.177478968306
76.7803893955907
76.3780341598662
75.9902701440496
75.6179865956968
75.2703006044702
74.9228530743283
74.5520383703428
74.1676419715379
73.794720931828
73.3854781015515
72.9667846015379
72.5514225866699
72.1222793849037
71.6757313300326
71.2548087299295
70.8560826246763
70.5162459894224
70.2390821940329
70.0271475175835
69.8694283899504
69.7264370641073
69.576895622448
69.4701527506707
69.4195411639077
69.4245164958443
69.5255975416986
69.7228991153485
69.97285148408
70.2787983363715
70.6147517053379
71.0187003003711
71.4106580685649
71.8475968865645
72.3801541886728
72.9728955637637
73.585307956051
74.2422144653202
74.9153679624976
75.5706280588992
76.2023948109342
76.8229219780065
77.3891216957714
77.9546929660045
78.5097949389229
79.0757426912462
79.6200313581494
80.123121295748
80.6169747737083
81.0605075467013
81.4442158622273
81.8081371724512
82.1349949185943
82.4442951561912
82.7328288480965
82.9769857058096
83.1935065776552
83.3517408268018
83.5167530108014
83.8143293149497
84.1329018119221
84.4195847361573
84.6870171500728
84.911197773274
85.1190857962813
85.3218079547065
85.4923970291338
85.6357270941644
85.7857344616468
85.9752582774311
86.1490583915866
86.2836544829435
86.4204276211664
86.5943421406045
86.7268788093325
86.8370710762209
86.9508894546842
87.0483300271154
87.1562269951403
87.2596362862477
87.3398703844157
87.3956358848116
87.4375194023088
87.4805214145409
87.5016493530613
87.5041835803964
87.4943052797587
87.430170944943
87.2945518360922
87.1783243630749
87.2157096083019
87.4084852595724
87.6461358402738
87.8342622183929
88.0626153888485
88.3686748817751
88.6129197319934
88.8007086126651
88.995893007234
89.1518358347382
89.3000752528462
89.468759494402
89.5901093643476
89.6721436791775
89.7733039863288
89.8830955257406
89.9751736654593
90.091941673387
90.1764672114753
90.2109382361226
90.2812601668049
90.345680651683
90.3800231965288
90.4274710544619
90.4967102002429
90.5469595143092
90.5869573597531
90.6224526551906
90.6343394426491
90.6701235274721
90.6983328133844
90.7238057920637
90.7935285460836
90.8380981215237
90.85238827641
90.8731415494162
90.8874058343
90.9194525124113
90.9516861035519
90.971607294902
90.9996368765218
90.9866109368715
90.9937930119446
91.0557016480205
91.0817357358895
91.0893860354021
91.0759769137159
91.0602248273184
91.074824084569
91.093840883067
91.0550051851809
91.0354855668399
90.9712606691336
90.8740564149094
90.7373025471617
90.5397827931385
90.3021257129905
90.0255620714871
89.7345503311329
89.3784165840564
88.9715417558592
88.5476488421811
88.1538716972808
87.8180598683994
87.479598697681
87.1611487730108
86.9297903563323
86.863785415038
86.9022252218265
87.0243893730254
87.2146001584302
87.5121554877887
87.9212629089189
88.3045413777901
88.6238314036393
88.8640691541111
89.0085510363935
89.0403073872559
88.9656801291002
88.8140958000238
88.6258489731675
88.3158936107456
87.8778050998432
87.3659956139666
86.846937335779
86.4038420196944
85.0558682757225
81.6245860381121
77.7768233891443
77.5295075567172
81.0698339284319
84.8660235622578
87.2052251249454
88.4411087113192
89.0653588234575
89.3462412959446
89.488221526554
89.7131562930997
89.8747581548846
89.9506425113502
90.0101651677187
90.0755523792486
90.1104841691091
90.08307493359
90.0266174882972
90.0279038391862
90.0490653877387
90.0376860863886
90.0261514293001
89.9968230297186
89.9686516000343
90.0168791989363
90.0374447246252
90.0555346373523
90.0543907312462
90.0343117548476
90.0107655031731
89.9739709983274
89.9696323110003
89.9723210052058
89.9405668288753
89.9595331595436
89.9770990901154
89.960416313113
89.9315169453127
89.9127142762163
89.8809381856758
89.8665666635205
89.8777815589682
89.9007155230861
89.8830992215238
89.8718342043794
89.8446400262379
89.808654852674
89.7796884004549
89.7169242070711
89.6433526998221
89.5993022860529
89.5776529892819
89.5806345533332
89.4923153246158
89.4149323849919
89.3539806734179
89.3160710179327
89.2675533699955
89.1182971884669
88.9115269697149
88.7008265948263
88.5779270124226
88.5058603909044
88.3321974332184
88.1553814149388
87.9708575663783
87.8236390853571
87.7515420913361
87.7201493292002
87.6630544793807
87.6014196697745
87.6248356869091
87.6506276570679
87.6058261746746
87.6147807537545
87.6878200864335
87.7404573811866
87.746467592446
87.7709342091319
87.7852477573277
87.8501428963375
87.9686555061239
88.0653600918158
88.114087704396
88.1545917914936
88.0753439813978
88.2400908773567
88.3617327284806
88.2877187783102
88.2346385130204
88.201771017596
88.1702261731598
88.2213906556393
88.1908387920598
87.9872899039098
87.8735851363613
