1798
3999.43349933624
650.420452594757
1
128
4
94.3019596546225
94.241016644021
94.2556293004443
94.2415480660838
94.2536934519684
94.3305764856291
94.3635068111349
94.318946275986
94.3182906703153
94.3197999802349
94.1942851469866
94.1949201822721
94.2243719080913
94.1779533854867
94.2426965670453
94.3897147690279
94.3635778607982
94.3237300241169
94.2530785844669
94.2346447892397
94.2954661375843
94.3534254355992
94.2840803298653
94.2346867970947
94.2639420534532
94.2943438615773
94.2374688496271
94.2465959308845
94.235858379628
94.2817333077321
94.4161643421283
94.4284702677473
94.4284327698977
94.4614655281078
94.3657594245464
94.3194196320368
94.280906183461
94.2420841632407
94.2760791318654
94.3512817442974
94.4264352368456
94.3659877707104
94.3024835269282
94.3519782455172
94.4014907442634
94.4161839139407
94.4516946533537
94.4277763318358
94.2921755160576
94.2050256926474
94.117801327556
94.1217509288909
94.265018724189
94.4618499467957
94.4482541339945
94.3796359430975
94.3450780314388
94.3821374388208
94.3489930751893
94.2756419293998
94.3291876804103
94.4182524871431
94.372965060482
94.3957336286845
94.4582729719173
94.514542321076
94.4533963973658
94.3466659010162
94.3018409894297
94.309772520568
94.3597330994641
94.4963577954292
94.5181934501427
94.5086118661074
94.5630232629309
94.5361254008061
94.2583436007104
94.0188042189739
94.1712186254445
94.6175343062562
94.9144980947015
94.9495252343923
94.6364965582625
94.4253497660949
94.3969211114073
94.2757199041212
94.2596453828085
94.456870793051
94.604826800713
94.6992302880906
94.7044378896942
94.6048060408182
94.4845027859066
94.4570760020773
94.4534707070777
94.613779114301
94.5975768690046
94.4658992987785
94.544860755218
94.6774830022868
94.6941452629046
94.6958761225217
94.6777999166334
94.5182012507502
94.402410412733
94.5027829285242
94.568096684628
94.5676999676344
94.6616369478855
94.7692241884773
94.7719088359122
94.7375772112856
94.5522864476314
94.4562040492512
94.6200945371319
94.7508424228258
94.6625805315321
94.575729160627
94.6612863774594
94.8077487829346
94.8461134709787
94.7218649337096
94.5248299703917
94.583377858187
94.6605291803414
94.7481158889904
94.8487754372565
94.8601163455015
94.7357773119657
94.6693459390989
94.7206320863926
94.6372124773966
94.4968157204407
94.5333520171723
94.6008095956878
94.5962537120756
94.5320380128709
94.8197633478284
94.9892909970248
94.9163187554398
94.7801505286775
94.6821595415441
94.7215194881775
94.8780407805006
94.8066760919654
94.7419598988187
94.855970646701
94.8619899341482
94.7806544248912
94.8462123104303
94.8394227621088
94.7619559774095
94.6869614428848
94.7043334402237
94.6955129925038
94.7885450919287
94.9809653182139
95.0363090655243
94.9902895323737
94.945935941219
94.97212100515
94.9595547941143
94.8426772561931
94.7710316352352
94.7234360623129
94.7508755501362
94.7520987767245
94.8984144915626
94.9923566195697
94.9657116977489
94.9043814691475
94.7631012555992
94.6169673642453
94.5946739084693
94.5729811174676
94.6865007134323
94.8654163746664
94.8859679236943
94.7469304255825
94.7227873369196
94.7119993315463
94.58647651282
94.4479784653857
94.5038100774923
94.5378200247831
94.4485163370191
94.2831098842925
94.2330773361485
94.2318090588224
94.3033749064259
94.2818928870452
94.3443035625152
94.3702710109558
94.1581426875503
93.9258005390629
93.9421314911587
93.905179711482
93.7596033511234
93.6940252592779
93.7772058721555
93.7783658256222
93.7565031318285
93.6489350561337
93.4245801746831
93.282676272083
93.3442012433232
93.3777752240949
93.2881356563674
93.1100192420719
93.0971179867297
93.1667326303957
93.0520421842363
92.7896743201289
92.7197233276639
92.7203325842268
92.6691017298966
92.5169544532985
92.4374549800267
92.3841313408743
92.3450543170052
92.3031549948127
92.2209413159693
92.0327171055775
92.0344299354358
92.083679626367
92.0988031383446
91.9450116392923
91.8160489928865
91.6398928451184
91.4880330532652
91.4080371094916
91.3430351833741
91.2639155400904
91.4375861241963
91.4963116107883
91.4095437835375
91.2764785263854
91.1746800565066
90.9718110820167
90.7400122250469
90.6667397559686
90.7476321080488
90.6172829246367
90.4545613879328
90.3572998044799
90.3405092880859
90.2824278516866
90.2191434042518
90.0638378543098
90.0412763452233
90.112378758379
90.0838992238458
89.8612490262872
89.6617318491186
89.559820288631
89.505707984753
89.44543955116
89.5265372712069
89.4660247331372
89.3049204277979
89.0984761779986
89.0354883406612
89.0708529678217
89.013350352424
88.7886422950581
88.6666676062407
88.6050467934483
88.55412442622
88.5486067392209
88.5734791017445
88.3710499194193
88.2179344973496
88.2686366967186
88.2855710142612
88.1210173801387
87.9514668238322
87.7918474437886
87.7543106576374
87.7536097503822
87.6659779636868
87.5526208555851
87.4966848037232
87.3237189938816
87.2363260825323
87.225304551737
87.2013039337985
87.1681845988393
87.2479402536679
87.122919378125
86.9164684724779
86.891168432889
86.84268581794
86.6148337849673
86.5123905083587
86.4370997803697
86.46489607385
86.4526415699124
86.3905362631604
86.2742887748467
86.2029540500155
86.0579807264456
85.9391203123614
85.8496807734079
85.849565945432
85.8225917811613
85.7914309740478
85.7918748226059
85.7796137362482
85.6723289754052
85.5556125278576
85.4471993734509
85.3910834236414
85.2759668542811
85.2485817971166
85.2444805047973
85.3118321270296
85.2788252415152
85.1450041544971
84.972197308077
84.8957288583032
84.811385139426
84.7789519127438
84.712285196549
84.6760846409997
84.6541069874861
84.6386766616378
84.6039470363303
84.5233966492102
84.4767446043998
84.5179028533511
84.4458136971975
84.3678232614899
84.2796662653742
84.2778336767789
84.2140209675085
84.2341544634248
84.1485574867927
84.0257813046753
84.0245711681583
84.0998639225907
83.9922867775301
83.8961948269876
83.8647418508419
83.844168407933
83.8115051073966
83.8608943732676
83.8784427724029
83.8909735212283
83.7991718182597
83.695352633524
83.641378222268
83.6014380156324
83.5130419284022
83.5621130004367
83.5936360144149
83.5569066915476
83.5900316000276
83.6775417728219
83.5859699158976
83.4704894008787
83.4018625203243
83.3642514480158
83.3166233300345
83.3095360691209
83.2989390485957
83.4179751600552
83.4086490622089
83.299679207426
83.2912105102654
83.3993616897888
83.4074789302899
83.4029023390511
83.333846812004
83.2993273543453
83.2546155046957
83.2378715930815
83.2313199658268
83.3126456224348
83.3534913029794
83.3092601432166
83.2104770221439
83.1675216665312
83.07643628548
83.083552246166
83.2395841091567
83.2763042558215
83.1308063855443
83.0881451747487
83.053784220627
83.0826821818241
83.1510344030664
83.1732444928151
83.1572677919313
83.1771209040254
83.0418007413398
82.9303864696714
82.9044280510031
82.9602164463197
82.9929465085776
83.0799702343378
83.1125102697015
83.0747852041936
83.0447676383868
83.101556463691
83.1259713086546
83.1567251255642
83.16148112278
83.1793617511259
83.2089078191978
83.3042053093377
83.3311804970853
83.2469649026082
83.1627791810325
83.2049088210234
83.2810248598717
83.3426411269463
83.3198704855252
83.2971566133858
83.2103960737008
83.2887381934185
83.415650975758
83.4864867177538
83.4683302876652
83.4069082320878
83.3903612901233
83.4622048544293
83.4443287397056
83.4729455512849
83.5010851300642
83.503380429946
83.569564014474
83.6468070187851
83.6129588135068
83.5922043947854
83.6484901506934
83.7828507920326
83.8085237103245
83.7895547726947
83.7843301082676
83.8209361107719
83.856194790286
83.9268631767746
83.9614178768852
84.0240073747025
84.0594182166408
84.0003621812493
84.0080718525466
84.1182470989281
84.2663467300446
84.3548218992158
84.307113122085
84.3385044363518
84.4176249507906
84.5332445327877
84.6966512421306
84.7851691843955
84.7025873989069
84.6523729742191
84.6505800382765
84.6908306504962
84.7742772425104
84.9357227418982
84.9233186366323
84.9321282231115
84.9699952895389
84.9626320873383
84.9502951923323
85.032746605893
85.0995044955492
85.1850908155167
85.2299506462438
85.3169920647719
85.5153475559485
85.6037013854684
85.5083237800322
85.4626292447229
85.4433259286785
85.4795194915151
85.4969218599437
85.5529119919461
85.6269274307052
85.6611072106009
85.6700176419003
85.6737863586934
85.6580444697229
85.7199971792665
85.7251482123318
85.7725930489718
85.8469394060208
85.9189063380617
85.9452718843182
85.9393087785769
85.9716361870378
86.0953270269877
86.1361183388526
86.1386130796181
86.1036284102885
86.0486890238962
86.0430124253524
86.1261344426748
86.1217373165158
86.1569068758046
86.1798649464798
86.1720294451157
86.1452174666868
86.2564458074483
86.3719275782591
86.4205486251718
86.5273403502476
86.6109771692897
86.5744744254755
86.583162739975
86.6454481258307
86.6599383857125
86.6619256465429
86.7163726761836
86.7561381935218
86.8794260845234
86.9138024042824
86.9058897422657
86.8894259444059
86.9399215498761
87.0230537190764
87.0669655844378
87.0413049836798
87.0685192958567
87.1357447217618
87.2567166231942
87.2626274788261
87.2011935470961
87.2095220049746
87.3169895731291
87.3361491524076
87.3034185516434
87.3204088972152
87.3123035887403
87.2650113426008
87.2911666788735
87.3122836131495
87.3254762665283
87.3664334331909
87.4024582983556
87.3349803706224
87.245378697236
87.2428093102676
87.2136408686047
87.1496014319807
87.1211266485075
87.1021547783876
87.0767124338993
86.9800951610564
86.8764487399237
86.8069281451353
86.7885113086507
86.6851260240648
86.6486575528344
86.6452905416024
86.6493467353994
86.6029038290269
86.5394763752758
86.490762854744
86.4459824924977
86.4043418519223
86.3726928912904
86.3778768140685
86.4010364749063
86.3315087530972
86.2042656833476
86.0918061685853
86.0028436033147
85.8961248178752
85.935365223614
85.962790016637
85.9412717036069
85.8666395487547
85.8109964407036
85.8003221247808
85.8524241569934
85.9209425354305
85.982089236641
85.9937160061129
86.1077753130591
86.2188766735357
86.3325635921092
86.4049171040266
86.4364313743676
86.4479480459916
86.5147820229306
86.6235389845158
86.6785376943805
86.7259195031804
86.8461314577615
86.8920998900637
86.9396540196428
87.0274693013347
87.0649912243993
87.067117499958
87.1130352455918
87.1801076181327
87.2149279575015
87.1457505044945
87.0654699724131
87.0655387144314
87.1157141066979
87.1652700162366
87.2431551041874
87.2552566932593
87.2598227441806
87.2676054048953
87.3430100318448
87.3706320206818
87.3743551181368
87.4824761617445
87.5851792458526
87.5259843244316
87.4916232670079
87.5330256424075
87.6375362932451
87.7589142910201
87.833473087817
87.8899169480868
87.9849417297447
88.0609629498011
88.1604970797304
88.2218663027643
88.2238202480291
88.2513677743205
88.3553349233433
88.4189056916234
88.4538390552471
88.4805449203426
88.5265142579686
88.5914065926685
88.6484967760409
88.6864425755111
88.7147419986601
88.7173844045796
88.7355698959679
88.7947597752464
88.810130642826
88.8354155440297
88.8787510483855
88.8898752988346
88.9620997417966
89.0178414595815
89.0441537117905
89.0831758276616
89.0923550236818
89.0974632710898
89.1817212070623
89.2305195554442
89.2206303800605
89.1898381644355
89.2319863452549
89.2600505973568
89.2642857040485
89.2927806938518
89.3492828993839
89.3678161919306
89.394125086728
89.4165905945969
89.4311249473796
89.4371889668182
89.4374725518763
89.4521448194544
89.4337390701528
89.4666589140366
89.5238542323452
89.577206762151
89.6202614573059
89.6111261492623
89.6138846467047
89.6736100349843
89.732702427409
89.7235363835974
89.7281511890562
89.7545671304272
89.7559990834378
89.7452536086521
89.7575961900457
89.7785255902338
89.8048392029157
89.7963124852657
89.8202465307493
89.8773222688059
89.9336016480788
89.9660073500359
89.9619066353013
89.9718208844378
89.9964964599944
90.003519525243
90.0347955596731
90.0339543567504
90.0006880444226
90.0148794830016
90.0747741941505
90.0723994424015
90.07083972678
90.1077181543437
90.1582692351776
90.2001883936037
90.1963019685771
90.171841343345
90.2393294844899
90.2525767561338
90.2233474948151
90.2416760500101
90.2709190719632
90.3198591520548
90.3632356043285
90.3601578681823
90.3377386549509
90.3439950330025
90.3847991115704
90.3917696170015
90.3955107255578
90.4177927725259
90.4146359720462
90.4302539934523
90.410662167037
90.3861247691209
90.4298378675779
90.447620247523
90.4607826028158
90.4720241675316
90.5485295931034
90.5943759380263
90.5497574189306
90.4920014652065
90.5188317952662
90.5774460314033
90.6122596267906
90.6790772497254
90.7209250212604
90.7424401655126
90.7700005230345
90.8079284243565
90.9008255018608
90.8999795359243
90.8621240703284
90.9038820875774
90.9560153638954
90.9287736450073
90.9243627142498
90.9723973908352
91.0057127137703
91.0549854869088
91.102847117825
91.1018213491261
91.1295102781847
91.1984557894986
91.2098728596775
91.2273555565556
91.2912830508227
91.2731055744629
91.2847679486217
91.3846748512221
91.4369545788535
91.40117857966
91.390225627982
91.4852924871406
91.5664367908663
91.5003707450781
91.4979423674991
91.6007292804382
91.602092923444
91.608469584956
91.6148527421838
91.5734778446361
91.5969834571627
91.6217039135186
91.6497369857216
91.6575541214661
91.695868097818
91.7554698846472
91.7706648599978
91.7735343753113
91.8339702542974
91.8533245422684
91.8361427734447
91.8670195175294
91.8780812524987
91.8666177078581
91.8351509542027
91.8524109935964
91.9037184883256
91.920329803738
91.9143309399008
91.946072012987
91.928289905354
91.9423813300897
92.0363596135983
91.9500071455128
91.9403770481952
92.043000679371
92.021358806041
91.9886510202552
92.0255585172752
91.9557302377341
91.9049294200286
91.9767891068611
92.0732343696752
92.1458273386628
92.1823020361428
92.1898966138074
92.1771055110409
92.2176155630017
92.2066704039151
92.1536844236578
92.2027071064063
92.2016357114832
92.176426038505
92.1816484193236
92.1537367616107
92.1922203593196
92.2379927186802
92.2836155779017
92.3062063600511
92.2272085085016
92.1841910923371
92.2326354036461
92.2526983236132
92.3111483600498
92.3701046653083
92.3065367953868
92.2885219018641
92.3741825401024
92.3212345199771
92.3122098565951
92.3553755319156
92.3215752806211
92.3146730799758
92.3473734723157
92.4277103737584
92.3970110002338
92.3580271357184
92.3798614144497
92.3960904040248
92.3779408756396
92.3647711305717
92.42978121711
92.4570711023375
92.4676857146486
92.4622014780089
92.4500617500528
92.4897685692005
92.5324408963845
92.544704645754
92.5384295701785
92.5447865248666
92.56625449637
92.5623844651931
92.5410181478021
92.5266615552952
92.5229316347616
92.5177160735833
92.5507703500577
92.6055408825487
92.6334868739216
92.6054783168459
92.5455203618952
92.5201823971702
92.4686730219348
92.4613340333641
92.484849918272
92.5052209219318
92.4724813523826
92.4992821285279
92.4812261149279
92.4053931427948
92.417871969425
92.4067652147646
92.366997321776
92.3600373715169
92.4643309169885
92.6455556233839
92.6274865418604
92.5897972779854
92.6567511646476
92.7571459862523
92.7579604250126
92.7250128411514
92.8109798276519
92.8638254743774
92.8629329638425
92.7790583499605
92.6000645364724
92.4675399868593
92.423201691556
92.4532606178555
92.4959162993922
92.4842708581251
92.5233296293916
92.5185908225433
92.5217575383539
92.5685856251943
92.5835306474267
92.6035907094374
92.5009420939649
92.314341582005
92.3190828335035
92.467512901672
92.5291899443064
92.5112169809972
92.5674305241368
92.6150996104406
92.5924748173479
92.6222681819361
92.6942603882138
92.6339808023598
92.636148575846
92.6793911107581
92.7333830209272
92.7929694543081
92.8131731389077
92.777965621322
92.7442679957215
92.8151561825365
92.8613670744025
92.8138521623911
92.8972397997779
93.0273420208512
93.0413067639984
93.0336381196454
93.2728296437681
93.3401372763727
93.3052133843294
93.3606989073812
93.4523606186411
93.3815402867754
93.3458042486918
93.522463819101
93.6513263179749
93.7098200786457
93.7648436353135
93.841670718173
93.9352708325622
93.9212361392936
93.9108580791439
94.0939723087838
94.1925962906032
94.0579369585975
94.1718044877484
94.393393863304
94.3554986310342
94.1557492014578
94.0435505019482
94.0815158525091
94.2483579157647
94.2660468625188
94.3450609430964
94.3890154327906
94.5154767770602
94.5855449528516
94.5371853014896
94.5989242983241
94.7535395186791
94.7008161012182
94.8140005241188
95.0324913716202
95.178320053145
95.0218956905159
94.8796373348173
94.8584843716182
94.8832230583885
95.1710486521599
95.4134679667898
95.4082132263223
95.3795950389179
95.1241127117854
95.4326345573121
95.8287942459434
95.9549075245519
95.8390586365463
95.8848698902224
95.8553572388597
95.876439425001
96.3396776369606
96.087311841012
95.7117701011115
95.9706188898065
96.1075534637649
96.3175462409585
96.9275749026754
97.1976865650947
96.9886068854538
97.0765136193461
97.6283417092175
97.9800788905034
97.4399179371545
96.867283845993
96.6464317931162
96.3785586154395
96.3133521238683
96.3189394177691
95.8527474035771
95.4674390869184
95.4534388103453
95.6891699661827
95.7306834488762
95.4788489582168
95.1834914452654
94.9374152961331
94.753755260275
94.8121768482716
94.8294368817086
94.8273004856906
94.7165881852652
94.4512805341602
94.2512168690185
94.2691297591438
94.467131573785
94.5358454857301
94.411515441461
94.3722083614783
94.408363685328
94.4026884079233
94.2883519041531
94.2922337693477
94.5317167420184
94.6286844696296
94.5297878925634
94.6350255332755
94.522983098374
94.418538604975
94.4102342460614
94.5683446812149
94.6951249362705
94.6918059056727
94.6243239208646
94.6226277685417
94.6879127163483
94.6874002993675
94.6055499126044
94.8835511612252
95.2159213797251
95.2768282215134
95.2392994495558
95.2225479646413
95.0290901393008
95.0489236508736
95.1428905447586
95.2848247755918
95.3350147597797
95.5304339996575
95.5715209665711
95.6774974694613
95.8000792512357
96.2035167553911
96.5598038537392
96.491006081248
96.5779664742021
97.0389228331711
97.1111296947493
97.0543861076494
96.9120271277105
97.0999014809198
97.3594126753695
97.38902314192
97.3135406490719
97.1525477529992
97.1731984938524
97.294997448324
97.1972217512005
97.2649004232164
97.2240552712121
97.3609640628078
97.6464435673297
97.281956302671
96.7082674319256
96.8330190337152
96.5799388062003
96.284189898418
96.4176719084743
96.5764761357505
96.4284407163994
96.3006474832
96.5211061776593
96.712915096531
96.4220639039774
96.3730483173118
96.695130550177
96.8582177485108
96.9498946165039
96.9803171296182
97.0877744123062
97.3094175336104
97.2617564072967
96.8721227888336
96.3473235716164
96.4594128571185
96.9616007093102
96.9977567834783
96.4460878787824
96.3170709119623
96.3583904107296
96.4290714700517
96.3119214677579
96.1419424063398
96.02318270602
95.903873315007
95.9103062438578
95.9356889654212
95.7132208071453
95.5474153327956
95.4460332735618
95.4120962797957
95.371465603043
95.4273585388872
95.4016855186263
95.271688871884
95.2785757160033
95.3564623009895
95.2992735732248
95.2458544827557
95.1615484709056
95.0404426651998
95.0452038501429
95.1016141812824
95.0006113413687
95.0192638153316
95.0559692153387
94.9748047732646
94.7966280876285
94.7774315890167
94.8060068961189
94.8879427568107
94.8664853797118
94.8653265232738
94.8224027335233
94.8136645435002
94.9197173736082
94.9769712381781
94.9059761698953
94.8743875235642
94.8405277910442
94.8326287554977
94.8517670695274
94.7916591256625
94.6886873353232
94.7412737480664
94.7505211113923
94.7119704526756
94.6255965154
94.6742248846883
94.795855621338
94.8278359834538
94.777303906954
94.7767322979525
94.7531437612636
94.7639191894771
94.7778491196302
94.8304185787728
94.8122818926585
94.7338404426021
94.6532179206529
94.7048302213876
94.8732283048635
94.9153285340121
94.8290348273049
94.7749498811929
94.7429370379237
94.7296475391155
94.7000051821792
94.7381745456919
94.7596542763987
94.7315042938335
94.7915583549026
94.8528306117515
94.8333236457165
94.8270365899599
94.8340179655698
94.8545004625726
94.8011347326481
94.792904618864
94.8031489419072
94.7752239441271
94.7317844945545
94.6824834741353
94.6818586537879
94.7604851093366
94.7903235133617
94.7581557854149
94.658273642586
94.6077466603273
94.7101247824955
94.7163221207869
94.6126399969647
94.5923674772157
94.5818044389992
94.5166188574608
94.4765467395463
94.4381283870066
94.3462294571952
94.2457864557439
94.2692387806935
94.2932843970696
94.2052877442402
94.1900018846626
94.0469016835621
93.9114632619452
93.9215570539303
93.8716080351609
93.7549618687677
93.6962446961832
93.5634178543962
93.4326556667911
93.4075426508449
93.4082035788124
93.2931860727583
93.1551997015618
93.0362735622128
92.9126292953325
92.8518959387896
92.7057161844736
92.5208567786053
92.6492794111164
92.5873095843301
92.429813941267
92.2519272267199
92.0629521242283
91.8606878594646
91.6319685057076
91.3231906010404
91.1264139320162
91.0280162321293
90.9350784945214
90.7467278594433
90.4283771782694
90.0575512591518
89.7383125862749
89.4902288537514
89.2210695806269
88.8137923388331
88.6311272204887
88.4178817802209
88.160511583795
87.9050136820858
87.491797267338
87.0027920200732
86.5890714344248
86.1426662410231
85.7621915754829
85.6629764482559
85.3749989550479
84.9326965223417
84.4249148815686
83.9289389779733
83.6594722434784
83.2683710142802
82.8860727310671
82.628886083383
82.2983412084022
81.8444091097014
81.4757316812647
81.1468918600345
80.780875901014
80.2914002240079
79.6581281098711
79.3527447517489
79.5846225332759
79.3363755437444
78.9530560836635
78.796232015841
78.6519608873722
78.3538860861818
77.9506870989445
77.5031519319851
77.2097823599956
77.3134005005118
77.2925402934356
76.9880825325737
76.6659950540578
76.4480809007035
76.2302386970013
76.0454260655134
76.0124745880595
75.7971588454885
75.4779046670738
75.4195311730282
75.386689842463
75.1370824193987
74.8529937644577
74.6218649556802
74.4716735444841
74.2705399310767
74.0833341836538
73.9001518642809
73.7322103121602
73.5391239298518
73.391116545037
73.2593358106626
73.1524731847385
73.0327536772374
72.9243472296861
72.8169972028542
72.71013896072
72.6043486001866
72.4933533977287
72.1855815476004
71.9856321590671
72.2615097832114
72.3011756467541
72.0081275085481
71.9244413771092
72.0441162383136
72.0104844460064
71.918161812677
71.5763660090283
71.1268597455007
72.0162188593248
72.6932778640112
72.8323293570004
72.8859351484529
72.9010154980932
73.1021712460665
73.2098321928409
73.2395850677607
73.3686647032933
73.5203250399881
74.5206240568863
75.4460876424695
75.4297303118724
75.4334811393744
75.9956389716904
76.2897442039826
76.3630803922524
76.5510159861047
76.8109203277177
76.9158553915252
77.4819248144075
77.9729112251762
78.1352821324757
78.4628878634697
78.6183031248922
78.7053460923524
78.6401501556947
78.5429426962286
79.6180422376375
80.5299405665248
80.575991014644
80.4431027411121
80.4575427691897
80.84978508871
81.4350750361016
81.5515557850415
81.4506698164824
81.7691867541669
82.2704037499459
82.602756169193
82.6768285498188
82.7093615314636
82.7802121457293
82.7056506630716
82.5775886540636
82.4485088220763
82.5011304978292
82.6666749999532
82.4267045663136
81.9881794930885
81.6578990825142
81.5824093930745
81.2964427458411
80.7613709956553
80.4492859126689
80.8005851463592
80.8551033723353
80.6049966124592
80.2939224622453
80.095729866561
80.1145456513876
80.0841498247831
79.9648206069707
79.79633924122
79.5239755688932
79.4018676727569
79.6119482821203
79.5417018147405
79.2531295849083
79.0095512567305
78.7841351960917
78.4303259398536
78.086300284186
77.7342233948318
77.2443030266059
77.0187665690242
76.8805136481768
76.4958501094865
76.0453992376094
75.6280641969971
75.2481925509736
74.862920862154
74.5630600469707
74.4085022329162
74.1821721946586
73.959095888854
73.9391663995715
73.8514586080869
73.8915509230873
73.9729214503442
73.8739724944572
73.7270524912654
73.8198322881876
74.0190420272446
74.076812032442
74.0766171003432
74.108265984645
74.1750594114517
74.2333211627988
74.4772507873469
74.7425521353382
74.8568153545927
75.014454537318
75.1786024008387
75.2697134317108
75.5034922921398
75.8544598497987
76.0972078032798
76.263661604196
76.418998592438
76.5924083710291
76.7563298232147
76.9337396556468
77.1408579661629
77.3191983792744
77.461334493499
77.5554207703638
77.6742520952437
77.9245811462938
78.1303571818547
78.2592810668629
78.346510996867
78.4402272644602
78.5250766802757
78.5938923507586
78.6488038183526
78.6923459707687
78.6952616099906
78.7129612816753
78.7931260428628
78.8557121441915
78.8733088453675
78.9193005635609
78.9693969911624
79.0301209325559
79.0765713114845
79.114215543324
79.1834079312318
79.2806380181291
79.3686987559823
79.4637644435867
79.5837189266027
79.6976843838596
79.7811421687982
79.8533541338657
79.9382328784621
80.0158728416801
80.0697768046586
80.1264961635889
80.1585862209231
80.1638670311126
80.1537874061727
80.1476785825022
80.1388096546059
80.1354296695542
80.1229512146326
80.0893702749662
80.0430984112947
79.9952821641339
79.9331683361542
79.8962742857415
79.9030121090173
79.9052388298457
79.8756290337109
79.8264345634323
79.7820330557672
79.757632159724
79.7323591056708
79.6999439837261
79.6662088407773
79.6439317418615
79.6385994793148
79.6412172992796
79.6375710517494
79.6561244391689
79.6792018531696
79.7167985040154
79.7440297586925
79.7852434773507
79.8713502232918
79.9672184450489
80.0434517240052
80.137826967884
80.2478448626426
80.3340186395359
80.43485246225
80.5590156460672
80.6771572531511
80.7986465017571
80.9137599358772
81.0369642728577
81.1807148752866
81.3324416324729
81.4834329939151
81.6243982934068
81.7500993638027
81.8615455384866
81.9812016477837
82.084531867965
82.1361608423779
82.1728072061986
82.2147356657889
82.2139394853225
82.2009791745336
82.1906645734106
82.1076182665407
82.0265699922736
81.9657230958054
81.8733121392483
81.794273227767
81.7226641190819
81.6333895083016
81.538584648311
81.4260452058644
81.2978579764776
81.1511636725894
81.0161221369673
80.8800084364121
80.747487852623
80.6296575320646
80.4769132184819
80.3133751442832
80.1588571088308
80.0058692643136
79.8189259892275
79.5949442048797
79.3859649991578
79.164959305812
78.9216105029806
78.6705139047506
78.4461736667671
78.2426068013557
78.0458946145885
77.877792500724
77.7132433814793
77.5613557616892
77.4499608092723
77.3403442841822
77.2191135756114
77.1144797368217
76.9810394522692
76.8194285126126
76.6505882734596
76.427619880183
76.1990471858909
75.96684521961
75.7059112963087
75.4348784002246
75.1786481743753
74.9190121412545
74.6654109389222
74.3951409832863
74.1239981145015
73.8664911397698
73.6425564822471
73.3930765385618
73.1465735682965
72.9071003541014
72.680829690615
72.4361480314927
72.1776345425083
71.9165682376172
71.6911520967063
71.5000575321535
71.2957979368641
71.0851555216418
70.8863366750786
70.6676087702696
70.4598836032173
70.2772156975585
70.1035874280963
69.9177073846211
69.7642279617875
69.6233497488374
69.518435055799
69.424021308248
69.3240362430107
69.2266247127406
69.1363328603031
69.0826153489936
69.0615030606682
69.0157743840825
68.997507323978
69.0086645306161
69.0521493880101
69.1207278649865
69.2150629504852
69.3274569601507
69.4687744492877
69.6352947128878
69.8203313121324
70.0148297143127
70.2357945341871
70.4899578131071
70.7916887570085
71.0737934458068
71.3633941015776
71.650370984195
71.9180813724586
72.195465215283
72.4521265817466
72.6972492866054
72.9703990068342
73.2070596558623
73.415034948423
73.6330169582874
73.8254369284808
73.9784447282392
74.1259950516646
74.2760697327653
74.4286179569683
74.5716528804675
74.7411068541362
74.934059945495
75.1268494022967
75.3204970559862
75.5639916616877
75.7913527136354
76.0075926124554
76.2140307432301
76.4314030998323
76.6475495713893
76.8602018516861
77.0768144515104
77.3144038272102
77.5435352436979
77.7525790284945
77.9255298506487
78.0942293599832
78.2805724567573
78.4863725889446
78.6698638682101
78.8446720576285
79.0360083328798
79.2108022204637
79.3325493945232
79.4711211784533
79.5906739249314
79.6622844661168
79.7201096851212
79.8082731533621
79.9105694345747
79.9850045609732
80.045617984802
80.1314517675577
80.2098721618839
80.2994682721582
80.4013596423494
80.4853854206649
80.5829907386344
80.7075058420044
80.7809305282153
80.838091977775
80.9190068026637
80.9662837317536
80.9892812569346
81.0161368269015
81.0798019857879
81.1255195135007
81.1653940194893
81.2153249967119
81.2255058064135
81.2562394409867
81.2766164233803
81.3058320512742
81.3087210542015
81.3172035444818
81.2806368358164
81.2890986045668
81.3441060207183
81.3759975020337
81.3697333823795
81.3656720048635
81.3612816061708
81.3560394149211
81.3260565396072
81.3436791201181
81.3493536910708
81.3041000947587
81.2752491840423
81.2117636572875
81.1093240113248
81.0020688127141
80.8937019348606
80.8006167834543
80.6862871722333
80.6098256776161
80.56566427858
80.5158722455503
80.4641318377956
80.4226447826313
80.3876916995965
80.363978560063
80.303011484181
80.241574641711
80.1839124727337
80.1096265134501
79.9953973193604
79.8971517320065
79.7815925321713
79.6797633298613
79.5968586627797
79.4929964868247
79.3963156323472
79.3632626028817
79.3314025046223
79.3039897891264
79.2446854795316
79.198921573228
79.1571747988841
79.1077622238566
79.0014386989434
78.9132594921674
78.8529099201943
78.8043813143753
78.7461078779783
78.7070658889896
78.6810298778389
78.6364780544713
78.6132819004904
78.6120919918809
78.5458860099682
78.5012932654639
78.4752715689684
78.4164133428872
78.3687036463077
78.3423983488354
78.3076287621706
78.2447896941191
78.1720256775164
78.1234258788866
78.0779364436084
78.0646847105204
78.0168174805918
77.9168346063698
77.8616896458849
77.8467952815357
77.8083267619312
77.7756848418157
77.7441463405078
77.6491169124533
77.5595834789912
77.4890582788561
77.3659874241155
77.3306523201462
77.2391827984949
77.0837931534549
77.0209772912544
76.9384077654969
76.7811653422971
76.7078881214065
76.6027131116445
76.4545673413441
76.3574113521978
76.3138862468332
76.1952404337453
76.0374465384328
75.8695132871304
75.713186600645
75.5334799371935
75.3882880014575
75.2778926981516
75.2148914672117
75.1463154083479
75.0691586648557
74.9934959424916
74.9407663500033
74.8554445336564
74.79239844434
74.7564481004899
74.6575563003354
74.4849611474695
74.3878177504817
74.3506470445838
74.3057338455598
74.182786789078
74.0006178486288
73.7416100920763
73.9321265168217
73.967424392611
73.7706482490035
73.6226505990171
73.4977244431978
73.3917232350222
73.2621810309283
73.2131326866223
73.1322294732154
72.9753051290467
