1798
3999.43349933624
650.420452594757
1
128
4
93.1840822546949
93.1987762045393
93.2073415251299
93.1872303592645
93.1545524185496
93.2254445917269
93.228368535608
93.3229913279412
93.2763509177696
93.1982419643279
93.1946521743107
93.1762957708295
93.1780906495048
93.3085078653866
93.3194420363361
93.261206720314
93.2100675314239
93.2436096873565
93.3085500060929
93.3303866195703
93.2109649403812
93.2445768346597
93.3165536470656
93.3117764784029
93.2896262397563
93.299478900397
93.3367683542084
93.4215064606722
93.2571349771858
93.2010984541279
93.3244612839147
93.3574927709806
93.330049226338
93.428500586285
93.421230502091
93.3517820935528
93.2636729770797
93.2777836088624
93.3390406028201
93.3889830024434
93.315422700287
93.3261882726108
93.3300285570435
93.3711341636527
93.4495780947784
93.4562468815591
93.3864584181062
93.3846411187128
93.4677507766912
93.4987959906804
93.4342399347071
93.3676637013035
93.331563442132
93.4263162744299
93.3821025404759
93.4315585025835
93.4725880989174
93.4220413487184
93.2943712272157
93.3415533518273
93.4667573734653
93.4412877845102
93.4212019115796
93.5566372552262
93.4604467186428
93.4670338288764
93.6082034699056
93.6199839579131
93.5753241136266
93.619818763045
93.5561113389694
93.5800413810952
93.53502087392
93.5488669687182
93.6321955890578
93.6693708292835
93.6238101966011
93.5536253254714
93.3761828820492
93.2998294332951
93.4034320602927
93.6308501790944
93.6697441930375
93.6596251264981
93.6643646662548
93.6637307828116
93.4864777557901
93.4694052331961
93.6689795028337
93.6908580458803
93.5838600932971
93.6757374700099
93.6832732628953
93.7021385520593
93.7590460447031
93.7991152848044
93.6714798669514
93.6516108982537
93.6603248925629
93.6470271951246
93.6412033664604
93.7242726352017
93.8507230040996
93.8703843223978
93.6921506753328
93.6914113989526
93.7052384089398
93.7292068148103
93.7776731192655
93.7971517404761
93.7249738685865
93.6794413668474
93.6218189218963
93.6178385343767
93.6908266779367
93.8260028346474
93.7934331829075
93.7435935871375
93.7640988015934
93.8445309267205
93.8829598727233
93.8985235365799
93.80631143175
93.8058491004694
93.8262474141328
93.8746701127673
93.8490142289727
93.8259017913167
93.871572697141
93.8799110068245
93.9046393531118
94.0219609549376
93.963704261373
93.9625612588415
93.8420191153927
93.6616493574652
93.707861655916
93.8094951102964
93.9477126352654
93.9984341825603
93.8557780506028
93.8775882801699
93.8624307149476
93.7367339940294
93.7825446880974
93.9742768003782
94.0182848365571
94.0227792978206
94.0019215935134
93.9798153179638
93.9950732608635
94.1619546009417
94.1945717054347
94.1397308271056
94.0851746735939
93.9396036282056
93.8330392219405
94.0044133597176
94.0975954660529
94.0942125764443
94.0155062061579
93.9870589907301
94.0159099537216
94.1470410928379
94.1875823022658
94.1869704120559
94.1734073266521
93.9903170736457
93.8829718312492
94.0467670408608
94.1349625722171
94.1226179339271
94.0615750976242
93.9511923447353
93.6252932990586
93.6501323567413
93.7570089107652
93.8540115331493
93.8083886748053
93.7698446396162
93.703511285848
93.6437549016065
93.7056574390127
93.7888819419307
93.5877568611242
93.556621866757
93.7048648141595
93.4733113298204
93.0356735839415
93.0568046116066
93.1080346183422
93.1361058037308
93.1195577471899
93.1202071586553
93.0242656355206
92.9162740609027
92.8375831384088
92.8172740284758
92.6334321775491
92.4382046972334
92.3769540448984
92.3348411587809
92.3626929381613
92.193216084844
91.910161401341
91.9246377676582
91.9160592517581
91.9373445319145
91.8317685617097
91.7261624114995
91.6059364516758
91.5953418783166
91.5290582425272
91.4854575941195
91.3297043586228
91.1942875005688
91.1426346431275
91.091807666576
90.892079263492
90.8492873209837
90.7953935333733
90.6091906718115
90.4127908627121
90.4480553534331
90.4582115226547
90.469113242247
90.3740760871503
90.173311698582
89.9727067167795
89.9185732589938
89.9003748314267
89.8746185806222
89.6488165738811
89.4981717194085
89.5118462303787
89.4644914838958
89.1619811028215
89.1039405804434
89.1980420984045
89.1562842017635
89.0373104378176
88.9344696518312
88.729309871746
88.5852804357749
88.3568493021699
88.354442511387
88.383632906838
88.3882304717016
88.2341033072219
88.073261315494
87.972212590994
87.9038983843808
87.8758097494801
87.8781932055749
87.6494373558963
87.3798291324342
87.3134707639974
87.3987687864596
87.3435928138616
87.233024903652
87.1502921439562
87.1431843643278
87.0269799210446
86.8780252224115
86.6759678523754
86.5783958158014
86.5228024198529
86.5088462030726
86.4283754144206
86.3422223538435
86.2424354848623
86.1904920924161
86.101442357264
86.0470814071907
85.8339844871623
85.6661562255399
85.6699746775925
85.6756251547401
85.4840060574913
85.3272882404261
85.2140215810447
85.2218217538637
85.2113442482769
85.1549353545526
85.0122436143279
84.8705856677254
84.794577863508
84.7026878507926
84.4447340541533
84.4405374258273
84.5447650793085
84.4266678729906
84.2801990082139
84.2839680171932
84.1730051249609
84.0154306965785
83.9407823264335
83.9090996099275
83.7823916391435
83.6816305191162
83.6541848411553
83.6818680622647
83.4939569195021
83.3905919415958
83.3777170465244
83.3527064710849
83.3006289741983
83.2724672079902
83.1190042754401
83.0096504121394
82.9396162065588
82.9523687624105
82.7810047297391
82.6774021227616
82.682087636897
82.7600173497122
82.7444939762717
82.5413168580347
82.3423310073087
82.4099720174848
82.385995165981
82.1544440114941
82.0092818850294
82.0873099878291
82.1031026066088
82.0839544917004
81.9165878069008
81.8783936235912
81.9039501374655
81.830262505688
81.6767005774803
81.6262574515894
81.6322008465905
81.6965459659292
81.7039141675905
81.6219390802592
81.4780958953739
81.4601416260079
81.3743154270056
81.3553757022621
81.3042110340268
81.2910855935877
81.2841657606893
81.2853768524851
81.204986894268
81.1327007757955
81.0257964264488
81.0378442284112
81.0279339190693
80.9921800846108
80.9786073918298
81.0175830016764
80.9918366129231
81.0163132101334
81.0227058475602
80.986496417686
80.8885620585543
80.9329764743269
80.9352892317697
80.8337819837436
80.7284479272343
80.7991189820166
80.83085053082
80.8395554764963
80.8356731408155
80.8208452884473
80.7720713209586
80.7986457829595
80.7820729215594
80.777298886765
80.7835011012154
80.7283448895898
80.6758331812221
80.708693897371
80.7306734804134
80.7342249973565
80.7268566778097
80.8076907062445
80.7493481056579
80.6969622001489
80.6699106418321
80.6410209101551
80.6330102274869
80.6915430788615
80.6599496060042
80.6485489814806
80.6091460573449
80.5864935399932
80.5667774453416
80.6136978874889
80.5969869301256
80.6091519595886
80.5966444484403
80.541111514199
80.4373812535176
80.4750467679549
80.4921901569152
80.5583054265156
80.5729165792607
80.6178933357579
80.5356960962866
80.4705192718902
80.5029687495491
80.576919030369
80.5589307646295
80.5447260225792
80.5130697013802
80.5471320069031
80.5758128672498
80.6522214443994
80.6667469300851
80.6747311552553
80.6635768450261
80.6739132123272
80.6413257593131
80.670885635192
80.5592962912693
80.5449448829729
80.5640147110369
80.5888508661477
80.683904768016
80.752590013037
80.6677499275163
80.6873770430834
80.7013796715043
80.7944356666712
80.8076737039764
80.7702021774033
80.7687874118347
80.8465811299446
80.7809087442936
80.8647823399373
80.9821896003675
81.0273150114835
81.0427391494366
81.0601959720496
81.0169162294941
81.0441623838719
81.0759830010553
81.1055799676833
81.089916310626
81.1247506725914
81.1276183544487
81.2667376535047
81.3206175501666
81.3621003960509
81.3747827259951
81.4300201825225
81.3710448325771
81.4240276656833
81.5462795939838
81.6127663701121
81.6829752263383
81.8173051688181
81.8201232130195
81.814347264386
81.7837279041009
81.8407952022644
81.9040506136074
81.9745029422951
82.0508170388338
82.1555333329585
82.1621707366221
82.1971627212563
82.1952072491205
82.245024387703
82.2315462052959
82.2372569370536
82.3196101243876
82.3952100678472
82.4134547948827
82.5392200404576
82.6143115946249
82.6978215306079
82.7313060762087
82.7321184724876
82.6902221675379
82.735770696652
82.800545149497
82.8574316211327
82.8726059182033
82.9444492304517
83.0067682725498
83.0335429131491
82.9873008424079
83.0058087923954
83.0795257449604
83.2269373485947
83.2863995760622
83.2733048277456
83.2910422251271
83.3948959645381
83.4026120137098
83.3853420907233
83.4217644826865
83.4895331953427
83.5207424091872
83.5724621274755
83.5315086335304
83.5790952271468
83.714744808463
83.8001139235772
83.8408784726065
83.8866660243668
83.8197305941976
83.7790977321874
83.8226383994333
84.0096480512903
84.0796650126632
84.1031747598866
84.1642295802664
84.2215021690763
84.2098769097816
84.2739080091448
84.3697771326211
84.410333379044
84.4134974853694
84.4673099463884
84.5060974554149
84.5643525193424
84.5951289779819
84.6128002988287
84.6219608544339
84.7049863402289
84.7170508492614
84.7928898188609
84.8442151412132
84.8857217787553
84.8823634473236
84.9561483354816
85.0106762171719
85.052372808499
85.0154479739906
85.0524005035007
85.0361122621406
85.0506835977468
85.076281331768
85.0757064915645
85.0441092475819
85.1202041830343
85.1739981151848
85.1390351580444
85.0454925580414
84.9991624892555
84.9113833927161
84.9136077267095
84.979535439033
84.9997395033245
84.9938155817325
84.9750183256835
84.9370793600212
84.9104018888988
84.8355036160761
84.8273904689196
84.7817572924398
84.747869159477
84.7708817490231
84.7679792945404
84.7071890913661
84.6966618493257
84.734373831799
84.818437880093
84.7729534127711
84.7411437965502
84.7961794604736
84.7997662842876
84.6949887663159
84.6581149745136
84.6006654165856
84.560735466226
84.5760466664634
84.564086979866
84.4761382187246
84.5220327563728
84.5736876620631
84.5605242628456
84.5781276931828
84.5906857402273
84.5933105016576
84.6812334089008
84.8256792163417
84.9484211914565
85.0151259889507
85.1184949042855
85.1249390129886
85.1299991746899
85.127270678533
85.2183959026484
85.2832270292361
85.3482734745584
85.4252509030921
85.4876972411721
85.5180530240426
85.5850681848672
85.6731181400711
85.7883374838892
85.7881564836023
85.7633941477861
85.7234518948636
85.7870541717203
85.8010515205876
85.8020257218878
85.8529046505931
85.855697608809
85.9018528662407
86.0032196721343
85.9998970276523
86.0541015698241
86.1025925123548
86.1369576524863
86.1557536363852
86.1745230927937
86.183853901058
86.3107751730714
86.4072276356383
86.391823656599
86.3399930053372
86.4289457192182
86.5438078756622
86.6315539531166
86.6461799519074
86.7048010329183
86.8280497261222
86.9184776041944
86.9423496588878
87.0065228381499
87.0048924130207
87.0547020699268
87.0827890669062
87.1155776076045
87.1814437744854
87.2713774785968
87.2887863801438
87.2903604026496
87.3532631251776
87.389044272701
87.404551620583
87.4203047003211
87.4527293566223
87.4933100095295
87.5603257516744
87.6550956758924
87.6833729048334
87.711421424445
87.7372763144023
87.7599503590965
87.7500803288545
87.7851623857311
87.8594912446326
87.9398989273031
87.9464802717196
87.9130088573007
87.9185902917326
87.9418248207355
88.0011167184502
88.0461531194729
88.0575979442431
88.1080773976513
88.124522654731
88.1927959071746
88.2150418773903
88.1900609759385
88.1842695368373
88.2404811935292
88.2668429120829
88.2898901641024
88.2745089746541
88.2566045311512
88.2811174104928
88.3397468760699
88.3649371224326
88.442154061061
88.482636191943
88.4962023716482
88.4909179485445
88.4866100376084
88.4659376494858
88.4862758505767
88.5397492834819
88.5866053193131
88.5834384331991
88.6195951877173
88.6687977942078
88.7148791045502
88.7106365046643
88.7565027242813
88.7686947929502
88.7620533659963
88.784988587635
88.8031167699874
88.8425438174116
88.8805500871554
88.8705355775217
88.8695563943451
88.9277188456156
88.9726774504169
88.982897099045
88.9799039046352
88.9789324451002
89.0267805366451
89.0570327711677
89.0422410346349
89.0420131467538
89.0775336539404
89.1253144501993
89.2070217415689
89.1981681606659
89.1865273651679
89.2114009724312
89.2382706823897
89.2545096819272
89.2572452979721
89.2618018781195
89.3213813736106
89.3868662119933
89.4114313703618
89.3977115184409
89.4007202408767
89.3944287837183
89.3664480443436
89.3358113386037
89.3828171671119
89.4212601183812
89.4397275885567
89.4573848827174
89.473090674256
89.4811165005665
89.5066232196471
89.5209988434133
89.5434771822828
89.5775778441818
89.6389631048956
89.6737225651974
89.7052374200893
89.7309501544361
89.7503519141566
89.8293686668835
89.9534666850179
89.9493885209985
89.8885447964394
89.9099784167717
89.97494278066
89.9681681123815
89.9907693853193
90.0177930644259
90.016277967348
90.1041894788234
90.184338816639
90.2223154588873
90.2544038644129
90.2432160399103
90.2371773381223
90.2507435622277
90.2696192627846
90.3253266991987
90.3476659313701
90.3532534746521
90.3971886367805
90.5064950071776
90.5926873710101
90.525485246632
90.4894507825502
90.5130226527022
90.6399980884163
90.6391864738144
90.5862115313986
90.6514899630907
90.6942527437133
90.6870649852194
90.7651121269847
90.8093877643252
90.7577832977091
90.7304951570845
90.8301407998978
90.8496843690397
90.8035980123307
90.851759525818
90.9171641232379
90.9622585003279
91.0320349225647
91.0410522701988
91.017618663353
91.0299000295735
90.924351524807
90.914624444528
91.0143454252263
91.0974615047089
91.1993117517646
91.1647054893593
91.0840045319323
91.0611937883589
91.0660728308639
91.1022330325329
91.176935188545
91.1274202874716
91.1631317167976
91.1579989071844
91.1559453855282
91.200882237335
91.2616089120143
91.3144573142072
91.2640346128631
91.2267037263172
91.2902619886653
91.3186759094186
91.2287723259232
91.2288768734282
91.3722385835859
91.4402611418083
91.3806354211525
91.2973611228412
91.3344076496841
91.4198963333103
91.4375417179382
91.4124810892595
91.4452629189279
91.3644441919655
91.3549739444206
91.4918176355887
91.5178868592924
91.4171964579974
91.4471798310055
91.5209871023412
91.5329378240834
91.5329962573959
91.5345057321006
91.5612495715695
91.5447402069026
91.4631217782094
91.4471638865989
91.4805541237746
91.5232658573484
91.5450806802922
91.5869895898805
91.6109945030172
91.6315843237691
91.626333028984
91.586451311594
91.6318533490309
91.6811249912788
91.6346280830682
91.6329318506023
91.6865719797835
91.6840110533997
91.6166343890087
91.6116849749676
91.5935628243967
91.6458592724806
91.7260704391571
91.731811162049
91.7155956793629
91.6353499744955
91.6119318407648
91.7373718146105
91.7727471707335
91.7328931915676
91.6875259375497
91.6760248817268
91.6768596206712
91.6949176847316
91.7723874149087
91.7866103084991
91.7444731886206
91.7094472603549
91.7331770642599
91.7286115858293
91.6691174803364
91.692291080771
91.7645441384781
91.7189452527725
91.7298581806752
91.7497405283506
91.6829014032461
91.6580718615086
91.6662611101025
91.7211582326048
91.9063567344681
91.9698097967287
91.9678997985098
92.0691702850199
92.0196056421318
91.8510413849748
91.777599413835
91.8038991156107
91.8481748531525
91.8488726114933
91.7802800594125
91.6806766404546
91.667035396724
91.7033116838848
91.7906449695212
91.7950244803939
91.7588784772368
91.7386942531828
91.7196513897228
91.7357634486823
91.7363063097637
91.7187719187177
91.5909853449653
91.4495363185626
91.4696541997928
91.5603113139439
91.7002112581154
91.7658795587008
91.7572062331445
91.7832502342428
91.7713395228822
91.7907836385204
91.815573269831
91.841306842165
91.881350505512
91.9019019374011
91.9169159680738
91.915188221851
91.9480454104079
91.9928796603923
92.026639476251
92.0442856790048
92.0696399239959
92.1268788666443
92.1592107945184
92.2187696140683
92.3849478193872
92.3472649510808
92.3104071503602
92.4109963420527
92.4612043095911
92.6307091073034
92.7903206518342
92.7178898710259
92.6404677206444
92.8153440640803
92.9096935233464
92.7611323159207
92.7839481626936
93.0202409946311
93.2491107892678
93.2860761231497
93.1982916351617
93.2397949963489
93.3034593135716
93.3284084350386
93.168981805595
93.2535066247188
93.4756363239611
93.5620323903524
93.8439260649553
93.8341381899575
93.4773955553995
93.5810297550816
93.9300203139594
93.9063439870794
93.9200151208588
94.1577485450894
94.1176628020026
94.0019370013332
94.1991819309649
94.3397416873183
94.2571532361323
94.171908946671
94.2394828423501
94.2423196165692
94.3269324111149
94.3546635447938
94.4887437619148
94.5071752027458
94.3583482003873
94.3766163396903
94.731364113942
94.878775156231
94.8737037185955
94.9534658243635
95.4577249426819
95.4611073904486
95.2362994536383
95.4059524324226
95.5718266362817
95.7598319330072
95.7543919977315
95.4683271913216
95.7380314059374
95.9298961960321
96.0229401963187
96.2505653092402
96.089086059142
96.297573905224
96.5434407281584
96.6102927102456
97.0470382737232
97.0381640435008
96.3368943655425
96.1056344289474
96.2954923422958
95.9345313602884
95.5162972148986
95.3634472129823
95.461146831883
95.3673421732854
95.0290020681381
94.8459922359878
94.8625755891626
94.8380938399417
94.6567444441465
94.5244790461486
94.2805304122441
93.9611750637306
93.896785057812
93.9681127286912
93.8448683452444
93.6993554602388
93.7652348183224
93.8727608261743
93.8374042992023
93.7282040265762
93.6239967832349
93.732829131491
93.9916546704047
94.1128693896301
94.0712982143521
94.0682062389838
93.9972112197073
93.9439642739434
94.0424837658745
94.0019725060155
93.9785916263892
94.0417032549245
94.1168045732889
94.1612862333926
94.2134093815272
94.1660083524898
94.2420263032509
94.2611628737549
94.3412645778668
94.5077981893645
94.4703896470048
94.3917812002589
94.4992310110046
94.7214733268249
94.6541177783488
94.6059075505053
94.8298962462975
95.0001051684882
95.0542739548428
95.2133375112663
95.241774645147
95.2098560706978
95.1973977765928
95.4521773786395
95.904693056591
96.1150123434129
96.3280762516857
96.3753930852038
96.3203538525344
96.4094736805863
96.4116875477507
96.6604477087307
96.8009399180733
96.8839057177209
96.9770619476408
97.0264848209285
97.1783679328613
97.0314275629751
96.7920885735193
96.4714142826096
96.5092075458107
96.6573541198684
96.6678946053966
96.9018368683731
97.0000179778801
96.8944059800847
96.6917106405954
96.5198324783401
96.4616404835247
96.3356489392384
96.1588907679569
96.0379744988226
95.9264265559374
95.8745517770221
96.0976719743954
96.3021062412959
96.4404957970251
96.5652461761657
96.6768437751486
96.8443640524666
97.0464026891329
97.0773406226773
96.8540433065444
96.5966046321656
96.3727205028665
96.4333413020369
96.8631214577994
96.4306521616799
96.0813242062256
96.3055542994824
96.1870113603787
95.9661206904378
96.0196106816126
96.1800462060319
95.9263637428313
95.7099812470334
95.7506569736733
95.6562743680291
95.5684460547638
95.2861534850836
95.2171454352188
95.2326203327831
95.141336119454
95.033489139508
94.9672568329133
94.9879274262136
95.0467031268764
95.1300939722801
95.0724087776599
94.923043149117
94.9439990515337
94.8434592605394
94.8339210997081
94.8385279213505
94.7398875589159
94.5997911907401
94.5828157785809
94.6715742050768
94.6641484030668
94.5794480160408
94.6736872019987
94.7360925485209
94.6244034454339
94.5258186462834
94.5059825507058
94.5790298703642
94.6050920517778
94.5105607816428
94.5182121404619
94.6072713124773
94.5810885876237
94.4950766086163
94.5135772876342
94.5512036936267
94.6185169525992
94.5495680623225
94.5330969253568
94.5972284270261
94.5891770365479
94.5651070674274
94.5866356614053
94.5428551267728
94.5539131600541
94.5130333834201
94.4696275219868
94.5386199746886
94.6041472719787
94.5909335217805
94.5857893117375
94.6098129424205
94.653745893099
94.6535002720516
94.5554122749716
94.56323061069
94.5810301029623
94.5293958546872
94.5630858951392
94.6587341106706
94.6647765724914
94.6375838402172
94.6001189088221
94.5984384525434
94.6378818176834
94.6306214074668
94.6162324211262
94.6169422488324
94.637174871084
94.6175081266736
94.6142863161873
94.6258670777694
94.6239843825987
94.6239015004253
94.622529538286
94.6298831498738
94.5923042863894
94.5437287050365
94.4939922481353
94.4724260656976
94.5116177665571
94.4523358677074
94.3101954889002
94.2195004271391
94.2413084450907
94.2029697135527
94.1325537472782
94.0542088885083
93.9648332079265
93.8799469699273
93.7927070488915
93.70736515056
93.6015254427275
93.4021648306892
93.2629504911113
93.196943292224
93.1449226948654
93.0477376344707
92.9265890087034
92.807750204631
92.7181538538275
92.636819815645
92.6011118995711
92.5284754140068
92.3895827560185
92.2914667129977
92.2274554083027
92.1816363627095
92.1682532192668
92.1105710273229
92.0211795368623
91.930910674657
91.8200089100052
91.5792270612751
91.4241976512373
91.3908194315751
91.2649123882173
91.072862282013
90.8692214522956
90.6674739263347
90.4854838215421
90.27791473768
89.9427073413607
89.5698834601213
89.3437776950236
89.1563696692311
88.9598222316171
88.6884510392101
88.4062135431861
88.1303003032392
87.8761298604684
87.5268461038981
87.1402592299681
86.9157441999685
86.5899729102021
86.3407831859637
86.1314579833735
85.768655122557
85.42632933934
85.0491012410165
84.5583457147822
84.1915367567654
83.9771657216339
83.6569412349585
83.2894001890656
82.8365359941863
82.5021359160281
82.147496800134
81.7219597775686
81.3694121223299
81.0810674997829
80.6797113599129
80.2196462439562
79.9264718735296
79.6740508238435
79.2841286091439
78.6755691331831
78.0520633774315
78.1520202365817
78.0374406992088
77.5384310734466
77.1383910668902
76.9754921164129
76.6875926249847
76.3311278396009
75.8733859897354
75.369466770121
75.1711740986004
75.0959149595231
74.7973770323214
74.3861826443309
74.0255958359722
73.7324461138812
73.4030938159833
73.2051016173186
72.9148740288921
72.4363247701571
72.0805859293043
71.9571099891714
71.64993761376
71.2430089183266
70.887235218217
70.6046597813183
70.2941442991292
69.9727992420623
69.6779756183718
69.398440652902
69.0618646109109
68.7690645518182
68.5211229432936
68.287314729802
68.0371821355272
67.7815599534282
67.5561997042986
67.353032268889
67.163592615169
67.0120586106826
66.6987815298237
66.3530251787873
66.4400545129831
66.5503145717059
66.2858720112738
66.1289765604753
66.2163809036177
66.2188354675525
66.1808322575884
65.9094051242303
65.2130816862201
65.86289288934
66.7923735676626
67.0359595716747
67.1314603682168
67.2855239369554
67.5668572001155
67.7879928826236
67.9061763400046
68.145334378118
68.3531253515533
69.41811684854
70.5564767306174
70.8076769456725
70.9009396361889
71.592960809967
72.0646942258257
72.2939757872525
72.6469117772631
73.040594665437
73.1765174987178
73.8223730531874
74.4622250023024
74.7445280381864
75.2064926050664
75.4893193093793
75.6316293272311
75.6197454070804
75.4096282796366
76.4695042047558
77.5148086019087
77.6795163108277
77.56478706407
77.5203757946878
77.8535601065421
78.4511966905747
78.5722358318523
78.4180896887046
78.6284982929666
79.0708005024766
79.3747683369093
79.4516464866542
79.4503637223621
79.5162937313691
79.4645840988619
79.3492626329047
79.1944561651613
79.189877452292
79.4154790714336
79.2802135277799
78.8631895804068
78.5251532492581
78.4781962175636
78.274812137301
77.7073837472585
77.1559774367216
77.3937498847218
77.5101014480775
77.2308667627595
76.8659481265311
76.556865961806
76.3930584827345
76.2325033818259
76.007537048811
75.7616910735203
75.3880899105959
74.9894415045287
74.984008251331
74.860182234983
74.4771059972132
74.1248138292785
73.8042133091857
73.393080053992
72.9564793573495
72.5259454420615
71.9668066958982
71.60396698519
71.4329649573069
71.041885483061
70.5372108511183
70.0991948544656
69.7197851707792
69.3183406128252
68.9545517303798
68.7554968498464
68.5195767162044
68.2142710995726
68.0350544238035
67.8665973481257
67.8335876752945
67.8969685361579
67.7623466437962
67.5596484952641
67.5764535678431
67.701792780641
67.7367020214692
67.747423466136
67.7841997243619
67.8633810814073
67.9213531014506
68.1422355744799
68.4669852159123
68.6467865715052
68.8219656726172
69.0254649283626
69.1261798779381
69.3757724044543
69.8288401171043
70.1274525962568
70.2989949832973
70.514756670677
70.7828881008831
71.0398308194903
71.3054108588453
71.5820088006985
71.8454730297274
72.1012848807332
72.2749139079875
72.4579557817788
72.7991895998533
73.1327827846492
73.3718846419644
73.5111697244798
73.6461821597372
73.8117836356153
73.9501502744602
74.0655935978166
74.1748570607216
74.2596958509969
74.3399937775173
74.466932077622
74.5872899625878
74.660282303485
74.7762941383154
74.889739174299
74.9689826695387
75.0548157471188
75.1733841238201
75.3073228810132
75.4384985008593
75.5362127554618
75.6647809771669
75.8375135365267
75.9744053438616
76.070579365014
76.1739341637491
76.2896954051371
76.4235425122425
76.5241216204785
76.5848237806701
76.6779161023035
76.7417105680571
76.7909859355165
76.8452268179744
76.8683161062786
76.9065556697923
76.9351411218427
76.9666872258649
77.0043661484113
77.0408914323513
77.0704653912237
77.1017656132048
77.1413641783506
77.190786617623
77.2432283263497
77.2900636713012
77.3360072828226
77.3698382638697
77.3832674461569
77.3907276198412
77.4148072557958
77.4611789407436
77.4946882249352
77.4996273032845
77.5099436753456
77.5259989482944
77.5498103378943
77.5916526032623
77.6354345465188
77.675472336109
77.7087116904618
77.7519604682748
77.8181448618492
77.8925333247361
77.9636679792471
78.0503347325199
78.1363249171453
78.2177644088263
78.3032875622574
78.4054219267638
78.5090115526619
78.6015362909996
78.7065252661851
78.8289432208407
78.9579301687618
79.0632868186209
79.1576975566765
79.2674334349218
79.3688252421389
79.4428170363477
79.500663096955
79.5479032867613
79.5820485860419
79.6090636941969
79.6283751313058
79.6301989793403
79.5981014739247
79.5648551790187
79.5101623867156
79.4498492916698
79.4187640737739
79.3855548939229
79.3323345076306
79.2598437364481
79.1749881220514
79.1005723583969
79.0231793648992
78.9504719310132
78.8667331667321
78.7658184045621
78.6621970627413
78.5472835580686
78.4233956276515
78.2995734447574
78.1659089026913
78.039391478911
77.9066546460779
77.7734776300921
77.6105511366618
77.4404091734108
77.284241671925
77.1284300983251
76.9626272342315
76.8027387797912
76.6466114130445
76.4933541767788
76.361502161062
76.2419019774174
76.1223332342016
76.0022514803719
75.8734818608555
75.7250549816502
75.5733265054084
75.4265414767324
75.2294721440968
74.9970731278747
74.7617701450412
74.5360831533727
74.3055774072293
74.0883294592954
73.8614598004841
73.6289819662475
73.4071720826483
73.1639977749601
72.9296950088183
72.7344290391036
72.5121742450004
72.290382151905
72.0851105840842
71.8879583376593
71.6777035480372
71.4802274525786
71.2671363296093
71.0658184299417
70.8916464447133
70.6820965483846
70.4830946059312
70.3002861710301
70.1225290423059
69.9339549694836
69.7241699941737
69.5328640902381
69.3785764369228
69.2461686715065
69.0788997592972
68.9319590460974
68.8164452954609
68.7139798244791
68.6453803034933
68.5878986252087
68.5348517785302
68.5199836968811
68.528760380359
68.570581893823
68.6349236272953
68.7038527540221
68.7813772225485
68.8567895540462
69.0005581128691
69.1567009349219
69.3167971522022
69.5372208973995
69.7837104342079
70.0322807009599
70.279179032686
70.5621696723902
70.8593554743076
71.1535721163646
71.4433046440791
71.7319564364794
72.0051015281168
72.2924571277912
72.5616271597459
72.8434307878804
73.1126954537718
73.3530091757688
73.5951236314027
73.819998537708
74.0138394655961
74.2008066006644
74.3698461537233
74.5647067058755
74.7898840059245
74.9730580948671
75.1411570611471
75.3682591990805
75.5944235480184
75.8204951023366
76.0409952119028
76.2319169575658
76.4239540937701
76.6257152960849
76.8099737629179
76.9744794999771
77.1495667106693
77.3263531331554
77.4857182208942
77.629772278902
77.8093947266092
77.9967049856397
78.1941929673429
78.354417165981
78.4778222881758
78.6089193136965
78.7339379507087
78.885900045409
79.0286282244158
79.165093373428
79.2624660731511
79.3384872456061
79.400356812045
79.4601048550162
79.5155935391034
79.5975630302564
79.6972987531853
79.7746771702558
79.8038586143112
79.8806159119786
79.9703824973136
80.0432353230854
80.1225113249084
80.1984173791912
80.2619584673612
80.3041543519224
80.3177251618638
80.3481626235135
80.3936534160385
80.4359919026023
80.4722269502137
80.4860422487728
80.479936053985
80.5046094861171
80.5104630214474
80.5039341393373
80.4537105624487
80.3828761565108
80.302591817095
80.2350724004676
80.176244764617
80.1502822047475
80.0943218439188
80.0504472721066
80.0322019928179
79.9905290129856
79.9270074462938
79.9068307822392
79.9121383383808
79.9530291484066
79.9562243656232
79.9199602592449
79.8480553818648
79.7935501080162
79.7237493240963
79.6090739509591
79.4855899999551
79.3644996775965
79.2154636110528
79.091418650363
78.9764809691077
78.8620611383054
78.722329519359
78.5779841032715
78.4822709087889
78.4042011893764
78.2586921308037
78.1145653455743
78.0132529777232
77.9091292192159
77.7698060935093
77.63405724129
77.5023953035378
77.328100398526
77.1370540270932
76.9976676654502
76.9123255167993
76.8433681363049
76.7392215488441
76.6106385364408
76.4921851327894
76.3666031329702
76.2811302394552
76.2073467766229
76.108698135806
76.0212221691697
75.9176328501794
75.8134043313031
75.7126989035893
75.6395683059448
75.6405214038539
75.6173199596076
75.5030597776848
75.4007681513047
75.3120008576422
75.2645792655051
75.1920255733108
75.0957115905129
75.0027811291489
74.9402576080097
74.8762693759657
74.8270968765674
74.8051322361201
74.7620097142382
74.6864788961366
74.6147923252435
74.5297675874645
74.4486343711368
74.3350474624116
74.2669650545479
74.2685997598037
74.1731964993759
74.0018702769957
73.9510133032213
73.8693924763322
73.7603682484659
73.6537217455781
73.5074533431274
73.3800518418194
73.2701338062633
73.1159815038538
73.0013278388021
72.8897309711749
72.763279387673
72.6440013901076
72.5266123977165
72.3664354774059
72.2207864362785
72.0942640795328
71.9663158744735
71.7690765786407
71.5738455234826
71.433935058408
71.3208643105611
71.1806351964931
71.0510288960081
70.9178621555638
70.8440553288996
70.7202835168114
70.6361864357029
70.5672251673472
70.4808997974645
70.3222164829307
70.1786498410807
70.0310152257342
69.9641476435921
69.8815943207074
69.7777355810542
69.6541581710684
69.5004100830532
69.2293064869495
69.3353015213689
69.3252584413657
69.0715136356239
68.9322561781843
68.8273753110735
68.6871661424373
68.5859597252197
68.4926041041268
68.323811390279
68.1419536937381
