1798
3999.43349933624
650.420452594757
1
128
4
96.2655429325482
96.1876587218832
96.1484495864563
96.2191158725104
96.2847953787842
96.2646942482247
96.2037393309452
96.2793134657717
96.4363049456045
96.3787247241883
96.3109118763208
96.3874675404344
96.2843063859592
96.237683951626
96.1403494005953
96.1678146093731
96.270880254162
96.2630148715806
96.3656186826872
96.4641913178857
96.1822632377256
96.1017662846086
96.0456309776706
96.2405359747231
96.4763930889609
96.3079278068623
96.0573227386446
96.1438332694012
96.3027823949864
96.4678413777319
96.4376324529436
96.2995225728549
96.337737244151
96.5117414394675
96.2780654970661
96.1529339270677
96.2481434978843
96.2318143314313
96.3649295290409
96.1928490173153
95.7420596672499
95.8067838430949
95.9503820413316
96.0534842953776
96.1731895687599
96.3964290118893
96.4862640620195
96.43994818932
96.3570308715589
96.4103181555129
96.3552670390921
96.2179555990429
95.8125554762622
95.8047917445358
96.1601245043489
96.0118891797203
95.8983512792071
96.1666192230584
96.2698268633659
96.1375955078764
96.171783918822
96.2351564507104
96.1658648043333
96.3122396852257
96.3259247918032
96.1796313446426
96.1991455023189
96.3046029119458
96.3152362706295
96.3279478057388
96.2521922190723
96.1560368916687
96.090068926472
96.1189854662109
96.2606537163725
96.3561281112656
96.4439804420988
96.566467180728
96.3845615967687
95.9892397548635
95.8622796765057
96.0625313292815
96.2881117193069
96.4374241817697
96.3547666987303
96.2821553621975
96.2581234425511
96.2991720925863
96.1920851149697
96.0648274915018
96.1470463685208
96.2901597664147
96.3628508261386
96.4055323734402
96.3736794180161
96.3939784749829
96.3179855636787
96.2003459379446
96.1223645607007
96.1329324507275
96.2845807983769
96.4155453033182
96.485814595849
96.5996668478849
96.4523237592177
96.2518668993839
96.1988900314047
96.0785862734096
96.0669376038066
96.0684171179449
96.0771677033518
96.2949058875693
96.426801596854
96.3882296755058
96.4440026093606
96.5346566642307
96.4815141760882
96.4122639091435
96.3392849107477
96.3151873573888
96.365039290914
96.4742228781595
96.5297986589309
96.4716671836224
96.3667388268117
96.3952440952206
96.4386531653655
96.4496120296203
96.5742644546937
96.7001310353168
96.693100645365
96.6337946852004
96.5534490686374
96.6228243083439
96.5660690078055
96.2987741772653
96.1817170414039
96.1753740545481
96.157424715669
96.2540548288923
96.2327637528174
96.2293101245091
96.3181632608469
96.4002929822018
96.3573885574882
96.2521826561951
96.2815098203954
96.2966951008612
96.3744243324734
96.502857993046
96.5266824814636
96.4141012583021
96.4288946230956
96.6267011543326
96.5609337667273
96.2829269698396
96.2683357544684
96.3891624484594
96.4742474856408
96.5267601666286
96.5147335683975
96.5821611827571
96.6879437356762
96.6763680204469
96.6405282945818
96.6397960150041
96.5257414937475
96.42111607132
96.4016485951681
96.4062753590087
96.49915094679
96.6607969193204
96.5745510907267
96.5805400182032
96.4916066586516
96.2729832191352
96.2493427031616
96.2940198796414
96.283384407636
96.2733059718795
96.3527293550511
96.4814585891852
96.4636898689105
96.5477155533048
96.6802470235202
96.6084763956438
96.4787583386438
96.3454989581432
96.0341845770179
95.8374222090182
95.9539953215148
96.0955260573213
96.1074154902142
96.2160248717689
96.226875269083
96.2524895402246
96.3606388617395
96.3226861419513
96.1784046581414
96.0444195944232
95.9184612353689
95.9900156889789
96.0009457709958
95.9409158747937
95.7555341789363
95.5909861722804
95.519749897578
95.4747219496488
95.4099249198955
95.5235106607244
95.6208612575251
95.5590858525735
95.4668553827244
95.4287180005383
95.4855086049726
95.4866261798712
95.3584393188608
95.2934611894023
95.2172889494296
95.2476040789193
95.2783315996236
95.278995632461
95.1303375165227
95.0483666765592
94.9348796379759
94.9170548982093
95.0510210742278
95.1441626519443
95.14286639066
95.130384901168
94.9330294673749
94.7152883998465
94.643965444117
94.6568308487243
94.5725079770558
94.5132255703397
94.4436213118659
94.3390360116983
94.4222750620736
94.5676600800722
94.4974706606963
94.3752927317837
94.3811343792584
94.3067734810266
94.128781560582
94.1544893881909
94.1780728601326
94.0393479498853
93.9703471712728
94.0926181381515
94.0544771061577
93.9131011539684
93.8341285155694
93.868820617955
93.8244499264663
93.760860096526
93.6872024499503
93.5721692359434
93.6073546155391
93.7060423041996
93.6802179664605
93.6187593686793
93.6158820378728
93.5971790768484
93.4272401467964
93.250628930577
93.23675096763
93.2814657582389
93.3114401521632
93.2640550837368
93.114635782486
93.1693557823392
93.1256708187236
92.9938112666082
92.9293528728627
92.8305721942865
92.7617014401667
92.7186837362173
92.6348934057507
92.6102553685591
92.5799761511468
92.4912582633701
92.4363057133607
92.4052842622838
92.3099226207177
92.2275390061375
92.1144934627811
92.1404360452531
92.0231558045475
91.9226483590281
91.9501252185872
91.9264273637659
91.8605174171309
91.8201831501541
91.685241464823
91.5128753384597
91.4852571982328
91.4705177437694
91.2863915159851
91.1505963849557
91.0950860783275
91.0763218744961
90.9951338946635
90.8869834431463
90.8319375456659
90.8462843897778
90.7471404123427
90.6673496077155
90.5868137701219
90.4643766370639
90.3072625752836
90.2193699031562
90.187101923415
90.1023461773984
89.8932741567525
89.7704049153398
89.7194482048613
89.6964756504136
89.6554095329083
89.6203483584474
89.4714365389683
89.3094255912395
89.2802114891706
89.2484457625541
89.2028452000966
89.2309745706713
89.1498839885643
89.0754492864995
89.0730183280017
89.0088687282809
88.931153066232
88.9034069348062
88.8863520193611
88.8681210434412
88.7928368055063
88.7698441192875
88.8253129812635
88.8666051951833
88.8223057665383
88.7315270485772
88.7272875287303
88.8292604191288
88.7920985762474
88.7680311086052
88.8425296016588
88.7917162055948
88.7462981664948
88.8580003384822
88.8405167944475
88.7810945111845
88.7542547569881
88.7067362925459
88.6537100210557
88.6460523767039
88.6772019819249
88.6785251675831
88.7018148617742
88.6756780681528
88.640790551299
88.7477815716865
88.8353883054594
88.7639078816275
88.7167800610402
88.7465486286807
88.6537071992055
88.6372603530337
88.6991984079516
88.727394108038
88.6960935208467
88.7811160224579
88.7987122383277
88.770783868276
88.7837524851449
88.7566666649661
88.7068700273474
88.8144452474591
88.9714663685295
88.93099650251
88.916251244449
88.9588495935102
88.9349406803822
88.983847140392
89.0540460935374
89.1369553693076
89.1541972190964
89.1439583847688
89.177072339784
89.244817669195
89.2610575363079
89.3534923648533
89.4185695453953
89.4222672832451
89.4956735510664
89.5793164006377
89.6223431452693
89.70767635777
89.717741143595
89.7234139670125
89.7842083015124
89.8284827023155
89.8468642079455
89.8798350475578
89.8646022628675
89.8344724463467
89.7957664365584
89.8210627769894
89.8814294889142
89.9666633836701
90.0703314432058
90.1060771588542
90.0874984567851
90.1180955860443
90.1257580133605
90.212750821113
90.280607007618
90.3233509942806
90.3969248456075
90.4945696594101
90.5707033049529
90.5901086545077
90.5683805104285
90.6811433735497
90.7275945099142
90.6872856380205
90.8168425024536
90.9642903743318
90.9315855568466
90.9831514634323
91.0791190592732
91.1153653114054
91.0797066106798
91.1731223784293
91.2706376299303
91.3316844064453
91.3730653352472
91.4393622964435
91.5010930316604
91.525975840086
91.5582749862726
91.6250217953985
91.5765102545359
91.5987327800164
91.7835706877307
91.8850447664036
91.8329893474634
91.8594874504578
91.8886464880728
91.9771248849883
92.0904721941396
92.0955783547192
92.1490095600054
92.269848691079
92.2476021171439
92.2244856343329
92.3087953539846
92.3979822946317
92.3626381283596
92.3974207446562
92.470400154058
92.5036875021701
92.5210366390044
92.574085641408
92.6110374988234
92.6899608809863
92.7738454566941
92.8576537932771
92.864063215689
92.9030057837582
92.8824866329811
92.9084399891735
93.0159862280385
93.0304735099553
93.0051607932024
93.1221235411561
93.1917972280202
93.1817348446208
93.1682510989149
93.1572842106452
93.1046149049248
93.1833334707004
93.2350565539704
93.2654861487783
93.3715378684519
93.4266460967414
93.4373230422061
93.482573356172
93.4633994156201
93.4993288982622
93.5394865472538
93.5710272054068
93.6832099597262
93.736516594326
93.6581270034816
93.673656695695
93.7178396490172
93.7839933549452
93.8582779078043
93.8961332843448
93.8671545673437
93.8781289505795
93.9514746076496
94.0323049411373
94.0229420730984
94.0392381420546
94.0268869216743
94.0071546369411
94.004818824611
94.0542230989605
94.149532679333
94.1848453634712
94.1638258731596
94.2270933183399
94.2682916713056
94.234447963352
94.2371895238091
94.3678422967297
94.4226724905864
94.4131471619811
94.3980648015824
94.3621766908941
94.3431381693009
94.4475246329156
94.4612692714794
94.4426778086525
94.4921192565594
94.5469449454719
94.5665792779507
94.5541257280075
94.5323694777638
94.58835352118
94.6496874575593
94.670508484183
94.6184423742962
94.6411217488956
94.7116090447442
94.7211149215666
94.6978187652926
94.7399348032462
94.765299207798
94.8112317343083
94.8322339072654
94.7984390030423
94.8018190024455
94.8204990915668
94.8160834585837
94.8737247656385
94.9218651980244
94.9871280946216
94.9743885398432
94.9159212816466
94.8794162226124
94.9212159952097
95.0271086695455
95.0628279506481
95.006280362329
95.0259951757032
95.0575016272859
95.1067084960062
95.1028098632442
95.1015292063222
95.076419147569
95.081097328508
95.1240027045327
95.1531274729755
95.2260296080597
95.3118035552183
95.2740973219792
95.2041176055893
95.2160484933089
95.3036774209116
95.3618237168022
95.3751715071928
95.3728362242226
95.4071393655538
95.4391026120128
95.4689891060632
95.4711900765164
95.5045679082973
95.5163851794901
95.4940019795983
95.4408133771776
95.4553473409757
95.4686488870718
95.4369038856957
95.439173220949
95.4950264809358
95.4579092406109
95.4291143585143
95.4530813968427
95.4778132433093
95.4216335705634
95.4541988781683
95.5571464983039
95.5814214356245
95.5366560083556
95.4921397551184
95.4667436326947
95.5077537471987
95.4781315304448
95.4833369710615
95.4945356279009
95.4741070228494
95.4829115217731
95.5146374291748
95.527307197877
95.5075391922318
95.5087194193736
95.5875807287956
95.6155576624215
95.6268923846009
95.6181108437349
95.641425370359
95.6879527375511
95.7377791737287
95.74105392532
95.7135394727203
95.6756066650895
95.6411772092187
95.6170288800503
95.64196868258
95.6459076076429
95.6452103198948
95.6446697182574
95.7035626410219
95.7617136989693
95.7345533030801
95.6625604399953
95.6745671982378
95.6896167542635
95.7020217723184
95.7504138243132
95.7467874027717
95.6798265534473
95.6702809357554
95.6783686431036
95.6907230113006
95.6648563570281
95.6476006025119
95.6531826248732
95.6838223610051
95.6893071506862
95.6884870326092
95.6470988989167
95.6284467942771
95.6481315901518
95.6457229293402
95.6185711219659
95.6140797435124
95.5934978335514
95.5972046559883
95.6186647742551
95.6194315074438
95.5740508323608
95.5372061522754
95.4969038722648
95.4934606457181
95.5434687683431
95.5740188939473
95.5261699734387
95.5062578506113
95.5030243571817
95.5096056076784
95.5429464644478
95.6205420132088
95.6549793327032
95.6186197811534
95.5629418700824
95.5706514850672
95.6019356810007
95.6136965626273
95.5618784221183
95.563368845954
95.5733325160193
95.5456561194871
95.5440842305446
95.5487343531118
95.5120119749956
95.4536356108864
95.3833369020903
95.3988567389098
95.4489219911218
95.443450776419
95.440631998401
95.5181659505349
95.5447592573749
95.6014925062588
95.670122107238
95.6985135129557
95.7405369837356
95.7709730852554
95.7484631160668
95.7576784802894
95.8225248607051
95.924891416057
95.9494750314352
95.915746090606
95.8841845849934
95.899100532128
95.9269018860267
95.9314027172178
95.9345184472806
95.9921082801831
96.034468976226
96.0402802982551
96.0065113688934
95.9530986808165
95.9151661722868
95.9735662304031
96.0408924205217
96.0857647505327
96.0971852976955
96.1006598356781
96.1081071108589
96.1574633610153
96.1706006056909
96.1212871406227
96.0948537797037
96.1329968546078
96.1193166392444
96.0802138243055
96.1075235527324
96.1601538671696
96.1437286053144
96.1767057103428
96.2085082233272
96.1917734282473
96.1913876466557
96.2288133593583
96.2465073580583
96.2744517952688
96.3322189393388
96.3586197709297
96.3292235069076
96.3370287278225
96.2910152300194
96.2549430555445
96.3179079554104
96.3876872829374
96.3853341589022
96.400988231644
96.3748930575465
96.4028380232182
96.5068161531573
96.5017821031312
96.4679803085508
96.5753377076069
96.5991948599728
96.5284260610033
96.4894743300254
96.5180892469429
96.533303523995
96.5033413440628
96.5220760370599
96.6035651384261
96.6389326484613
96.6253819656503
96.5543088063252
96.6150112115063
96.7196731597981
96.7015323978034
96.649376121889
96.70104360722
96.6952212793602
96.6618768819492
96.7083351862343
96.7338015493319
96.6705316028971
96.6917574831542
96.6827076808777
96.6565937078186
96.7351587960105
96.8312010667098
96.8003340340218
96.791261469477
96.7903146492776
96.7996733929571
96.7885868452891
96.7810502573046
96.7694690695121
96.7483365553108
96.765567229041
96.8227326017046
96.8049378720938
96.8592295748741
96.9278845984903
96.9162467583561
96.8242031415973
96.7654507221732
96.8150552892151
96.8522140350204
96.7987510732335
96.7791363522403
96.7931882550119
96.8667800906572
96.9342050896734
96.9946783295102
96.9508069989816
96.862269068078
96.8722391168214
96.9817447397882
97.0002088189912
96.8387437009236
96.7057201035298
96.8207118693428
96.9154979526866
96.8618799456046
96.8241552880237
96.846659216702
96.8203204300836
96.7662296700336
96.6783410803284
96.6926963869561
96.6989826717703
96.6481805725516
96.5979639599959
96.5661356285321
96.5558612698975
96.5930480338875
96.5951664013051
96.6310825662993
96.7071384848311
96.6755117817436
96.5859979930232
96.656366959808
96.721034150895
96.6874369913991
96.6459274834349
96.6955344094156
96.660120857275
96.5966816825881
96.6693957070964
96.684970356155
96.6041371410673
96.6879951574542
96.7362780002273
96.6455268499054
96.5908740285696
96.5729629833444
96.4996188424702
96.4624686895962
96.4382573364752
96.3844194896135
96.2648929243585
96.2052629032445
96.2684377239535
96.3133939409435
96.2384876761577
96.1510647822684
96.1729774624486
96.2775374429057
96.2433491752695
96.1890841081846
96.2783328606029
96.3506909652062
96.2629535486936
96.085308119174
95.8519308868149
95.6106216981319
95.3788780272853
95.1134946160557
94.854384240006
94.7798639872266
94.810253886983
94.896544411164
95.0508657295737
95.2623496498179
95.4763226148046
95.678265530153
95.9207533194369
96.1283330797097
96.2718360881404
96.4673933425386
96.6149915877889
96.6801750187291
96.6903154416722
96.7849722642537
96.9284598392674
96.9901240733985
96.967932924416
96.9139728575385
96.7653375479264
96.6319990286483
96.5369308098881
96.5272245770153
96.552145261102
96.5884391833134
96.6772065918488
96.82614031232
96.9943058333995
97.0365447854603
96.8748110395504
96.7235251268431
96.7034852789445
96.7721452209669
96.7913078539888
96.7685305597954
96.7843676201766
96.7820996393857
96.6606590165494
96.5522302264454
96.6129937957106
96.7136830412076
96.6957967125596
96.6793743066941
96.6902756149878
96.7248552429015
96.7112617675475
96.6868696721968
96.7145975532262
96.7638020192031
96.7901982170447
96.7836206623569
96.7948901831471
96.9276427989344
97.0304542151714
97.0389577311288
96.9376112069592
96.9476045897222
97.0854216533347
97.082703245808
96.9753255325972
96.9751976458119
97.104281216731
97.3110238710828
97.3520090398337
97.3143907252611
97.3219676734334
97.3860402288737
97.4397287719189
97.4408492465867
97.3857005790984
97.4702184843854
97.6457284161776
97.7589418956155
97.7732776638702
97.7420825603425
97.6706899461113
97.8012909970894
97.8564623238464
97.6487120244034
97.6628619638973
97.9752778482177
97.9635345840795
97.8908978070336
98.1152596033491
98.2875279279494
98.1232390965152
98.0355347350444
98.1279277689378
98.1997570217065
98.1769554715308
98.1732477028219
98.3070482875325
98.3830043620146
98.235017395986
98.2381923946945
98.3089203807636
98.4597287456894
98.7354125982084
98.9266733913275
98.7558018070823
98.6597421534661
98.7802521184258
98.8719040965298
98.7164746437429
98.6329624127828
98.834516488352
99.1443084885454
99.1943381002359
99.1503609522157
99.3753193597485
99.5447654414015
99.4026388335496
99.3388821890708
99.5460272822127
99.6024020957694
99.2687663407041
99.2967078321061
99.4546663068082
99.6702613841784
99.9102674683522
99.9417533809158
99.8472292609291
99.7476206636283
99.6783709956898
99.8830428896448
100.216752665027
100.684260234909
100.376038698965
99.5652905004156
99.4064258609527
99.6685044639668
99.3082208872203
98.8428637140248
98.5938214689993
98.5236180136441
98.726446315506
98.8765322737803
98.6327252084829
98.4274916510362
98.2002586946402
97.9614188713064
97.9398454728758
97.9968793203898
97.9186449100718
97.8447403603032
97.7990858862241
97.7368633706555
97.6600074433957
97.613393230285
97.6510101613474
97.7158672283993
97.6377966111837
97.6064388102435
97.6717259630158
97.7374992316792
97.6789639667481
97.7326891270522
97.8418767035017
97.7635923707123
97.6811577723474
97.7149496818891
97.5944851725463
97.579918442402
97.6614986420435
97.5743674690073
97.4432507142664
97.6184586615167
97.8088294625892
97.7744298786164
97.6592581222331
97.8009596132482
97.9747466428488
98.0557280310204
98.0042442642245
97.9749983821893
98.0655720985204
97.9648595185017
97.6903772002788
97.5687268646777
97.7308686211548
98.0675062491672
98.2077332714328
98.264508945583
98.3861680117439
98.6400273193719
98.6877557872645
98.7796783107302
99.0742185339172
99.3231214551168
99.375880808977
99.1464754255568
99.0033160588034
99.3029657836293
99.3624944515829
99.1633622884268
99.2666389073337
99.5598824988504
99.7644064285553
99.8854958422982
99.5451540424004
99.3785588497754
99.4840183851455
99.4962812248447
99.3464284357901
99.5583813980909
99.5249009410096
99.3201591900322
99.3847117296176
99.4581259602165
99.1649880927965
98.7936938359743
98.6331467421187
98.8750055774235
98.9886950384852
98.9238054122025
99.0895649959432
99.1829023383539
98.9901961697419
99.0470606742329
99.1815896140089
99.3512324870698
99.4883809647533
99.5438315054376
99.5310688827749
99.4002495626899
99.1178264029202
99.0388741036102
99.1860371771761
99.4479568388279
99.3356933753376
99.1117113387483
99.0012486198432
98.8783272850905
98.8956670027572
98.8862177919131
98.5948615149442
98.4931134349969
98.6706688769874
98.8550424150138
98.7987360230545
98.632595652022
98.3730603089966
98.2908545393317
98.2059531271112
98.0588245838988
98.0311438345156
98.1677229101956
98.2097398719724
98.1795966469839
98.1487157924315
98.1264011091435
98.0738088212933
98.2232469081556
98.2973830333582
98.1786381530111
98.0922050186188
98.0202806420265
97.8906602494174
97.8691237499108
97.8751122378267
97.9076852851364
97.9380851088899
97.9052190310489
97.810871569727
97.8757202327104
97.9542333683235
97.9611465904621
97.9609995316538
97.9618115162394
97.8605501981362
97.7656759519961
97.7683979015245
97.826772107973
97.7594421821693
97.7318370579517
97.7723771757625
97.8503840833566
97.8024523131672
97.7748596866288
97.8230859749282
97.831684597035
97.8287251706065
97.7946911144579
97.6867196796076
97.6668628320128
97.7091111292144
97.7587487929711
97.693145153435
97.7347479168289
97.783153209965
97.7030102543179
97.6870194071739
97.8283808986712
97.7696681244936
97.7065836706746
97.620411616474
97.6201263691568
97.717240659214
97.6867270574119
97.6596524440478
97.7334128894531
97.7187430470292
97.7046411654184
97.6509508184732
97.6908544257396
97.6507985224166
97.5595965575867
97.6478322729607
97.6902466487554
97.7014084781954
97.7452206243176
97.7530301585558
97.6944550321033
97.6113570629566
97.6294875697374
97.6614440760275
97.6789931849957
97.6891241058378
97.6666356221766
97.6759809820736
97.7326591034626
97.7144416111295
97.694403445879
97.6015966668231
97.5371154143509
97.5829065595531
97.6199154748629
97.6030740074567
97.6088433777651
97.6519109383508
97.6496094029675
97.6866672077749
97.663214170566
97.6379880577251
97.4731782496993
97.5028251284585
97.4315992897463
96.8692633418342
95.5878217881522
94.204340710116
94.4049653395076
95.5825251804946
96.3403931050068
96.8305853442043
97.1603755282073
97.1698537445681
97.174123788879
97.2245431556702
97.253109262916
97.2519949696373
97.3219735535246
97.406764400924
97.3962764840064
97.4934812365084
97.3208882903905
97.1496842922127
97.2315664718433
97.151191485847
97.1921882070714
97.2929992837348
97.3859511131086
97.3913013824767
97.3611130795397
97.1103901987409
97.0272343757848
96.9647015382928
96.9515199649998
96.9795864509255
97.0083375900096
97.0373582521519
96.9225128866962
96.9185211483969
96.8428963503715
96.4232458732075
96.4450116473995
96.1418721187366
96.1624246178227
96.2499140175823
96.2011285157714
96.0873438129903
96.0304203862961
95.6207979331548
95.4318812861536
95.4534662940062
95.3296487167246
95.3268759167459
95.1216149792428
95.041517031715
94.971027531904
94.784992579581
94.6957367300497
94.6843369100786
94.5456269175566
94.3954413485738
94.4632977102654
94.3786080836429
94.1950414802283
94.0645219141752
93.620989959423
93.456791967921
93.2810534017417
92.8381320071673
92.5978295410588
92.5420165329003
92.3781163811421
92.1395957868519
91.9791406226493
91.8161533930054
91.9435113639744
92.1947573556819
92.338083099524
92.4884405179188
92.6455935622478
92.7656882590626
92.7938327687395
92.9732318714237
93.0603116168204
93.0150037570455
93.0564269520631
93.259382181283
93.2987664937926
93.3627900477966
93.4556584437218
93.5503367103452
93.6102030551764
93.6971075206451
93.8069313263637
93.8734095055064
93.9013102875376
93.9484630990522
94.015930740721
94.0823521736004
94.1552684776575
94.2404729253753
94.3287532822039
94.4194363927908
94.5343269336841
94.6066492166035
94.6693809907298
94.609539879622
94.7249997029442
94.8559449871967
94.8138094636082
94.8173863288077
95.0857266561362
95.2235612764461
95.3218313635596
95.4101924739482
95.1154515221606
94.9653450815552
95.2951736108202
95.3059791044774
95.4648138195668
95.5766569003455
95.7376002455974
95.9443394495928
95.8962944948156
95.8446768617131
95.7534659336524
95.6458216030323
95.7558164064583
95.8629891619276
95.7492571914688
95.8868126504029
95.9976200676892
96.0171788016566
95.9902632107599
96.0173138421972
95.9337804191319
95.7012055942878
95.7431371062407
95.5967089034364
95.6782937676393
95.7888363864785
95.713030794761
95.626351197681
95.3662779234278
95.1843231580475
95.3661916012545
95.385209856277
95.2892253746719
95.211718346978
95.1750192655738
95.2015252569538
95.2054014477696
94.9625447615679
94.7821977453488
94.7466122713139
94.7089645718451
94.6585879375595
94.5492174124323
94.4957419165035
94.3924030046139
94.1262482039088
93.8772068506926
93.5725442453632
93.5589898421562
93.4904567268657
93.3239474618583
93.154004291613
93.143917505876
93.0050000858172
92.7525745441554
92.3244636565937
92.027446242669
91.7691332189075
91.172773276113
90.4403215275383
89.5008837791339
88.6000419656026
87.8167062602562
87.0950081174802
86.4066288397051
85.7817595561124
84.8849799264482
83.9920304225669
83.2355934486209
82.8756373701419
83.0245520512637
83.0459868989652
82.6576659786847
82.0337094935575
81.4480521848034
80.758859342842
80.0095516380178
79.4552402729034
78.8735550293493
78.2746226785468
77.6118423731691
76.9786050089119
76.3142514441298
75.6204998200055
74.9222218391581
74.2531876765864
73.4397198584569
72.6900434637808
71.9170693679341
71.0860502784324
70.2106589675889
69.2299099826331
68.1351118770137
66.9125642627358
65.6625159312216
64.3749557377501
63.1175021655021
61.9472991508989
60.8762872593577
60.0173940722917
59.5341409584021
59.449674582141
59.5025566057967
59.6982916089555
59.92215379887
60.1045994024342
60.3652624780777
60.7342071835304
61.0189047941765
61.2658816936433
61.489527072973
61.7574600568457
61.9941940885503
62.2913238431504
62.6131436963768
62.9538743473611
63.2805274145056
63.5845750886985
63.9128759612424
64.3574135674489
64.7703852747509
65.1269398258964
65.4588806562879
65.8614815232687
66.2515335915367
66.6232875884665
67.0129680188753
67.4329331677606
67.8298166342969
68.2309339607269
68.6348454926629
69.0514175993404
69.4434414106638
69.8471872429181
70.2271606689463
70.5892633763897
70.9512595689109
71.3484831706555
71.7171287919913
72.0672653825799
72.4242518225024
72.7902001697224
73.139945267333
73.5031661619485
73.8509686079551
74.1776106617833
74.4975646149203
74.8354723947994
75.1594970661549
75.47803935334
75.7750802641815
76.0830486324636
76.3766161831462
76.66194649714
76.8990747580986
77.1619248266063
77.4444937631286
77.7169257874839
77.9540176492218
78.2179560439807
78.463566034663
78.6941289159581
78.9435788292461
79.181884242739
79.3945870081924
79.5856065347551
79.7693281017209
79.9841695998502
80.1859981857668
80.3950051830773
80.6074140992065
80.8057170876963
80.9775305432625
81.1547630770352
81.3134823005936
81.4540031310078
81.610811884297
81.7814900059455
81.9114564622719
82.0150515603237
82.0839946989506
82.1367375443877
82.158499611422
82.1414478299747
82.0689719950217
81.9200364466861
81.653316623999
81.3234509318691
80.9299392598248
80.4017164051226
79.7496868366652
79.0614431345148
78.3168757323484
77.5399188139264
76.811009006178
76.208338316037
75.786538849771
75.6154257445962
75.7112389786592
76.1216533090068
76.7772072661435
77.5166604650927
78.1826281442166
78.6941161035229
79.0016623876368
79.134175334474
79.0895722907101
78.8778947834418
78.4987402898349
78.0136105531153
77.438763517074
76.7984757625157
76.0773651557274
75.3423650924125
74.6224617554142
73.9235751172778
73.2154476308911
72.5279505642688
71.8628639597039
71.2206752641198
70.5523601824748
69.8734035486593
69.1914864412209
68.5215238734614
67.8403206344939
67.216324045876
66.7129444802462
66.4082264675572
66.2893115182599
66.310706089871
66.2635990419586
65.9509115105789
65.3629466037053
64.6613680913944
64.0917821269972
63.9682428325283
64.2413221795151
64.6973628484561
65.1900550634597
65.6229657622808
65.9019026007558
66.0352236298677
65.971911126667
65.7477336644269
65.4161845016481
65.0027183944706
64.4731264376561
63.9180509511687
63.3772520190826
62.9510906921065
62.6656498063371
62.6154871632586
62.822657005058
63.2625947305313
63.8220083057513
64.4850569391845
65.2568404729535
66.0978541609487
66.983633571747
67.9245614078557
68.8831660108914
69.8647397676528
70.8358331140814
71.7956882199615
72.7136499213751
73.5750078811931
74.3712052689404
75.1180921236662
75.8140069422642
76.4839580574893
77.132617223774
77.7475583447057
78.2334144314376
78.5207133955236
78.8945304137949
79.5103732465674
80.1042824757895
80.6142662981991
81.0627182998091
81.4926600755539
81.8881164034401
82.2434866014397
82.5750661023989
82.9197209064225
83.2472732069955
83.5214987563952
83.7969333041835
84.0765013198867
84.3520144105488
84.625121027828
84.8323605978537
85.0319619638334
85.234196790261
85.4062965212893
85.5716716067342
85.7555817950849
85.8966773247244
85.9661387515486
85.9710645157137
86.0000670686931
86.1022477559718
86.2870453724147
86.4749969731475
86.6661817764813
86.8307217405096
86.971074117816
87.0859222382929
87.234304732558
87.3292785654981
87.2861791753647
87.2037804024024
87.2650462612804
87.4904210229095
87.7377921438258
87.9205739668062
88.1092723812573
88.2266555953566
88.3074802853012
88.4358458879168
88.5828005515519
88.6842357704609
88.7729707547976
88.8553659873866
88.9541598562456
89.0467595529804
89.093353975659
89.1481849707021
89.2219456476689
89.2950556253827
89.3934090034836
89.4475270681649
89.4853196883929
89.5464817488014
89.6312479498599
89.6874091552333
89.7144896903666
89.7617620849478
89.8367825319235
89.8924511719789
89.9488286136254
89.9863201707774
90.03132984915
90.1009250445104
90.1783998139641
90.2274910569398
90.2701964933016
90.3111663207183
90.3379938154499
90.3657056423046
90.4264271876465
90.4782493221616
90.5027695477465
90.5462506340956
90.6017389390874
90.6175479472427
90.6713384630958
90.7318927351747
90.7710978051397
90.7686677043471
90.7800159373877
90.8300425278517
90.8656662810895
90.8703882914742
90.8837675328504
90.9126729403234
90.955998529109
90.9836734743423
90.9788359830972
90.9595332022201
90.9200625875001
90.8465652737685
90.801937600619
90.8127308918928
90.8466022881339
90.8780048057263
90.922364954625
90.9504532558293
90.9099081620978
90.8460333821202
90.8116521817346
90.8011935325012
90.8290395597972
90.8007455097192
90.7789262092825
90.7700615786849
90.6945181633467
90.6323520203836
90.5942512477874
90.4633750790257
90.226461367326
89.8241523750694
89.0308671836368
86.7626187802626
81.4420105225846
74.3936369471597
71.2235811389738
74.5194385856472
80.0350229764527
83.9715674293275
86.1974827833869
87.3876159725058
87.9083489124918
88.0602211665382
88.3570043175076
88.7295870391641
88.9274177432875
88.9933291844751
89.0067239991607
89.0533463153092
89.0760862269104
88.9954799337342
88.9429836046724
88.8926160537604
88.8343089195149
88.7521703989921
88.6625168736432
88.5898478653517
88.4776018089436
88.3363720653564
88.1923034950601
88.0167378348537
87.85572913612
87.653231656248
87.4433799830337
87.252411145538
87.0344027599622
86.7199137968176
86.4066663351551
86.1556773041133
85.9568691577171
85.7490768694358
85.5150520396945
85.3579857425303
85.3316376547234
85.359727831364
85.3714581721324
85.3933241281736
85.5330648061604
85.6413528622859
85.7066513696402
85.8072606717086
85.9185885484564
86.0321585617461
86.1772946059107
86.2953883484819
86.389311350227
86.4513278277454
86.5159562845253
86.5763690005003
86.6516230558612
86.6622332253319
86.6279573371327
86.5229032537811
86.4342451285182
86.4920546002887
86.5660309368234
86.5958474755385
86.6203718397538
86.6308606568998
86.6595995767847
86.612391362606
86.5499058080896
86.5250635381529
86.5413255744332
86.5450827601782
86.4599993609903
86.435058464691
86.5053357755459
86.484941268234
86.4517199482759
86.4145915717828
86.3588116861715
86.2812285318586
86.2198203433314
86.0701042044971
85.8765867226489
85.6615203729222
85.4610825859172
85.1067200501514
84.835398300392
84.3244556632596
83.2639017733894
81.4382514443833
78.9368773718384
76.961529403158
76.9464796041202
78.8568815163507
80.8768638052327
81.9387951973813
