1798
3999.43349933624
650.420452594757
1
128
4
95.8641204784338
95.8119407296943
95.800752116345
95.8802469304573
95.8706941449926
95.8441609715881
95.8166861733357
95.8208189673068
95.9143812795721
96.0172168344288
95.9259986336988
95.8606280470502
95.8793727712907
95.824523240366
95.8082285936969
95.8911609385493
95.8681190586041
95.8121747904367
95.8235251876494
95.9383482351265
95.9634455990011
95.9914363482814
95.8849427757339
95.8188196928441
95.882540779798
95.9513708399751
95.910450884246
95.8287383608277
95.8262273415552
95.878294537109
95.7878760830634
95.748894634238
95.8100011721992
95.9319105294721
95.9268208708682
95.8618711612111
95.8920322255864
95.9138463191205
95.9154543017454
95.9396988814626
95.9757122620068
95.9588587062458
95.8687075748592
95.8857719073363
95.9313785055211
95.8677970706187
95.8064805718528
95.8863430281217
95.9241442754115
95.939826025584
95.9263925884023
95.9317723046357
95.845151238912
95.8751015840182
95.9490940476579
95.8641615634525
95.7840684348251
95.9125101891618
96.0246632292896
95.9100839519162
95.8503121704561
95.8802839862693
95.8426433784919
95.8664102209716
95.9045855472195
95.92889606588
95.9438871658028
95.9516330599904
95.8568869991156
95.7903200263671
95.8015005135729
95.8914780428977
95.8067870897355
95.7684754093239
95.9027159020349
96.0570678111806
96.0373497372126
95.9503875662188
95.8156453382182
95.708437120306
95.8111342856345
95.9954799839231
95.9951221705012
95.9433343837242
95.9426815030755
95.9039295977105
95.7470308421543
95.7523327424339
95.8688146940512
95.9318415798403
95.8764960740839
95.9512947686471
95.9865906295723
95.8801842518593
95.7677429704123
95.8624799689476
95.8835103036245
95.8564827634947
95.8690581050611
95.9245557809888
95.990147324993
96.0002379016592
95.9204224806093
95.8182295802837
95.7893177740918
95.8801614034946
95.9960322466931
96.0610548635375
95.9178232099683
95.8631385080289
95.9409393556915
95.972702516898
95.9623780115859
95.8622059542667
95.8462278288971
95.9195086006711
95.8425141969397
95.8525699897615
95.9339648642196
95.9537343006292
95.9738599715651
96.0015840148242
95.9639503627428
95.9482920962486
95.9339653944735
95.9117986835631
95.8766219704828
95.9338474345581
95.9309380710529
96.0086789082877
96.0920617174178
95.8982183042328
95.7382086365983
95.8396163253949
95.9077787966885
95.940740681527
95.890480467683
95.9431743332016
96.0070618939159
95.9420770147585
95.8483773422649
95.8807195501798
95.8539001493689
95.789155150439
95.8049305869654
95.8094654222442
95.7965910685077
95.9604691057271
96.0139205529018
95.9760814392406
96.0179614367755
96.1043385103095
96.0248568345637
95.8905212149643
95.977943730543
96.0628353093419
96.0001098420566
95.9450688214626
95.8770370605281
95.9112366281329
95.9393646724182
95.9263897761908
95.9721807371458
95.9797878831427
95.8664568015454
95.9461653429461
95.9747697005604
95.9889229038884
96.0405246036263
96.0825778510745
96.0094561601123
95.9698561356831
96.0496239840769
95.9716493041345
95.8006133630681
95.8947402580488
95.9484791498011
95.8766839722052
95.7214351820454
95.7936769995694
95.8981032998314
95.926098696067
95.9228869261988
95.8353609545718
95.8451555031799
96.016153126842
95.9831471416827
95.6646677379685
95.4651461273389
95.6114576836147
95.6739701070461
95.7375731856781
95.7516547492497
95.6712937670848
95.6595013485201
95.6654359030628
95.7285112534693
95.7440263162341
95.7044157116265
95.627117499969
95.5633534831152
95.5254276875453
95.4679399244591
95.4794244615082
95.4968605535142
95.4751784438847
95.3651712122466
95.2252887902033
95.1851237694299
95.2810707999327
95.2558071294147
95.1953704936511
95.2349564495864
95.2235655702153
95.2149496776996
95.333974808345
95.2705446423823
95.2055761664206
95.061944742363
94.975312414666
94.9709359139912
94.9795491277479
94.9678018439144
94.928193160623
94.8011335752389
94.8250080369545
94.9215124905722
94.9366715119306
94.8180406789387
94.7595586506753
94.6482131973585
94.5183386198876
94.4690756421863
94.5124715983464
94.5761690556123
94.6190619014299
94.5624171284985
94.583522274182
94.5329018482225
94.4661016104889
94.4560384839833
94.3899560964926
94.3380446731519
94.4358973733597
94.4621476851851
94.3708873697386
94.2277808611636
94.2222220463852
94.2358294624178
94.2303875690813
94.2607975374672
94.3299062915517
94.2700714278062
94.1030997744582
93.9812992856197
93.9985636184182
93.9215736583577
93.8794537612155
93.9602760413871
93.9668362246436
93.9040362047031
93.9344163198976
93.904804270473
93.7484690037977
93.6285359437054
93.6702583617445
93.6087507826036
93.6120003192881
93.67224863817
93.6494813270079
93.5623204845778
93.5773917910819
93.5156682610393
93.4980714054427
93.5750524149634
93.6202375705122
93.6133955996493
93.521872103563
93.4516877871185
93.4753776620507
93.4477490657584
93.4245734281938
93.3475485648477
93.234436495534
93.2345404419484
93.2573184223863
93.1365587123488
93.2040552454555
93.3304173162813
93.2476808640006
93.2165318643521
93.2325572166889
93.0412350710595
92.9180649826079
92.9748998034143
93.1407476203464
93.0812147715124
93.0011533294915
93.0230867435429
93.0063668966057
92.9796686937413
93.0128233962319
92.9434646458283
92.853176742755
92.8517026829868
92.9378159002262
92.9345908150486
92.876716156537
92.7931631403784
92.7784660521808
92.8741414302901
92.8976749761086
92.7516370403409
92.7182603460732
92.7194235293072
92.6504771851413
92.6191119086252
92.6728148350795
92.6975549077034
92.6349660994725
92.585324254273
92.6698723436314
92.6840505190825
92.5801098529988
92.5193232604343
92.5404058621471
92.5240966245958
92.4620257119329
92.4399863973482
92.5738512974496
92.5946997665596
92.5032311925623
92.4959402382338
92.504091147688
92.5113369676867
92.5032587762267
92.4645096924799
92.5016330748619
92.5611350280643
92.5566532306754
92.3790843259421
92.3247937392057
92.3302849093433
92.3678416703913
92.423829301832
92.4543245464498
92.4005946304132
92.4553938032309
92.4560766106244
92.3662928922983
92.4032572629563
92.4653442931773
92.4407949869202
92.4678206365013
92.4946581131754
92.5132609445598
92.483413560036
92.4514542350672
92.4940669472165
92.4894566723995
92.3694059009223
92.2704140141029
92.2935196344495
92.4578691710922
92.460528381959
92.4685181963364
92.5174705177251
92.5166024109662
92.4816720605625
92.444003113188
92.4956237063528
92.4435862457934
92.3338061621605
92.4430634198711
92.511293459607
92.5025604167333
92.4930347923491
92.431702230687
92.3949290082611
92.4809270251501
92.5122834954192
92.5265192644158
92.4706028578195
92.4391554601515
92.4819715467767
92.4875979120826
92.3872719904884
92.4866450484309
92.5765373540542
92.5006032173971
92.474640381749
92.5869686218063
92.6137651972151
92.566059687586
92.4630479336155
92.4832820435353
92.483086518226
92.3527089634167
92.3451590264898
92.4814178655642
92.5107310723038
92.5293223128419
92.544983407279
92.628734278361
92.6853437463142
92.6145263860748
92.5098028630758
92.529727946614
92.552414601891
92.5768901515905
92.5694271145684
92.6163835721116
92.5641841556118
92.5112043588954
92.5091844451109
92.5050493466763
92.5583980464187
92.6482134783942
92.7058422749037
92.6809488219941
92.6560625309852
92.6725971598455
92.6391396080304
92.6923546343492
92.7563499013373
92.7201636683418
92.6105305898255
92.6308390067856
92.7401077702841
92.796016829928
92.6549785618222
92.6588213817577
92.7531523641104
92.7473810125121
92.7435765937753
92.7770114133844
92.7938896826872
92.7985268963903
92.7682791430445
92.7349696349317
92.7301130931326
92.7824294979745
92.8195448076742
92.867494906158
92.9219636665654
92.8797573786932
92.881727201777
92.9327157427563
92.9214284297595
92.9619195167698
92.9838590323886
93.0050872968138
92.9462236542307
92.9781944503815
93.072240663699
93.0970298202705
93.0647841912255
93.0535049823583
93.079075913937
93.1707755114568
93.1897338356201
93.0813175418315
93.0231442992637
93.0943815924865
93.1522725636966
93.1841562084123
93.1682852817629
93.1964817739413
93.252069149338
93.2705489025241
93.2467459767641
93.2550187869449
93.3222144212832
93.3930532412403
93.3519506418195
93.3160641587784
93.3704706624664
93.3973428378138
93.3559480009232
93.3659166112048
93.3496251716422
93.3380899369408
93.3558767401289
93.3151097215629
93.3395703757079
93.3644028675637
93.2972315649866
93.3441814901748
93.4324722795051
93.5025365105669
93.5617835971728
93.5790957287695
93.5768926062676
93.5575779975596
93.5373097989113
93.5916144826828
93.5718819792265
93.5102817538604
93.4680351078216
93.508402994678
93.617522507135
93.7411752959049
93.6871106541995
93.5998826920295
93.5830308388211
93.5274244711033
93.5352348202414
93.6709711684424
93.7043649720279
93.6972424211357
93.6675090636552
93.7200406480324
93.8251501094868
93.8097365981392
93.6899441507126
93.6418827704731
93.6319190114548
93.7247534384396
93.7937365062945
93.8195636396227
93.8826400286262
93.8585544007595
93.7730225038866
93.828037658858
93.9142689548878
93.9189514988037
93.8781692304692
93.8577295533067
93.9088722680312
93.9771439274578
93.9746080351624
93.9333614014945
93.9202434639006
93.9425369055594
93.8617865635935
93.8607933343131
93.9048082952873
93.9533151851383
93.9616086647624
93.8996600255081
93.9177833041421
93.9586961717706
93.9521109006524
93.9371399872149
93.8575322306449
93.8590877235133
93.9691829045959
93.9564479668946
93.8840534312427
93.8887548326305
93.9084457578875
93.927139860216
93.8660677298521
93.8408954036488
93.8811113845648
93.8901399387904
93.8197697355873
93.7647197819244
93.7659688662552
93.7891706658112
93.8540948431056
93.8936978752417
93.8906558475446
93.9139957380228
93.9564985695328
94.031368414349
94.060847597768
94.0323037815996
93.9785305635506
93.9477822513596
93.935101098386
93.9631180406907
94.0175393065759
94.0636907733743
94.0268514760386
94.0351637702913
94.0732685102291
94.1306734826137
94.1384821259465
94.1127779111118
94.1356978263091
94.2173019899246
94.2748303740543
94.3085238428138
94.2910458261142
94.2689188643969
94.3116194600231
94.3258501020418
94.2858252416659
94.2604440305158
94.2306213544414
94.2310527967924
94.2867947434179
94.2905138759837
94.2717275839712
94.284383093357
94.3196731547334
94.3368991313238
94.3303818323636
94.3014020191802
94.2840699638359
94.2852131326186
94.3226243734581
94.3751943073722
94.4180044749121
94.4562725315386
94.4373094969349
94.4041312845009
94.3673963375317
94.4014598277607
94.4937127559835
94.5218290674593
94.5197647727549
94.555102036607
94.5966764733925
94.5976083535723
94.5643205284779
94.5924788177867
94.619163215143
94.5597185618949
94.4905369206195
94.5362384330108
94.6423296795088
94.7327505546725
94.7331779923406
94.7097320335343
94.6811066001718
94.6634614045913
94.6775708131596
94.7095602153062
94.7307295589456
94.7627713304493
94.7593233314642
94.7266947718071
94.7250365364541
94.7622116562669
94.7486533798724
94.7787004217307
94.7935764465845
94.7457187998139
94.7426498702818
94.8148382413682
94.7913040697954
94.7090110459207
94.7575425301122
94.8240015422608
94.7859755879295
94.7518242741646
94.7818959531899
94.856979773969
94.8569071624721
94.8387255173608
94.8320152796656
94.7906400250979
94.725173698718
94.7542904824454
94.8275273621966
94.9309734059713
94.9581308559535
94.8950224885962
94.8495718738347
94.8587276106656
94.8970951423412
94.8642015909404
94.8323456322356
94.8255459584256
94.8610218995836
94.9290886953485
94.9351509738299
94.9283632616788
94.9147992697724
94.9763511845388
95.0300253719745
95.0211554406205
94.9610843714407
94.9086135575259
94.8858100744787
94.9036439596115
94.9205335900446
94.8830883965284
94.8807793908589
94.9458913150701
94.9335478018521
94.930158550138
95.0035016880726
95.048947339262
95.0565203360202
95.125287584923
95.1825392380414
95.1318030373949
95.1170648666315
95.175153438527
95.1784716210425
95.1538883781695
95.1634100968519
95.1392962173936
95.1426683631046
95.1877127531708
95.2147503384036
95.2463244365742
95.2422189805479
95.2273403790212
95.2074346825512
95.208196305201
95.2680391691518
95.2555989761258
95.2266614425759
95.2980226355062
95.3142851932592
95.3096107083175
95.3399795097922
95.3949089667813
95.4243208637546
95.3573977784308
95.3109955056256
95.3584451838715
95.3280188439092
95.2745429975131
95.2748249799389
95.2981138769263
95.2993721452729
95.3327686066374
95.3900700839249
95.3729858932294
95.3197944223162
95.3723298072571
95.4394454807068
95.427550931796
95.403360929258
95.3910337609526
95.3867981090478
95.411410095947
95.4068618883372
95.3753100336032
95.3894475179413
95.4271992027722
95.4757547466814
95.5078736862965
95.530125770931
95.5565048483714
95.5281196490136
95.5058369945488
95.5150037153836
95.5354235618465
95.5231836520431
95.4978812218222
95.547619108968
95.5634367666452
95.5717822597968
95.6872223947719
95.7237102216948
95.6108575742354
95.5992815247891
95.6669799988658
95.7022497285318
95.6677387167376
95.6089783557246
95.6881453562609
95.8079548602148
95.7934627320497
95.7249045038441
95.6697087022178
95.6985194357473
95.7904842041654
95.8549080081828
95.7787006358808
95.7300751042951
95.8183045772898
95.8598176232757
95.8238780812308
95.6981350655406
95.8034101104763
95.9340574786543
95.9269908726926
95.909864002067
95.8741477597671
95.8376506016
95.8513421565661
95.8883949641492
95.9880385796594
95.9882604728041
95.8486948299675
95.8064033193377
95.9724819560797
96.040322732624
96.0141172845696
96.0588953026362
95.9921631776946
95.8851467343966
95.9872667181758
96.0916982589163
96.0678493545341
95.9996926627504
96.0521988444476
96.1237886455233
96.1551727810865
96.0722266875364
95.9394702287376
95.883922301109
95.9052248285224
96.0501678938052
96.1093827309082
96.078206148155
96.0923511364992
96.0971192144065
96.0799587989512
96.0711277948459
96.0475358914547
95.9422970861622
95.9641466848905
96.0079633546139
96.0078932890471
96.0060328996427
96.0117804720665
95.9367528263622
95.8738627410632
95.9458229134086
95.9376424276988
95.9615151980213
96.0103165254729
96.0027942558221
96.0326049511946
96.0745746996145
96.0103525449343
95.9368326278179
95.928106229384
95.8928091066316
95.9352782721916
95.9665485561293
95.9480751310915
95.9174533650429
95.9015344561938
95.9261776718792
95.9539077181483
95.9838753563055
95.9851310015646
95.9996927814572
96.0659631787478
96.0944940016863
95.9818957074637
95.9003327643929
95.8742021761151
95.8444890057728
95.8176325956978
95.7969769849201
95.8163503670689
95.8593180787665
95.8949467411783
95.9198784554034
95.9055194952198
95.8997902766314
95.8836824394443
95.86396079327
95.8239947042001
95.7604457527638
95.7259546446928
95.7076816482916
95.6605837828176
95.5561977161626
95.394204450506
95.278062930984
95.33193467757
95.39111802243
95.4062493786402
95.4770921920369
95.5406361246585
95.6443621462256
95.7443333969462
95.8918892596141
96.0522613638545
96.1105645935632
96.0846127205696
96.1341822723407
96.2423673127257
96.2487703821924
96.2366545104507
96.2390942983922
96.3326239610189
96.3868612128557
96.2888417138165
96.2268308494948
96.3082309058701
96.3289494335183
96.2614061686351
96.2614384782934
96.2253198946495
96.1636168866845
96.1501467972434
96.1577159327308
96.2009851806801
96.2486757515067
96.2436643141223
96.227596994787
96.2298544883874
96.1747357844568
96.1205776062862
96.1440265555221
96.1569458619883
96.0664557411954
96.0178282758597
96.0421638973311
96.070277110804
96.1194398026577
96.1557978553879
96.178209449991
96.2240405469795
96.213097021713
96.2388479118619
96.2506551277749
96.1901241651155
96.191314214474
96.2693189464504
96.3013507075926
96.341903335483
96.3696876825885
96.321065612999
96.318358478693
96.3494829437042
96.2635377836781
96.2481576624462
96.3229239997616
96.3775386568791
96.3869349728521
96.5505857689895
96.7570090950739
96.819311405003
96.7647641562929
96.7599034684432
96.8288995031779
96.8484143564963
96.8105932913914
96.9201970691272
96.9961052603447
97.0031383706301
97.049074204219
97.0304406158047
97.0887589679132
97.1593563449274
97.0762289476374
97.0846583702384
97.1590795597045
97.2943326246394
97.3874715907885
97.3613914081335
97.3366506472062
97.4051562422892
97.3240667754666
97.2680809526684
97.4319286792538
97.5714770023032
97.5934448753634
97.5218127947976
97.6143009626423
97.7853464651193
97.9038537059057
97.8510526285205
97.7714850363386
97.7492214424399
97.6616710877771
97.8040071381535
97.8835080458045
97.7482652025917
97.7562318994236
98.1230075375473
98.2196844789102
97.9857222563174
98.0822083182789
98.2183048230252
98.1036872099687
97.9894060698761
97.9440087481079
97.9784130351472
98.1066478686214
98.2497805266499
98.1955764782767
97.8696957673377
98.182244670788
98.4424780019018
98.0282993689984
98.0284858399652
98.5048838902239
98.6512481621724
98.2410167757212
98.261894415528
98.5400724072762
98.6035069180064
98.5489552272771
98.4439261676387
98.2130440297784
98.3422351590453
98.3672716121777
98.3283364740893
98.2416104621346
98.381736261053
98.2804342792925
98.004828355681
98.313277857682
98.4475540283743
98.0454711325316
97.8023966880011
97.7416713659755
97.5868674445601
97.6459815368375
97.6393539885278
97.3634382075111
97.3732595069923
97.3154074100534
97.2630369389338
97.4504876466013
97.4195059027132
97.2050043991509
97.0861957137461
97.0342451904352
97.1329198363253
97.2598896449208
97.2594464092354
97.26944734196
97.3204668345963
97.2109738722597
97.0566685576942
97.0640190208263
97.143013777017
97.2751253142189
97.2604625881148
97.1244176761613
97.1849478202296
97.2283041772104
97.165003469074
97.0675561131879
97.0138786754553
97.1298521636111
97.1571947801457
97.0082740914668
97.0062024316849
97.2645341359097
97.4260876761005
97.3207861940234
97.250801494479
97.3601103083122
97.3784561193029
97.3609623206474
97.4073735695268
97.3885091353721
97.404357630565
97.4933576872811
97.4164027868934
97.6262031107852
97.8297865335961
97.7913859812453
97.9180798413928
98.0939308077923
98.1645967528672
98.3642023066269
98.4791661726582
98.4320976310699
98.3806380021746
98.2872530051586
98.370300516386
98.3384726195896
98.2628663473772
98.5037476708816
98.8047729408072
98.835797996264
98.6448010178032
98.6552947906651
98.5482059646389
98.3874371878875
98.3839638970332
98.2085001901654
98.4288572376049
98.6247101854338
98.3192916963069
98.1302977284742
98.1407154632211
98.1280451918522
98.1269436133233
98.1819901451588
98.2555925474027
98.1397921768742
98.0728154463663
98.218587394238
98.0877068890683
97.9170792813831
98.1447198285423
98.522066056049
98.5438578983799
98.4575112227919
98.7635006057483
98.667571892656
98.6825756746781
98.465825916184
98.0025577221447
98.0169914754518
98.2267794312306
98.1688604194866
98.2034752678645
98.0892265492955
97.9425560968844
97.8022896991831
97.5821841182253
97.6370442310409
97.7401210793031
97.7240593138825
97.585913185831
97.3665264756719
97.3587385908929
97.6161880651769
97.7707897732489
97.7460483606451
97.5576730846122
97.4195379922327
97.371319478276
97.3676745678892
97.435878742786
97.3956360061509
97.300074027646
97.3673896143368
97.3830822142659
97.2622260901024
97.1580681795333
97.1296778099657
97.0743463338416
97.1671138044646
97.294154925381
97.2405149458444
97.1326473866487
97.1748776017833
97.1406356883323
97.1471952391383
97.1801409299563
97.111737540883
97.0498736617432
97.1270537813051
97.1459595626374
97.1465441466546
97.1558295660221
97.1749851732072
97.2066702231658
97.2182878608614
97.1615509772065
97.0855224742614
97.0668993851417
97.0594428729059
97.0808206510032
97.1134162365523
97.1001110386756
97.1174461864225
97.0958145762408
97.0550829090488
97.0631182333914
97.0857610191576
97.0969602389552
97.0695702942643
97.1011926701534
97.099128780374
97.0636399038625
97.0853231659807
97.0881360966015
97.0486855623051
97.0373074177705
97.0748993402605
97.071237307984
97.0112625983188
97.0040197227138
97.0412371065424
97.0317513319923
96.9945057729501
96.976205144706
97.0216312638813
97.0217577663226
97.0169693671144
97.0482989585508
97.0243793045693
96.9515555395702
96.9270441563037
96.9404552213904
96.9751762678237
96.9570062596422
96.8777637041873
96.8596795206495
96.9000616483693
96.9271943388801
96.9315013352047
96.8714244906228
96.8710590115421
96.8829790877084
96.8424703989405
96.8155883668574
96.7986210685578
96.7385765511735
96.7209854806598
96.7490112039504
96.7481558369923
96.7421296230403
96.6798433873048
96.5994205825501
96.6132384772986
96.4919201353313
96.1702772671818
95.5756502616814
95.1010139278467
95.3819848079648
95.8364435825265
96.0930617986356
96.3073039547295
96.406041200459
96.4162610180072
96.4265712126758
96.4514849272952
96.4294363488949
96.4702561644281
96.5186152308694
96.4333472254099
96.3240064002987
96.2933980767489
96.2536710132755
96.1892777409251
96.1491104929009
96.0930500951126
96.0111078681394
95.9538578735577
95.9049581035077
95.8477698948798
95.7567412915394
95.6301174845079
95.56111630829
95.4549852201952
95.2844257758206
95.1456470882959
95.0110235150416
94.8289821223601
94.6676674042685
94.526706082424
94.3079862699625
94.1263645618977
93.9693920803858
93.7562878696648
93.6372358814512
93.5189561123782
93.3355796007365
93.1630854503386
92.9792237561377
92.7241550524319
92.6322745776527
92.527119166257
92.33615416012
92.147334893586
92.0092804059401
91.9149688493735
91.7708190956193
91.6337600838744
91.5577950814948
91.4634242353802
91.3473117883711
91.2545477372492
91.2016878918085
91.1456492127861
91.055782092854
90.8678456028503
90.8292678549436
90.9667016745915
90.8893076060635
90.7484799722015
90.6491314309772
90.5922796919906
90.5091216323005
90.4408743107328
90.2812276416283
90.0559095837481
90.052814292256
90.0551015983103
89.9409310483369
89.7713595564773
89.6707898933743
89.6009612805302
89.4972410019656
89.4292074202824
89.320739082632
89.1960037977982
89.1451107505178
89.0835609037694
88.9761654226037
88.8981367900484
88.8270658716468
88.7725167321322
88.7143202418482
88.6532075341208
88.5966011113284
88.5425005143727
88.4609433369324
88.3792704624246
88.3076393483077
88.2769994548699
88.2564821614214
88.183356381663
88.1017826291028
88.0468823108967
87.9974029225387
87.9516508165624
87.8293670455596
87.7424069813611
87.8506614536566
87.8395067708026
87.7243449307053
87.6902749707062
87.6628143593594
87.6245470444797
87.6072172252253
87.4570982301811
87.1330651799663
87.3125842554615
87.5098484289428
87.4872974190034
87.4242537092647
87.2940864310795
87.2307312954878
87.1291939050542
86.9926268909596
86.8582950557822
86.7264083907588
86.8151066292942
86.914560762493
86.7356633029111
86.5365827106186
86.508465535776
86.4025314927541
86.2268273560917
86.1112617080162
85.9945038666344
85.7965827920513
85.7252622241777
85.6695799668569
85.5466187171205
85.461065591202
85.3075004792419
85.1178380161957
84.872996975494
84.5719232330355
84.6685383893098
84.8330024108575
84.7133105794701
84.4887191593468
84.2986617808752
84.2559552870575
84.2861455230975
84.1295155313085
83.8967958345992
83.8968821704708
84.005810919481
84.0090309347112
83.9239676982394
83.8243604400568
83.7654879584284
83.6675872537569
83.5240133232071
83.3722377548824
83.3599381498028
83.4447908550329
83.3178921354247
83.0601706436972
82.8789149227
82.8330827746063
82.6409421649321
82.2822248606713
81.9554399021293
81.928775332363
81.7460584466494
81.3119841875522
80.7626650347465
80.1619669802881
79.5668220540965
78.9764346697352
78.3576290806111
77.7406037905662
77.1116951572141
76.3946430506674
75.6729031166367
75.0235374894501
74.6386218333814
74.5464910300724
74.2533408584292
73.6830843515917
72.9789878474956
72.2794703881876
71.5052635682204
70.7351265915278
70.1050836826362
69.442467400714
68.6967218065928
67.9575597608555
67.2455732004843
66.5461417713345
65.86721008305
65.2529815003642
64.605407223315
63.9035356266324
63.2648220491855
62.655327314714
62.1001067869232
61.5931252777456
60.9805085998431
60.286531078689
59.6650168364237
59.1471187373565
58.6014292173381
58.1143414035919
57.7578726606633
57.5364144071555
57.4714673904293
57.7328347512573
58.1940271467164
58.6522699621359
59.1739035461854
59.7042573249101
60.1717010615261
60.8117429044806
61.5283046531137
62.0980036053708
62.6235884524
63.1749833187761
63.7813079861106
64.4409832037301
65.1600837952144
65.9068560484591
66.6834049343006
67.4473328956734
68.0834069743809
68.7732569910582
69.6280463323339
70.365350486799
70.9542337975888
71.5235358597551
72.1071087660629
72.6983996684465
73.263707488575
73.8052365887383
74.3277622656474
74.8053437940152
75.2689263263107
75.7611040539292
76.2370625390033
76.6673306031915
77.0841313512849
77.4826691807892
77.876285530806
78.2521633365213
78.6182417339627
78.9770373449707
79.3339601631298
79.6743499259113
79.989471894961
80.2995626001284
80.6127615919562
80.903252384822
81.1730187989306
81.4301013184881
81.6745354167285
81.8911932788781
82.1117872029088
82.3512923311195
82.5926917289466
82.8017986530478
82.9954521230908
83.1893760783291
83.3760442556726
83.5474771573878
83.7018036758024
83.8470315750439
84.0029749925807
84.1475561566733
84.2690508075993
84.3784820304317
84.5169596791849
84.6454235930874
84.7474321587248
84.8645667008361
85.0141155647521
85.1397227390353
85.2696556332014
85.3999625029489
85.5253870516499
85.6456566220327
85.755452629837
85.8842583129805
86.0327490936338
86.1452187977142
86.2274029405038
86.2985576784154
86.3455723824038
86.3908803617284
86.4306722776562
86.4440480297023
86.4303125153391
86.3875549163944
86.3411293740344
86.2482657333284
86.1238759600395
85.9638150336447
85.7742175370426
85.5588888349298
85.2913552192309
84.9999276154935
84.6776187891415
84.3093720733637
83.9295478069047
83.5456217711564
83.1601920108131
82.791706336231
82.4476591603461
82.1279696186798
81.817660188159
81.5051060721105
81.2310524906439
80.9744559583301
80.7189926897457
80.4687160335982
80.2122289463803
79.9264340513572
79.6197093433053
79.308597188385
78.9999865992119
78.6809263864176
78.369283538673
78.0185076667688
77.6321272180868
77.2509631363531
76.8423351905201
76.4424838769764
76.1115601602638
75.7639208909158
75.3987525933376
75.0354249147162
74.6618285545669
74.2835840906232
73.8945006628122
73.470476889105
73.0310030336145
72.5945245986878
72.1537539938085
71.6774598479504
71.2189595682903
70.8167775866338
70.4558553071636
70.1400015448615
69.8975935237383
69.7000007834949
69.5258416082041
69.3700806804555
69.2379435022242
69.1735256720085
69.176041482978
69.2603612980495
69.4412090935149
69.6991482635696
70.0476107387075
70.428097639234
70.8269627250817
71.2591095953517
71.7463861041752
72.3024594916057
72.9337389200787
73.6202089501596
74.3127629153451
74.9834588976319
75.6633755379687
76.3267192387441
76.955281571036
77.5353663537366
78.1233757899038
78.69016335293
79.2088983827564
79.7256928037616
80.2537523459424
80.6968634010397
81.0782117030777
81.4634344901917
81.8376971865717
82.1644821777634
82.4457976517004
82.6930408046198
82.9260444700643
83.1462145886425
83.301466974297
83.4754816164092
83.7609699770241
84.0636538768955
84.3362108733991
84.5762517107255
84.8118026849941
85.0366572076937
85.2382446526093
85.4171494505916
85.5747401438536
85.7307753974756
85.925970378708
86.1280298735169
86.2738030243497
86.3993282758434
86.5382501833281
86.6770565778973
86.8202332342971
86.9429043381286
87.0517638274393
87.1428379171556
87.2391064993314
87.3244828366873
87.3842276826095
87.4437821338718
87.4941469586302
87.5042048318281
87.4637294495136
87.4311827830586
87.3730099995726
87.2466946911025
87.1194820257473
87.1316782162769
87.3390418141202
87.5866227384111
87.7753720231212
87.9855304921906
88.2485994603395
88.4805551637635
88.6839358251312
88.8492320501337
89.0194991058387
89.1457039875717
89.2395813058033
89.3480532092868
89.4766961499059
89.596985676939
89.6987049885947
89.7838845315824
89.8514759753831
89.9254925017021
89.9950262387166
90.0379385511093
90.1274223208464
90.2315297576496
90.2634244629259
90.2647874789158
90.2907330356218
90.3433373829967
90.3999603420877
90.4352540722604
90.4720719770675
90.5084696716474
90.5435571533757
90.5798137500505
90.6146113876811
90.6257286571186
90.6615220433184
90.6921528413198
90.7285710287797
90.7432714472126
90.7410941717329
90.7669693096984
90.7754075052482
90.7871178202433
90.8188981253269
90.8440793305414
90.8604402392353
90.8585349052526
90.8799248669736
90.8577201104302
90.832939113666
90.8194118522534
90.7807262531494
90.708004507725
90.5710967341191
90.3980652301526
90.1942535395506
89.9056314703857
89.5611885445427
89.1812184288278
88.7288629522917
88.231624954936
87.7877185260761
87.3477796951282
86.9730966713639
86.6235411969368
86.3009892014502
86.1189685975991
86.059966324302
86.1227534715084
86.3592670440498
86.6676272783145
87.0534889499688
87.5202804764718
87.9825675969946
88.4006170897403
88.7278277213629
88.9612736269515
89.0967676974154
89.1247816949501
89.0709817164983
88.9536069109193
88.7382686287218
88.3669109489949
87.8880512010616
87.3946721314201
86.9759337976001
85.7802626880034
82.6090727331805
78.9148865183217
78.6800601597996
81.9912641076597
85.386052365723
87.3279097808004
88.3406768110311
88.8487572574875
89.0380133332359
89.1392120812827
89.3078999063019
89.4553096748095
89.5727535197141
89.6427830132283
89.6774194217628
89.6688045018268
89.6406055838145
89.6375223212068
89.619535584946
89.5746136674581
89.5382113748126
89.50114102143
89.4904054375798
89.5361373484783
89.5804773480394
89.5296220319035
89.4855217984357
89.4998739042387
89.5480233827633
89.4925334089047
89.4173586821045
89.4232418929324
89.399800900462
89.3564029887857
89.3399651904117
89.3751959427583
89.4074277510457
89.3802742218684
89.3628851936776
89.3296050909477
89.288109368397
89.3162801747881
89.3465538514837
89.2799849418508
89.218914531161
89.1757115687703
89.1591249142821
89.1407692076889
89.0991092993891
89.0357321777876
88.9994384565908
88.9762921008299
88.929732824792
88.8318674420415
88.7162852764312
88.616973711887
88.5807086869736
88.4881540242592
88.4550151084988
88.3705964340554
88.1323426070522
87.9843716695242
87.8733688834384
87.6824628260382
87.5090079634423
87.4066888862909
87.2868663992234
87.138278422914
87.1303926576017
87.1174616850614
87.0662384739496
87.0882864396677
87.1577683564104
87.2770335597794
87.3560813648319
87.3241205651348
87.3637939008086
87.4180317428926
87.4598893174305
87.4729138930136
87.5310515706374
87.5727372716882
87.5992259885967
87.6761429433282
87.6968484682994
87.6224970894458
87.8111479399065
87.8409477833095
87.7813438881208
87.8290320259794
87.7993713396046
87.7084135217444
87.6575329832567
87.6080535090089
87.538307506142
87.3912109474119
