1798
3999.43349933624
650.420452594757
1
128
4
93.5340763916291
93.5403046894314
93.4500701387976
93.4421575299775
93.4720745007196
93.6030933504822
93.5998138186453
93.6510236798014
93.7553125154101
93.683563343581
93.5157991890472
93.5468073541603
93.6128041694999
93.6115897801858
93.7104205936386
93.7460409623775
93.5523238085658
93.5858932270219
93.6384978940458
93.5913417312983
93.5669351085046
93.6292699353024
93.5857817031844
93.5252606114306
93.5879053193823
93.6932561796902
93.6008994708245
93.5343669571532
93.5665148161256
93.657523913551
93.6518479152036
93.6317995624836
93.6118498894278
93.7121910061041
93.8066573251608
93.7626830704675
93.6149201360198
93.6777245990431
93.7605254423971
93.6659781438239
93.5478714303724
93.5729657354187
93.6712685522899
93.8372269473165
93.7278823679067
93.6451811913076
93.6699357351027
93.743776100666
93.7993766083912
93.7627782191776
93.6739759045979
93.6412205168985
93.5588421421562
93.601181471904
93.6897795498504
93.751872623796
93.7577094058956
93.8096472566648
93.759296106154
93.7404501841517
93.8216248467168
93.8433586492332
93.7707844376504
93.7969340700895
93.7564249219084
93.7296303977394
93.7266697712961
93.7217753825199
93.6397118540315
93.74053325009
93.7901297323
93.8436505527758
93.7547097910884
93.7353168615321
93.8518891661766
93.9680632564545
93.9659601167244
93.9458843912351
93.6838692821437
93.6054304127184
93.7497871597032
93.8310713381492
93.8990823523531
93.9779086121364
93.9424697869508
93.93509394966
93.8445969672774
93.698083891528
93.7309848515786
93.8859212706205
93.8348383265648
93.8123302561438
93.9459962549724
94.056580127747
93.9683847158939
93.928880292433
93.8239473812515
93.7380454868981
93.7921845637608
93.9211332254495
93.9536485484975
94.0295665488292
94.0240646147277
94.018551879277
93.9145432018823
93.8554831478637
93.8178192136578
93.9116011511153
93.9577795416885
93.9041248183374
93.8723938183349
93.9597089518737
94.0334821709091
94.0598202744477
94.0028403714306
94.0071242727253
94.0686605338579
94.0753173861101
93.9903103441838
94.0535832113765
94.0318859882841
94.067435586104
94.0796711812113
93.9838246993291
93.9669903312902
94.111378108819
94.100883111658
94.1001050588592
94.0693776616012
94.0225647922503
94.0513725689546
94.1995920367446
94.1937346380509
94.0891452301244
94.0399533067989
94.0874507323114
93.9878425726722
94.0355814517911
94.1649823659135
94.1602878286036
93.9993372576002
94.0384810377731
93.9553677200954
93.9254295306312
94.1147227703197
94.2065608647493
94.2434289195936
94.2470562225301
94.222911339518
94.2594569414538
94.23625310428
94.2200333426733
94.2056319225735
94.2276868825119
94.0639705584128
94.0224820285469
94.0797296881273
94.1671245596502
94.1909504257083
94.0749923563452
94.0102206549166
94.1310845299813
94.2414159657946
94.3997664347441
94.4124969950052
94.2786624048475
94.066125554083
93.9562845321925
94.0423203334808
94.2062468369673
94.2290115157953
94.2428838042239
94.2252630498741
94.0906361847238
93.9025132671422
93.9533222747005
93.9124611265419
93.8249356647808
93.8594613487159
93.8954007737026
93.8891907124335
94.001751926413
94.0044736476375
93.8902119582818
93.6987786084366
93.7699843621577
93.7775344399028
93.643979516334
93.4124158571947
93.2855511378175
93.3687753643497
93.4639407219462
93.2657647927487
93.135927915313
93.1623744307911
93.192395290403
93.0820925269124
93.0284566203265
92.9236746031714
92.8233321548057
92.7377316548489
92.6992478993784
92.5995331512807
92.6070506591629
92.5753458806037
92.4550457554269
92.2972731832015
92.1867707957401
92.1417045872714
92.0570871465824
91.9551916685917
91.9898873138383
91.9960797715621
91.864725877142
91.748981155796
91.7373206021721
91.7012627308902
91.6882651405297
91.5675274987323
91.3374218588076
91.0187803937918
90.962007302477
90.9814705492654
91.0270826515192
90.9568604044439
90.8686904455281
90.8257531503538
90.769028181053
90.5966478905373
90.5546081022582
90.359990121875
90.2026301443909
90.1102308605914
90.0812624069956
90.1052182081566
90.044242329799
89.8090604239051
89.720989538255
89.6162049650647
89.4971955269696
89.5615054318547
89.5436068815135
89.2293768140469
88.9907075623652
88.8681681614891
88.9636618113549
89.0290033082058
88.9269569446201
88.8443746075562
88.8784682855572
88.7146065003986
88.5137002686129
88.4066009214839
88.4262347849301
88.261268801297
88.1311321766592
88.0331740646582
88.0159855420836
87.9184823793667
87.8474913554315
87.7411035561189
87.5831772364825
87.4206730507555
87.5652226406989
87.5903761070614
87.3741224545749
87.1362001826545
87.0881695046191
87.0162780031948
86.9359331536722
86.9168834493415
86.933972100007
86.7935545427768
86.6444774995029
86.499682934353
86.4725706410843
86.3607627868083
86.2181909130696
86.145640404856
86.1879769691078
86.1675941814691
86.0272629251864
85.8338638814904
85.7653591937479
85.6689669774016
85.6544095033159
85.6138241507125
85.5089609893938
85.3904814094748
85.3391268379658
85.2366338282213
85.1908984597185
85.1662697761853
85.2440469131903
85.0024937144468
84.8213743281533
84.7611660722511
84.7975000814567
84.785403688709
84.7222378483653
84.5387095570289
84.4643033747925
84.5008996416256
84.4315073170107
84.2288514587724
84.1567948166177
84.1185255644096
84.0501660865218
84.022346244142
84.0061648745939
83.9201815727629
83.8655512666472
83.7443879676775
83.7524652337838
83.7141195169745
83.6311171904214
83.5685216547536
83.5081198201716
83.3391324496879
83.279903830335
83.2400310297113
83.2467451806801
83.1329027584093
83.0695478872752
83.0176603288342
83.0371005394515
82.9628985795547
82.8810336820792
82.8649140747733
82.8785658831089
82.7546648014296
82.6174975321203
82.5496601619799
82.5727694584131
82.5034055045388
82.491087699317
82.4147706312771
82.3438216024466
82.3319485231801
82.3138684568548
82.2466145174139
82.2693470768823
82.2617386665476
82.2349507266082
82.1507987053207
82.0068052687721
81.8960666523775
81.9377388256513
81.8393841613588
81.8285164592136
81.8866074218052
81.9197013686487
81.8513754112499
81.8533167268952
81.8353458810482
81.817190787225
81.7400804803301
81.7355878922675
81.6744642771988
81.6195945438063
81.6023076970152
81.6706207425546
81.5645290361981
81.4763035321937
81.4703320795946
81.5268927328406
81.4909193566571
81.3839772369001
81.3077730766059
81.3701923645527
81.4158404802198
81.4655659846196
81.4140194724044
81.3546402908549
81.2125622408343
81.1970536329263
81.2119645894922
81.3136833604801
81.3754768672217
81.330772626298
81.1487576256808
81.0656468829765
81.047352524364
81.0340505732264
81.1003438044882
81.1449930456152
81.0262232972052
80.9723626955048
80.9133262667451
81.0315851866958
81.0716620997814
81.0874392848676
81.0486080664288
81.0110351745653
80.9297024541967
80.9598386724786
80.9617775241133
80.9303309861304
80.9351088929075
80.9531307703857
80.9472265206716
81.0216206142284
81.057742426579
81.1505536541572
81.0887494869361
80.9692492486651
80.9734576332192
81.0927928851953
81.0307627002182
80.9873705887976
81.0454967619579
81.1526551789924
81.1413076337627
81.1285737828753
81.0825418611376
81.0785639737428
81.0474731863664
81.1019334852539
81.1467766831346
81.1259653486462
81.1270929359402
81.1970083905912
81.1230360603163
81.1379789666348
81.2099842605153
81.2736480594305
81.2119355702033
81.2049683305678
81.2773131969826
81.3324135230075
81.2832965155274
81.243319829853
81.2620282425776
81.3916593269928
81.4666994078414
81.4554853648214
81.4262784985322
81.5722767928456
81.5956670682652
81.6290731842515
81.6829860014601
81.6925937836565
81.6643950191178
81.7577295430748
81.8094023363055
81.8356149391
81.8789806135636
81.905398995517
81.9523902815272
82.0377074871321
82.0434046683238
82.0984735642863
82.1153137612011
82.2128147824898
82.3264759884561
82.4418454036273
82.442580490974
82.4919477467682
82.4208453817067
82.4489105740347
82.5113107660857
82.5876608144824
82.6668983147696
82.6042058250175
82.5378267656247
82.6835484471623
82.7799444111221
82.8218049940968
82.8189623918847
82.8730540139522
82.9799511764639
83.0951789366404
83.1142364400817
83.1387312180705
83.169057819165
83.2095813602435
83.1775629693773
83.2146821774834
83.296448279817
83.3662131363969
83.3695485150468
83.4008459516992
83.4075649148747
83.3993653864655
83.42130503941
83.484530482673
83.4722522078265
83.5309229546257
83.5633834491213
83.6863111935409
83.7442524571574
83.7299196128515
83.7402635662091
83.8296558744516
83.8604087262273
83.8937955043583
83.8746968368701
83.8824937990022
83.8635806325054
83.9078036651956
83.9767774733921
84.1020425738607
84.0863982768654
84.0519031694493
84.1243418753597
84.2568718087806
84.2530228275052
84.2897124896013
84.3828592952482
84.4231266044761
84.4169278086485
84.5071923842057
84.5928086927463
84.7050599788715
84.7181519181497
84.65859388097
84.6549768859832
84.7549170751447
84.8515826732118
84.9312485770386
84.9017132508286
84.9372784022914
85.0007132351674
84.9853095518722
84.9964495804663
85.0582053868585
85.0587981908463
85.1303115354734
85.170881908046
85.2587634595535
85.2755479855386
85.234922863878
85.2513981917251
85.3891872448569
85.4401654285188
85.4161902680855
85.3595672553154
85.4140405768477
85.4491751973493
85.4139341660391
85.3995626036883
85.4528581878195
85.4332148291255
85.2647743096474
85.1550671479374
85.2069499901592
85.2188902524041
85.2151505437903
85.1159893704537
85.0049627352536
84.8782151635316
84.7472161361428
84.6776644938241
84.6369585560695
84.5052842319439
84.4528717186322
84.4469397484826
84.3740663966062
84.2383134327384
84.2056690458251
84.2011710837432
84.216186494163
84.1417251354675
84.0979134252201
84.071904750231
84.0336865494885
83.9656472916667
83.8961090364349
83.7383165166669
83.6148910411581
83.5073956037332
83.4641744183965
83.4378500843
83.3889986623929
83.2705203926348
83.2232389639488
83.251517620395
83.3124576188452
83.362637176511
83.4346387381717
83.5069395835495
83.6178997188182
83.6746159550607
83.763617860973
83.8802826627584
83.9796155373803
84.0263781450786
84.125488538542
84.2181324430863
84.3034558323499
84.3783041783172
84.4869785125934
84.5291295250309
84.5223119554152
84.5862463587965
84.6614662816145
84.7179586476056
84.8244841635209
84.8689881499452
84.8788443593716
84.8552480976345
84.8938807615207
84.88298848347
84.8934683610472
84.9416230214833
84.946499171999
84.9147401195845
84.9530645150305
84.9653713113365
85.0389586052888
85.1247894684792
85.1704749227857
85.1391385967274
85.2115455605816
85.2713751810881
85.3124082649455
85.3209767292974
85.3832918628878
85.4879414234665
85.6085337320075
85.6958628557964
85.7720657777268
85.8949700064787
86.033075579702
86.0992538339049
86.2187663535227
86.2834556707649
86.3572212246258
86.3736865423485
86.3735629428028
86.4443306664124
86.5444517976998
86.6354434127469
86.6865764781345
86.7215832984964
86.7691316312857
86.7965788373713
86.841688617516
86.8831186868827
86.9414135267552
86.9734523422735
87.027085833536
87.0757095601193
87.1171259406421
87.11897674219
87.2084633829624
87.2610370334387
87.2908711149374
87.3917709912071
87.4751462529582
87.4775547267332
87.4566023108388
87.4127601628211
87.4497240746339
87.4694268209824
87.5085943739766
87.5961369025989
87.6406890264911
87.6291326668863
87.6674131366138
87.6776354026451
87.6959157287473
87.7217667159299
87.7467482975343
87.8100433588535
87.8927618944381
87.8837020766105
87.8684747923452
87.8617351868299
87.8805776510301
87.9291483622561
88.009132936252
88.0599080956637
88.0798364926092
88.0828390479591
88.0955798821204
88.0852066599031
88.0926511443911
88.1247215745313
88.135475011212
88.1359990602033
88.1769337326625
88.2189767973448
88.2536721606471
88.260576036777
88.2831876099705
88.2419423460925
88.2828975494329
88.3676059177987
88.4010499933524
88.3800408953891
88.3865227227723
88.4605681413686
88.4973718780097
88.4533434042473
88.4725819378077
88.5127964430487
88.5183448186559
88.5321460736615
88.5630893767672
88.6090218749978
88.6742115397438
88.6866576982161
88.6643537682862
88.6882915420696
88.7240475592243
88.7333022319144
88.7237437848817
88.7532372977334
88.8477883222394
88.8648449736049
88.8655580521013
88.928525731961
88.9402491212324
88.9362641344112
88.9471838042665
88.9836319392361
88.9900865233355
88.9353822103986
88.9140548467975
88.9324579071763
88.9924628064199
89.0296957243851
89.0320060023326
89.041984449786
89.0804248048105
89.1133755428628
89.1139624057775
89.1170293794589
89.1603568944473
89.2100937910311
89.2539481352992
89.2864198654588
89.306882529012
89.3455385326529
89.430429309776
89.408605097687
89.4212356610279
89.4519521072674
89.4910869930281
89.5874666601971
89.625935431782
89.6410942817536
89.6957583918415
89.6453193384366
89.6522181641417
89.7495115404055
89.826713172598
89.8455641099152
89.8703756544744
89.9112769459234
89.8892618101747
89.9509780979663
90.0436339132351
90.059464140548
90.0659981899975
90.0732314474517
90.1136926716076
90.1611054347742
90.2173315815697
90.2981089860381
90.3247661836824
90.3034904631647
90.3042450356792
90.2555482205909
90.3765690725959
90.576906515363
90.4811591708091
90.3894899148205
90.4523755769258
90.4482002999405
90.4268637974914
90.4197568387308
90.4259514683126
90.5573205070937
90.6987405637999
90.6603649766642
90.6483744287666
90.6706424606254
90.6876990547305
90.6879609275081
90.7537326769193
90.8579207613672
90.8505617632073
90.835341229442
90.8892419590491
90.8369513988509
90.721872127781
90.7094104070846
90.8165550202051
90.893888214076
90.9081001243793
90.9044283452071
90.8387880481076
90.8348626859239
90.8970134491394
90.9633643868161
90.9906159544549
90.9507983480971
90.9673573981662
91.0084939081405
91.0343293114964
91.0906223520798
91.1191775985291
91.0834838271936
91.0351128329303
91.0062011008473
91.1012559198204
91.18674873468
91.1779568291626
91.0985585148739
91.1007093152622
91.203539958398
91.1935236800444
91.1550100425722
91.1314428509309
91.0903054269144
91.1424470192129
91.189941376791
91.1648030938678
91.1481111972414
91.2096045318322
91.2828706432455
91.2832392890317
91.3264804905403
91.3677513861988
91.2723624908117
91.2096576498954
91.2306489153266
91.1742234534341
91.2099433042396
91.3497424637218
91.3919798917413
91.3355616870562
91.3061718875254
91.405513740668
91.4062400033887
91.4008651624004
91.4077957736228
91.3898898808855
91.4671398837889
91.5122102824379
91.483476051543
91.540345637874
91.5047419580185
91.4228738772381
91.4609639212253
91.4467093602231
91.4791729410063
91.5514421953466
91.5102235573364
91.4832658796878
91.5406460909538
91.5789415850431
91.6055008409111
91.632859416911
91.6225688238312
91.6029651009992
91.5429004007817
91.5207649579894
91.5970019346071
91.6495411312401
91.6153461207774
91.6656304892646
91.6216266569717
91.5406309275793
91.517712543214
91.5523481000336
91.6173551399929
91.6309115759681
91.6390577076493
91.6412715549258
91.6438224461819
91.6930455079831
91.6859896875993
91.6801234000191
91.8368238748234
91.8615271384862
91.7068166396682
91.685914716448
91.7871792132543
91.8719160815524
91.8662832738449
91.8501168722908
91.8871653780514
91.9037724647437
91.8058185799822
91.620046018205
91.5461059102784
91.6051743957538
91.6145272517167
91.5794504553739
91.6558657393398
91.7262862709073
91.7478872813376
91.7539287882319
91.7378823264293
91.6763966216631
91.5815867098288
91.5231238347551
91.4983401511931
91.4843527416439
91.6047220862841
91.6765235069462
91.6833221316493
91.6721165630308
91.6703631093608
91.7551290856706
91.8208356339674
91.7858849437801
91.7254979864108
91.6889250680323
91.7772461182418
91.8914261201768
91.8874461787876
91.8376999169949
91.8498612191028
91.8875484173384
91.9808743934645
92.0399759292552
92.0097076439079
92.0312278112543
92.1647459561155
92.1390931569038
92.1645864425536
92.3706135847397
92.571250796126
92.5297800082266
92.4686795530227
92.5067133473992
92.632100299035
92.8039212109053
92.8677580941504
92.8561286920761
92.9077086580035
92.8840600332553
93.0364576822882
93.3119216924524
93.3957115283034
93.1865106355897
93.1255876177464
93.2885866969073
93.3778951945333
93.3392744661616
93.337477383031
93.3962573131295
93.5095610811513
93.6532832116906
93.6216809280974
93.7615473538415
93.7912772009278
93.7148345634041
93.7813920220229
93.8495267716546
93.9667809500165
94.0885718107395
93.9606785560338
93.8786880212664
94.1397657212924
94.3282872550023
94.3941607142328
94.2983861058198
94.2875964940233
94.1895822690821
94.430886926932
94.8169771033022
94.7658449433967
94.6207251052278
94.6654544556294
94.7320147781628
95.0408085758087
95.2018296147318
95.0956855191734
94.8336976615504
94.7323868880141
94.8584862939938
95.1513951009279
95.4803810617145
95.6672925572109
95.8041075938979
96.1464078962468
96.2124026347079
95.9608525652917
95.9260525268911
95.9360221339456
96.0393369516543
96.1426040805477
96.2655999647576
97.0033002685641
97.191171841105
96.2275160966847
95.7881535348911
95.9169527715808
95.7721610594947
95.5967352602348
95.112266341417
95.0762551701319
95.3201910238217
95.2324350102862
94.8364217839961
94.6271695045337
94.5263827050922
94.5669227205942
94.5266891157501
94.2491316336078
93.9369107263392
93.7667175418086
93.7762242412435
93.8801831514262
93.758269889518
93.6631832548002
93.62236783716
93.5906595035376
93.6492625354772
93.7013504765932
93.8136345875207
93.812386126037
93.6110752445653
93.7579461979944
93.9409191545903
93.9221254420523
93.7650151659525
93.8160750801791
93.9072959010933
93.8660999712031
93.7978441123746
93.8373361455904
93.9746541541376
94.0048671500421
93.9483386050468
93.9294517532961
94.0105747072976
94.2001223748765
94.443555079362
94.5266909898561
94.5274218157029
94.4396285781092
94.4723197505815
94.607872505813
94.7783627770734
94.8105172478442
94.7326231766081
94.7906756401519
95.0358530549535
95.1227137031726
95.0015704653067
95.2280167425909
95.4365226130986
95.8387300584747
96.1609032326724
96.2524650276765
96.3763859112067
96.6346424597956
96.922586987962
96.4590788170238
96.2791330293236
96.5063593224759
96.5580634700694
96.7923649391913
97.0507719625823
97.1218342250653
97.1810398788449
96.9643982775919
96.4387155982351
96.4321213281743
96.8120310520568
96.7228211440185
96.5314123659667
96.813388145382
96.8729604134736
96.7763685686155
96.5092218913983
96.1109796060166
95.7940255806468
95.7172964526021
95.8629537011622
95.9002882490432
95.858961319779
96.0351303668507
95.8110015556366
95.6591896213539
96.036312704144
96.1323556291971
96.0599798049389
96.051490541403
96.4271843810801
96.9971571918896
97.1337759414864
96.9617418539503
96.7759615139454
96.6547102533277
96.3408726393122
96.185537523923
96.1944976962231
95.9608308306614
95.61055967091
95.5457741702436
95.5903121300939
95.7209233503437
95.5220415185817
95.3757420941284
95.4018715030455
95.4656194211581
95.2759952082759
95.0954988574255
94.9607771405758
94.8346580343198
94.8215574913289
94.8610660884079
94.6853107207033
94.5105055326478
94.5293757376377
94.5678236591332
94.5494067450665
94.5894175942057
94.6795570538988
94.7783489246042
94.5679947467976
94.3614012902102
94.3958658905451
94.4697837959381
94.3353665100298
94.239822954746
94.2157776006831
94.2213074542834
94.3689299755381
94.3627018280462
94.2005828422863
94.2976774425266
94.2924264919348
94.2158359000711
94.1679986794839
94.0921743644189
94.1084208532649
94.2290881145478
94.1754857329292
94.1159098828924
94.117863291077
94.1779174623196
94.2292196562565
94.1645429693428
94.141403860997
94.1665411024636
94.0767568878488
94.0755314758866
94.1499506133904
94.165996946087
94.1617961569909
94.1446651027148
94.1065975928988
94.1006657325686
94.0840544653784
94.0513820825962
94.0505683702537
94.078398659135
94.0617521745083
94.1173903826432
94.1728877130744
94.2064418964329
94.1662178069567
94.1512365079198
94.21249575351
94.1857764255709
94.1813138307002
94.1715241239625
94.1283675636744
94.1547091923497
94.1669293931846
94.1407310188839
94.1500166402318
94.1546676863471
94.162876033237
94.1849799131596
94.1602648228902
94.146473489857
94.1504159915411
94.1608186189296
94.1652521571667
94.1578743884884
94.1418924740323
94.1516162350889
94.1577010934248
94.1647711444756
94.1076555089437
94.0626908793328
94.110558930313
94.1539449714831
94.1192456005691
94.076902768065
94.0353827217888
93.996154416471
93.9959376137836
94.0119666485601
93.9695996896946
93.8772069934119
93.8062332295825
93.8188972268265
93.8032862264001
93.7553692528788
93.638559068321
93.5501939024035
93.5166782219614
93.476805288753
93.3508070110678
93.2858139922267
93.210949842884
93.0617704379554
92.964760541073
92.893334828141
92.7674437372365
92.6430349729696
92.4836941881189
92.3526355821017
92.2786145790346
92.1451824735132
91.8941658164197
91.8278745251554
91.816872378198
91.698454532713
91.518199658983
91.3196898664599
91.0919349862684
90.9038957332395
90.6547637753475
90.3323309965448
90.0672443659855
89.8610495694983
89.5979688458525
89.3134714023202
88.9585852657004
88.5916896371007
88.2500884135493
87.9415745565883
87.4761137712827
87.0429373419697
86.7042649713003
86.2308347318135
85.8047516366802
85.4538739158274
84.9759326037545
84.4638932162905
83.9272963146722
83.2906005230546
82.9662701373285
82.6552033616292
82.14663968687
81.6044908439997
81.0341640412371
80.6054482811411
80.1106440915366
79.5639691815086
79.2178481347367
78.8327272601702
78.2674496299977
77.7886226335286
77.5003548916686
77.1326929521568
76.6195234738348
75.9097267156945
75.4716729609011
75.7632553394665
75.469344152021
74.9074055456383
74.7250222259008
74.6676676276821
74.4094331599758
74.0833848459817
73.6686292563471
73.2502039657147
73.353308440952
73.3989601046101
73.1494292368108
72.8802504538063
72.7384721065549
72.5318789195568
72.3826033771473
72.4652943249369
72.2307787506614
71.8131149432601
71.8006772693314
71.8905200390184
71.6468504949163
71.3543387992141
71.1105008992447
70.9215510815739
70.7183247095915
70.5331589416761
70.359289756438
70.1847669264207
69.9810090534834
69.8177607632764
69.6883574034252
69.5685567743575
69.4208162698048
69.294293170472
69.147074478011
69.0377482986432
68.8882020723766
68.6941615086354
68.3209140057864
67.997321983435
68.206096051768
68.2012739533764
67.7566404598004
67.6047568132521
67.6867254306629
67.5523406460319
67.3932197132627
66.9491956742263
66.1240662139164
67.0962245125309
67.9213965002477
67.9767583758068
68.0203729668263
68.0311362521721
68.30083763435
68.4285034321399
68.4205045396956
68.5633726560595
68.6074841681636
69.6768862942086
70.8078819904585
70.8209110074519
70.7775526972676
71.4549961771246
71.789415270395
71.8403533054973
72.075315591829
72.4062306352806
72.4278751146651
73.1170981786298
73.7413896380478
73.9234402634601
74.3735810074587
74.602013863027
74.6993054203568
74.5830827783484
74.3153549037162
75.7072349781781
76.8577967278426
76.9046857815468
76.7178353934964
76.7297998687937
77.2297797562367
77.9759981220358
78.1293267568149
77.9987233163269
78.3859120374941
79.003012986271
79.3939075648927
79.516101418494
79.5527629871529
79.6656980681446
79.6416304034297
79.507080228976
79.310611267626
79.3404515076309
79.5521117235523
79.2787214050959
78.7247375631419
78.3180017089917
78.2675509658122
77.9777789700174
77.315808351006
76.8048001039895
77.262411415709
77.3660700717421
77.1166784274227
76.8295209508111
76.702410217446
76.8172989453727
76.8714921783142
76.8124007781829
76.7272113529619
76.4509074431194
76.3274644091878
76.7114413945721
76.7452174015404
76.4858082454427
76.303642189982
76.1515780541278
75.7815661980657
75.4139304693569
75.0596433942889
74.4499390405037
74.111931502924
73.9501562948659
73.4810461783981
72.8698769827524
72.3146871369867
71.794909961292
71.2271623507538
70.7289221354502
70.4407433588234
70.1124027777
69.7651243289429
69.6600476286618
69.5636362160747
69.6505073163441
69.7899800161858
69.6910120972586
69.5375387000923
69.6886537212303
69.914612459957
69.970574318068
70.0311943740692
70.1440591132399
70.2471203931046
70.3071304344298
70.6217570666843
70.9733040263687
71.1173482438529
71.3218085713888
71.5193819240158
71.6124909210624
71.941627140544
72.4284515221836
72.6921854397252
72.8238108686633
73.0082714458747
73.2498229517789
73.4657023333057
73.6571539080841
73.8576182334577
74.070462644632
74.2526653008186
74.3225812483061
74.447702031844
74.7591234593891
75.0298672262647
75.1826913032376
75.2490657435158
75.3262340222425
75.4072957155065
75.465517695742
75.5301853719579
75.5797443751424
75.5683942855238
75.5592429805043
75.5804974731777
75.5933187988835
75.5934245419406
75.6241426127506
75.6578305375037
75.6659814509833
75.6948526268712
75.7768892142037
75.861446126357
75.9319558799058
76.0222091132448
76.1458012861895
76.2960326215677
76.4277077283334
76.5462383448488
76.6762405310533
76.7855118889707
76.874497910402
76.9345128637256
76.9892396737499
77.0435354959516
77.0956906165712
77.10515166781
77.0979182881135
77.087237693153
77.0743053041096
77.0613171818998
77.0323256155654
76.9676593696046
76.8912286352138
76.820527145064
76.7909298022772
76.7841152422895
76.7505355672999
76.707028638915
76.6807082392306
76.6243780465344
76.5509001038155
76.4945694265473
76.453922063746
76.3902983337537
76.3321475205538
76.3013721866913
76.2714317873054
76.2577156149278
76.2668393885522
76.290926250465
76.3221182174442
76.3577410153977
76.431503676446
76.5286083340046
76.6130915388293
76.6976010526391
76.8034571119453
76.9305800820726
77.083612037523
77.2596623430895
77.4206559999253
77.5698861589503
77.7326643036993
77.9021900465231
78.1020497060891
78.3147241474176
78.4979767382492
78.6846208372304
78.8889847533514
79.0711587670124
79.2355788651577
79.3961082921445
79.5228925982622
79.5961740844038
79.6547510219348
79.6761571042718
79.6627674218753
79.6479702612845
79.6032386587888
79.5263145374672
79.4187656596419
79.3177952398852
79.2285061722892
79.1190237788069
79.0173834432878
78.8888791473139
78.7403722171262
78.5956283588754
78.4216310111225
78.2318194407978
78.0720090135317
77.8886206103018
77.6895065037067
77.4939189452685
77.2998223337186
77.0798951591104
76.8721646318473
76.690417212721
76.4702643591168
76.1815324302984
75.8977981320431
75.6116477453686
75.3031705427531
75.0071943926708
74.7204168541892
74.4254607765936
74.1707138910716
73.9765947159932
73.827068697827
73.6773207635483
73.5414022573193
73.4241329201045
73.2814944655757
73.1329390065047
72.9774743573043
72.7568575220932
72.5073360173463
72.238604443776
71.9233332979346
71.5903740606642
71.2667236868928
70.8949368537109
70.5166109993329
70.1430310113482
69.7849787711633
69.4469614901569
69.1053381463251
68.774386470975
68.4684865258957
68.1555050517096
67.8287986408238
67.4998702068345
67.195961432512
66.8866009971131
66.5928125046309
66.2815757553565
65.9679245523227
65.685436173702
65.431182805466
65.1720126198825
64.9061021711678
64.6250363172872
64.3522384433071
64.116981013578
63.9368376660626
63.7681113916634
63.6408760415361
63.5176662167153
63.3777634390259
63.2331958712054
63.1074019911347
63.0009322116457
62.9234262597566
62.8343379830385
62.7596459557522
62.7164091330871
62.6940407328722
62.6973495041162
62.7758462282137
62.890126779353
62.9851620892565
63.1087136466393
63.2995277830479
63.5148221993973
63.7833136926096
64.0977837128682
64.4520848264996
64.8259427332472
65.1878355931199
65.5774700147926
65.9646109387012
66.3378314717543
66.7179711530638
67.0627708446339
67.4097190016643
67.7359735867219
68.0328194638006
68.3270789807817
68.6088197077276
68.823203619647
68.9888643621182
69.1531886253554
69.3099671271307
69.4306984046655
69.5542104235984
69.6823430652823
69.8802381036073
70.0751475808145
70.2643957188212
70.5099994096457
70.7924654674047
71.1048308074262
71.4177132945893
71.6875176713192
71.9334970669503
72.185105508005
72.504146602855
72.8371547334341
73.1410689168418
73.3987487572405
73.6602991508944
73.9230278492568
74.182688182811
74.4558256300795
74.7069206508659
74.9007030934473
75.1068182530482
75.3282774190102
75.5189446687193
75.6812587719124
75.8138483409189
75.9617925947323
76.0996886876303
76.1771189733298
76.249791723962
76.3260834372688
76.4075148278272
76.4804512528134
76.5633692445167
76.6775829874159
76.7870522739361
76.8876323686009
77.0286658626674
77.1518161209976
77.2749260392246
77.3647157004382
77.4164547402602
77.4691446593169
77.514184405026
77.5667806842201
77.5849392375945
77.6164772553379
77.6876247017186
77.7285825362123
77.741513461039
77.7606838211996
77.8152453652342
77.8420451426911
77.866809798376
77.8742958211648
77.8928341215227
77.9131859952998
77.9499869997134
77.9687989638612
77.9527155363683
77.9329618580031
77.9500341630768
77.942491416003
77.913537226194
77.8650847448543
77.8266709890297
77.8000824578533
77.760237484847
77.6512852616696
77.5490825920759
77.4113204244837
77.2887778345683
77.1858498756527
77.082708207185
76.9582682775864
76.8031537913065
76.7061568569058
76.6628884293361
76.6199464774787
76.576706880925
76.5283154720012
76.4532715475815
76.3882575576413
76.3419244415239
76.2809282547474
76.1938871224793
76.0410659878309
75.9020948855643
75.7538368693484
75.5795582187036
75.4278176759819
75.3307072020387
75.2501483825953
75.2129173145
75.1980950361392
75.1648674072681
75.0772015188076
75.0115591434099
74.9278527237041
74.844806925052
74.7615985404647
74.6852989732132
74.5548250132508
74.4468847748927
74.3448728644225
74.2768972458204
74.2242415565566
74.167440211179
74.105026785751
74.111458094411
74.1137330484438
74.0398346664532
73.9452880643142
73.913537991517
73.88727286023
73.8162470908909
73.7071643295898
73.6123771606967
73.5422967450006
73.4677058807098
73.3585671285863
73.2902041595744
73.2572831005246
73.2146955662145
73.091384046267
73.0017744894368
72.9234082328747
72.87944202703
72.816165372444
72.7243711217557
72.649703534762
72.5460247959304
72.4269108181019
72.3065683703435
72.1526798622654
72.0648395865576
71.9644509616155
71.8389084878593
71.6736543879556
71.5493192134384
71.4449791195964
71.3061783774734
71.2092908474472
71.1105021068163
70.9049238778933
70.6819818977842
70.482402734802
70.3319123715281
70.1716604005158
70.0409254825308
69.8943601082125
69.7840022376833
69.7267533623077
69.6764099146347
69.5723236098673
69.5347784259165
69.4938059663481
69.4111741910792
69.3004625465087
69.2145231219122
69.0824881834557
68.9398244530418
68.8054133545142
68.736341734082
68.6491357558878
68.5460244459959
68.3328478811214
68.4698158926194
68.4281259328356
68.1611924790274
67.9625508907836
67.8418928429715
67.7827404099995
67.725667207431
67.5707896003
67.4275697174753
67.3255756547277
