1798
3999.43349933624
650.420452594757
1
128
4
94.2785143382252
94.2847137571059
94.2090398071211
94.2359182109947
94.1354243047521
94.0424596393336
94.1185225495983
94.2535917417342
94.250261743522
94.2489487949765
94.2364898219335
94.2744696193969
94.2198519281439
94.1744838323547
94.1559621747723
94.2455284715026
94.3248502422818
94.3099442761626
94.2243145573059
94.1889684221416
94.1495716161758
94.2042194931274
94.2111927937053
94.2800264958196
94.3420079574744
94.3010063108146
94.1825892841806
94.1898015554912
94.1684896364151
94.1424999384052
94.2379711639006
94.3238278662836
94.3138747455271
94.3977828431994
94.3576641189048
94.254725806902
94.2035970227618
94.256511311078
94.3048983077881
94.3347788029139
94.2986813718863
94.3208045522386
94.2412881310829
94.155794606766
94.2570020833851
94.4652343380309
94.4977600163346
94.4322879328148
94.3876729580927
94.3385821639119
94.2105866734533
94.196468618784
94.1984711876107
94.1756104325718
94.1414467320337
94.3073272145366
94.4552357404726
94.4547811302218
94.3674236614146
94.3962002205427
94.3974335198347
94.3951854359888
94.4146316859974
94.5112574447018
94.3963942450898
94.3707710727824
94.4973826249509
94.5311452351839
94.3580009309059
94.2762588205447
94.2933658006419
94.353865207832
94.4540251735599
94.6281958645948
94.5496406623426
94.438134906439
94.3619140739466
94.4448717291756
94.4249188061431
94.4417075779808
94.4176922455986
94.4382512506194
94.4626889582062
94.4223352749244
94.3545240882319
94.3920964415174
94.3700756236806
94.4423663013352
94.4209185721014
94.4556043593363
94.4997290668132
94.5665188612301
94.5408919762987
94.4709301256982
94.4509131426924
94.5051055314692
94.4987058869511
94.5869654185566
94.4682320221931
94.4393603509973
94.537338017537
94.5740099542637
94.5758869370853
94.5134829301704
94.4286751667856
94.5028834221204
94.5075006147363
94.5508183734477
94.5990959920625
94.6692318578602
94.6162929574786
94.6121103525864
94.6486382907423
94.6192717996802
94.5768971600889
94.5628229723448
94.5171010754365
94.5371344926577
94.5573416706757
94.5740519898331
94.5461317319564
94.6120334771581
94.6546923049867
94.5650976243609
94.5620340303328
94.6188219402962
94.6164769987759
94.7137352989603
94.7642476026352
94.7535595249375
94.7359114168442
94.7971612769046
94.7075240116303
94.5418915567031
94.5766970297826
94.7401773333338
94.585340251593
94.5748074672598
94.7110235790752
94.8248126492245
94.6832192279486
94.4643955334368
94.4659485057936
94.6422321683108
94.7393705800094
94.7856439069131
94.6360435842243
94.5855869700129
94.7410460069479
94.914766595267
94.8607241249349
94.8155719215465
94.782530862676
94.7598266602179
94.7150345818545
94.6738346528968
94.744106056458
94.8053859780159
94.784671684593
94.7753387311181
94.6849969601858
94.7175956344097
94.7893353859264
94.83995288215
94.8372064982156
94.8452301396481
94.8260900054712
94.8251052226162
94.8210945278322
94.7246046121366
94.719422693864
94.7337529041321
94.5404468556331
94.4874034129211
94.5705063342945
94.6565692419
94.5539296627643
94.4617039299407
94.4529166108791
94.5848630195602
94.4768344691426
94.3398472571027
94.2863491071569
94.3925534990093
94.4622049197266
94.3611629095662
94.2077192954689
94.1468403298409
93.9732973519228
93.9689394602817
93.9149327023963
93.7276361376359
93.5937060455413
93.6869629995405
93.820971608211
93.9222876463077
93.7438067377296
93.5068312444649
93.3582800076236
93.3065017669008
93.2584405124675
93.1201960793203
92.96732400914
93.0374974254216
92.9649303817433
92.8056202958249
92.6721265157423
92.5971806486908
92.556194076816
92.6356717557758
92.5789941951077
92.4065943050868
92.2226762573048
92.2080047867495
92.074719142238
91.9006339301927
91.8883624670875
92.0146640103781
91.9379037292221
91.7783655175928
91.4894758585837
91.3281899504294
91.4069803174199
91.5738354769616
91.3802511062821
91.067229653506
91.0092110108592
91.0658691528521
90.9974253695937
90.8964489509898
90.8074867847468
90.7124746106366
90.4572349059978
90.3949795868935
90.4805768511981
90.4695929633251
90.2766093490017
90.2006852270503
90.087245886148
89.9872622960176
89.9172458658981
89.8350675409921
89.5699575614618
89.4592980138038
89.3741211290166
89.3022105140661
89.254305849507
89.2939318372981
89.2223106751396
89.150407757475
88.9839888880473
88.8386748851017
88.7700001764689
88.7172137172776
88.6890952719921
88.5725028528276
88.40880125516
88.392500614694
88.3597962114369
88.2682757152249
88.0647884108349
88.0006028261034
87.8908667706253
87.7485491593711
87.6250606000638
87.5728810576152
87.5679825025263
87.4871818862001
87.350287288135
87.3145061800158
87.2126933902402
87.1694538123906
87.0908930302713
86.9850420642351
86.8014171439234
86.706887871206
86.6267044115837
86.6799071648815
86.4945959836516
86.3172262802876
86.2753667147489
86.2717757369951
86.259594937459
86.1962788711645
86.0406844111419
85.9532032656512
85.9414306368774
85.9039112621323
85.7825868758314
85.7411668085743
85.5912718338421
85.6191388220733
85.5875957273501
85.4200736798057
85.2248755487659
85.2039116325129
85.189966368945
85.1803627119838
85.0489010387932
84.998471393747
84.9284876206642
84.7956487949551
84.6893355867853
84.67344888738
84.590534045351
84.534389470971
84.5364328517158
84.4608501591372
84.3244503243348
84.3509732185313
84.2628611240797
84.2204295577166
84.0630326524846
83.8834874872638
83.8020307652916
83.8208034743838
83.7978740886773
83.7383926063613
83.7151958245092
83.6751173106325
83.5603489588612
83.5383732610577
83.5113726878035
83.5222791850561
83.3999359294777
83.3750429211813
83.3269698956251
83.2217246956703
83.1478113604616
83.1409690922414
83.0971754588174
82.9891417220481
82.8934026200078
82.9381286791419
82.9096898842066
82.8803334459226
82.851868692146
82.7861647639061
82.6783613390025
82.6641459766747
82.6104236630136
82.582270111746
82.5518339418508
82.4651557934302
82.3680981765785
82.3993842056581
82.3884708694269
82.3627015673705
82.3413516890309
82.4229297152823
82.3855547185128
82.2592089814058
82.1594430431031
82.2317560328795
82.2147139128671
82.139506363266
82.1497806874577
82.1807655208063
82.0391427987022
82.0435038849005
82.0464416942612
81.9896279988361
81.9652830438196
82.0370347532642
81.9939104462668
81.9926287923063
81.9411760636513
81.9023027652078
81.8542496305738
81.8776237866274
81.890960306747
81.8747822253985
81.8500168814463
81.9053499646828
81.8463976478957
81.7880747275271
81.7028173688651
81.7745383212681
81.834130196819
81.7142182636641
81.5426914501201
81.5983481292099
81.6079295200714
81.5730957986024
81.5989093460859
81.644253911644
81.5309856372402
81.4925628128698
81.5228513930829
81.5721116340614
81.61320850918
81.6495281119853
81.6385866139646
81.5845844097295
81.4790903646863
81.5087045623088
81.5099080860102
81.5144243716366
81.5226446908304
81.5895873824355
81.5764914049896
81.5560064789713
81.5085633159083
81.573735178846
81.4717594701628
81.46310908325
81.582020789163
81.6305012086459
81.5768188915392
81.6558083689152
81.6772125559312
81.635659674553
81.5220162577051
81.5179933097696
81.6150978042596
81.7282847339643
81.6949354945714
81.6575613403303
81.6512651013611
81.7836473316219
81.8293602628066
81.8546103664785
81.7895915076301
81.6845590580989
81.7025355599224
81.8207391354154
81.8535882469868
81.8040872167744
81.8034621706691
81.9457100698902
81.9744154758343
81.9575613151106
82.0022626114376
82.1319262904774
82.1520159070519
82.1428296821165
82.0429123066488
82.0918707544652
82.1789161330854
82.23921286949
82.2364275291864
82.3149070501515
82.3267254091474
82.3722343666209
82.4120769683043
82.4760818918228
82.5136251130934
82.5928102295086
82.5978125459324
82.6017083563929
82.5944200248961
82.639263426919
82.6914396697849
82.8676255690513
83.0331074664249
83.0302072563509
83.036065159228
83.1253645435071
83.0327065345055
83.0306543185129
83.1768984498814
83.3187065248108
83.316038836764
83.2712596789458
83.3113236360554
83.4002519554142
83.4534714670148
83.499358266254
83.4510941477075
83.4669730300114
83.6398909405898
83.8383711978851
83.8608640033263
83.8391741230124
83.7984314357337
83.8697743429072
83.8736103294718
83.9541973421109
84.0086555331546
83.9944882269192
83.9539019634738
83.9908251539102
83.9670011379333
84.0529401769977
84.1478931710636
84.1663675716139
84.1845654756756
84.2643543376722
84.2938358218516
84.3128509452754
84.350389620467
84.4304175166833
84.4487493117723
84.51292651008
84.5610802176795
84.6380620508819
84.6216115021279
84.5640426926963
84.5085247766687
84.5818716239887
84.6753914568663
84.6978911601319
84.7176958548723
84.7927294153485
84.7817332425958
84.7978091177928
84.8730720069255
84.9726814522161
85.0174328092837
85.0425357985057
85.0262275349704
85.098814200264
85.1425090152601
85.2039492980154
85.2702016486471
85.3642177835228
85.4154239405531
85.4251797326791
85.4387824968227
85.5052345245413
85.5161953350434
85.5213703591012
85.5362163607894
85.5893371880616
85.6619987823569
85.7070158016986
85.687313444658
85.800488624926
85.9440859300833
85.9798147955312
85.9524784310828
86.0039955687985
85.990269530125
85.9228165850436
85.8485447038426
85.9221321587264
86.0568422113395
86.0308699730466
85.954429096053
86.0092733279613
86.073213424836
86.0821527742519
85.9534150648904
85.9069070882965
85.8758592260047
85.8650133659921
85.8956736555079
85.8950301837357
85.7889735823732
85.7608165156118
85.6815102379465
85.5551269996123
85.458600248167
85.4430086425639
85.3870811572215
85.3381317330147
85.2511994795125
85.1801026462217
85.2020031202399
85.1806553385959
85.0279390029946
85.009369778648
85.0768175575627
85.0890408834226
85.053496406541
85.0408963004404
85.0078601390905
84.9502805705085
84.8045903924484
84.6797900392313
84.6136785291167
84.5626344954982
84.4927491331366
84.5091608543556
84.518703746323
84.5144604848821
84.4744673186039
84.4929414488351
84.5044239357603
84.523936483937
84.5789547311276
84.7590335190304
84.8918303807156
84.9718246887852
85.040593700389
85.0857742680277
85.1472398565162
85.2212502308112
85.2809322545428
85.4020151231942
85.4744378355857
85.534007126853
85.5812142005093
85.6364451758473
85.7154738893343
85.7958012421855
85.8109940213278
85.7936161748246
85.811206902784
85.8977356233007
85.9108430197254
85.9051621898564
85.9158316195668
85.9228024642617
85.9311394063211
86.0363981056233
86.0767605583622
86.1049294992329
86.158919906093
86.2488501897315
86.2229520323335
86.2192931691571
86.2424363043191
86.2774457731472
86.3046521318325
86.3565411294192
86.3745407763481
86.4115640164091
86.504265164179
86.619370534656
86.7098914248124
86.8401759737298
86.9699909063404
87.0589454638113
87.0910173053448
87.1478792945753
87.1751439346712
87.2504628806299
87.398731361548
87.4904726619647
87.492579856403
87.5600061386907
87.581107731197
87.6213550988189
87.6774425264712
87.6987777389474
87.6930096610003
87.7513562918343
87.8231548358731
87.8595601066024
87.8557264321905
87.8857443819899
87.9640621544726
88.0066422156356
88.021295843581
88.091613736492
88.1248514160499
88.1622164989941
88.1764461958424
88.1964081417762
88.2641092054068
88.2873773094402
88.3060188238969
88.3333259147661
88.3245345570653
88.3902978681815
88.4365363029362
88.5052378007349
88.5606919380374
88.5619793557845
88.5445661260747
88.5780557040316
88.5843594940571
88.5892460244806
88.6391869001827
88.6967364781014
88.6682164873927
88.6523409083613
88.6610550435951
88.6976229212736
88.7216902946634
88.7629214673155
88.8274012398044
88.8947702296378
88.878952612624
88.902860703527
88.9429454852508
88.9527341866794
88.9484842787107
88.9582437568537
88.9665922483811
89.0126003597473
89.0719962907966
89.1265600327424
89.1302122715046
89.1273469987067
89.1393612675435
89.1586217407118
89.1771245153015
89.2322200647511
89.2584949366799
89.2207093213662
89.2376998452759
89.2736920550417
89.277026373225
89.32032865676
89.3707775795022
89.4282309158098
89.4159069084017
89.4294194280254
89.4483289082386
89.4751042244448
89.4759040923151
89.48881048187
89.4962922763812
89.5050240879237
89.5329263150331
89.5798456019478
89.609329914642
89.6625876038751
89.6887684378393
89.7258469864509
89.7469876734206
89.752810034019
89.7542119332214
89.7438726670766
89.7455534459641
89.7336852281608
89.6852240052743
89.6946119006905
89.745775370965
89.7805800745961
89.8099510355491
89.8552545919106
89.8453052497909
89.8637588483765
89.8845705187075
89.916327113763
89.952850410742
89.9648236421342
89.9503241682524
89.9452676859677
90.0060129436337
90.0679839235281
90.13059606352
90.2120189986277
90.2160333020561
90.219162324188
90.2718746613465
90.3120426728682
90.3000077935765
90.319852117865
90.3916479273298
90.4527448568216
90.4156104504919
90.4343317814892
90.4860273020587
90.5006626727582
90.5169143495983
90.5932371813878
90.6300568161146
90.6892056145785
90.7862201979032
90.7508205326563
90.6714601447498
90.6886880226251
90.7266767248094
90.8701015507677
90.9754822949284
91.0304353229879
91.0194913689044
90.8972890283697
90.8215143322269
90.902937255591
90.9905156783146
90.9999944721641
91.0654880684537
91.1124584827266
91.1143588221272
91.1437870659046
91.1579207957605
91.2731656700274
91.302668750579
91.2122277102539
91.2177408805461
91.324547681015
91.4001578121199
91.3951588739818
91.3321939365847
91.3232911849948
91.3496652437272
91.4196731761902
91.4804999412073
91.4837051120777
91.4314913456635
91.4551791550996
91.5201990748976
91.4941744332477
91.5042967259866
91.5376989838025
91.46598241557
91.5384155522
91.6310037724432
91.5958316338776
91.5512013850498
91.5768201381748
91.6464135985521
91.6591827735744
91.6458057462483
91.6917773949341
91.7174125101016
91.6820707767458
91.6790826361558
91.6948240112424
91.7117249906792
91.6873461138556
91.583662601083
91.6655000140453
91.7879387244875
91.7478913166932
91.7274446271083
91.784559689299
91.8073750091313
91.8198534132021
91.8065619311438
91.8346488609627
91.8490108086439
91.9012072061071
91.943932173382
91.9349743953465
91.9026360447791
91.8907732741131
91.8209435994597
91.8383213272191
91.9180942062501
91.8994789205764
91.8815472578095
91.9849767700787
91.9912629133282
91.9681802299236
92.0013324085201
92.0011456156436
92.0618409209282
92.0785232812816
92.0833038149672
92.1388781380226
92.0978877064502
92.0429176666945
92.1430062164671
92.1599864609005
92.09756331085
92.0544641160301
92.060147791403
92.1205059103538
92.126288607257
92.0895986045029
92.1148104754477
92.1552742381177
92.2071123673516
92.1935149297618
92.1163265785569
92.1311953176705
92.1496925081014
92.1603829099525
92.1894763571113
92.1616279742706
92.1566964936367
92.2471989281797
92.2781038285795
92.2411115690304
92.1973355966838
92.1886706434636
92.2753608207345
92.2685491228905
92.2257964618965
92.2240810732269
92.1830102781914
92.2254567513493
92.2930771238495
92.2742655209806
92.2098250963048
92.1849141549251
92.1989183930895
92.2804932620702
92.3367440783281
92.2629278855466
92.3031815582242
92.3447656241889
92.3884724149383
92.3919625805078
92.3546150053044
92.4261463452298
92.4238641287054
92.3207763677821
92.3260439598064
92.3667201667063
92.3174903895554
92.2115767071002
92.1612876396874
92.1690261453467
92.1386047206503
92.1447872879253
92.2249143110657
92.2828951251043
92.2822536481485
92.2702271493549
92.2177314934412
92.1306617156463
92.0784287731501
91.9759184561887
91.9272658709148
92.0205776785212
92.1287417393474
92.1202743794892
92.2129750180627
92.3114273306771
92.3168312583468
92.3162530595956
92.3082172246538
92.2699341925451
92.2778397821977
92.3223467213201
92.3273104141567
92.3838956427392
92.4513450900841
92.4254334265313
92.4511798162641
92.4442484369886
92.4313884994681
92.4826706800487
92.5981346586258
92.7102031238989
92.7307697985985
92.7801689198926
92.750443462602
92.8199523140188
92.9295819271683
92.8758510457639
92.989178064641
93.127378648144
93.166576814451
93.0962248494426
93.1738311903514
93.3606420312969
93.4692283367536
93.5579010248874
93.6643700310879
93.6678818946975
93.620325559187
93.7484842899247
93.876425757669
93.6816302832706
93.7492050711369
93.83280956132
93.7631539647361
93.8113630490363
93.8740235919825
93.9999243603681
94.1809749276879
94.1988936697935
94.2996059533001
94.3146225827066
94.3446726770644
94.3777976697633
94.2664109252752
94.5347593629786
94.7508873223139
94.5898672431601
94.6217214363249
94.5736939750803
94.5173236688126
94.6031245532134
94.8019246854708
94.9100290343682
95.2360558267876
95.3223484995228
95.0671932989318
95.0008215729584
95.1093212982676
95.1676098240414
94.9501127239343
95.0321310096969
95.3867548318545
95.6316617559484
95.6567887045651
95.7570400912607
95.825815645609
95.5391070929199
95.6523796545174
96.0341839004923
96.3313175471398
96.3899080928462
96.2459368281909
96.2914869991497
96.2147398388739
96.3664402412093
96.4655368548586
96.8799149696137
97.354026105778
97.2217748979877
96.7999170571596
96.3905941606416
96.2873150456418
96.2137739421018
96.1463481190529
95.9482786831784
95.7078704961597
95.5285894081776
95.4404811806492
95.1818299489645
94.884983513579
94.9166090179014
94.9890197914085
94.8398306043984
94.5656374082172
94.3293053809121
94.4028488913801
94.4597585541765
94.2540657440773
94.0756154607753
94.154713577294
94.2049357339565
94.0765240874657
94.0222894440036
94.1965845382279
94.2013797556731
94.2295858324965
94.2888067464279
94.1714752259783
94.0274623292539
94.1272685112452
94.1222218176228
94.1937812889403
94.344070178713
94.3943066269277
94.3257510329373
94.3087561851488
94.4243388872452
94.5666626609635
94.5129190361172
94.4537967670902
94.5604236531905
94.7662956694867
94.7511006025177
94.6335142548244
94.5498278158896
94.6548709322935
94.9690058362503
95.1783905666123
95.0878114240989
95.2757931416008
95.3252362133502
95.2323961685535
95.1765401239952
95.3016163094873
95.3056332753921
95.3974735299429
95.8408214689827
96.2999658760126
96.1059056773032
96.0305337222504
96.5408530340139
96.6660150452255
96.5960442815137
96.7661301083199
96.9665995132812
97.0061185775061
97.2483621725425
97.5149123860811
97.0168649520847
97.0354722276849
97.3994323378383
97.0680795995676
96.8454348287017
96.8638987036233
96.6269870520057
96.508398173984
96.5559309122835
96.8229920596219
97.0235555239712
96.9720591247241
96.566115618314
96.2037988319666
96.0882289551663
96.1551923148295
96.2371408366374
96.4153823957278
96.5191961036004
96.4894988850404
96.2996976554819
96.2165230069964
96.3151862552212
96.4900950040262
96.4343295856582
96.5807585055869
96.8129717686841
97.0918321630393
97.0558543866501
96.8403785814368
96.9020186409841
97.0599501532111
96.6235599430726
96.2105948684545
96.1532420444907
96.2237081935387
96.1911405669369
96.1114379706159
96.0871952429375
95.9298401826178
95.8033232230499
95.8785822705401
95.8497260339702
95.6494418641754
95.5613055771199
95.5852042560201
95.6063386215427
95.5474539756361
95.4153939238366
95.284219808906
95.3001200705989
95.3250792252844
95.2796509932735
95.1452806625608
94.9511248825041
94.9287859619111
94.9656908519043
94.9784107451094
94.9191806053365
94.8483913830526
94.7810940384093
94.8034205621095
94.8199938952372
94.8965732708379
94.9048792833134
94.8556671872245
94.8164339253099
94.7610525050493
94.8304325094771
94.8249782445047
94.6540625648764
94.5793794246575
94.6679344303038
94.7546723514444
94.766933752673
94.7474297409816
94.7215399195337
94.6886005120344
94.6494277343769
94.7001192787385
94.7815044811239
94.7555520648666
94.6445120233896
94.6001850899486
94.630344463441
94.7300062927208
94.6609016223848
94.6475492821017
94.6612399088208
94.6587448812409
94.6576208860273
94.6126994279665
94.5942697788104
94.6754328425997
94.7030938579073
94.6978239653808
94.6970005277335
94.6964657021965
94.7154925513545
94.7253373194371
94.7418608747846
94.7311060386883
94.6746780794061
94.6512465529259
94.6467808580101
94.7008520478808
94.7388233698016
94.7522705036394
94.7293848750636
94.6882489957757
94.6834010338207
94.725412693056
94.783184589299
94.7948115989215
94.7183559690027
94.6776240621488
94.6770527761515
94.6705769324149
94.6574614796424
94.6072434927215
94.5561344450897
94.5859229085631
94.5951135907578
94.5807971695662
94.5328682947306
94.5441328003094
94.6051844190494
94.5761941454699
94.4439716592755
94.3664553526666
94.3504967537316
94.3449486475969
94.3571772257581
94.2674193214863
94.1152524328378
94.0262871433142
94.0006607524451
94.0164704308368
93.9463900187618
93.8582686696717
93.7791944643515
93.6557455542088
93.5570088600527
93.4869908432669
93.4095622689935
93.3532101560681
93.2060130768552
93.0402488815619
92.9631965349485
92.9208552706449
92.8360818539769
92.7124165005045
92.5998102755734
92.5096054208093
92.4334432862392
92.2441991741647
91.9578530613553
91.8987418453243
91.9068547564021
91.7921015142773
91.5810881935651
91.3757874881271
91.1268089933873
90.9042192464388
90.6024864684384
90.3183741098116
90.195112034039
90.062375336705
89.821964486286
89.498633895071
89.1379619792633
88.7637461679239
88.4143347252627
88.1541107756116
87.7732479490261
87.4407123981301
87.1707572510875
86.7785169577381
86.426668697162
86.079194449928
85.6096619828279
85.1399411433259
84.6550438568677
84.1008345936878
83.8359157681874
83.5499555108777
83.096449553414
82.600591649188
82.0926768347515
81.710410684679
81.2648796699329
80.8073825426598
80.492135818913
80.1328282422253
79.6176562155573
79.1992653871722
78.8910161530143
78.4767151212127
77.9632968643373
77.3198521063647
76.9156640530085
77.1281190222572
76.8528983963449
76.3210522529767
76.1154475737306
76.0375514417479
75.7154361367839
75.3342458908726
74.8718944822378
74.4768898642377
74.5587389687901
74.5828471706732
74.3157680783186
74.0035905191359
73.8067236078914
73.5961025210729
73.4256713572226
73.3608027319642
73.1130358600958
72.7557835293882
72.6258293619489
72.6076443171291
72.4019030329743
72.113648386558
71.8299902413496
71.6357846291818
71.4287034649441
71.2145741108592
70.9757312427008
70.768470868192
70.5387135909986
70.3473065520449
70.2090168649355
70.0686917774377
69.8927607798916
69.7602719085471
69.621901835649
69.5110904820433
69.382367084854
69.2544927225644
68.9104287536154
68.6118536163481
68.9061232125092
68.9647682040147
68.5959018296663
68.5040093673206
68.6138477447108
68.5564621325373
68.4706301664601
68.0413053681522
67.2167160989668
68.1145257307514
68.9281966027747
69.0650992344668
69.1124039509875
69.1184528158635
69.3488609196228
69.4685481437606
69.465763799349
69.5656810739675
69.6315816011469
70.7503800912214
71.8713961145382
71.8855981910833
71.8306396916903
72.4818871228312
72.8467482990621
72.9537985528697
73.2112571724279
73.5868701581741
73.6324140212501
74.2465752418631
74.8374307167962
75.0930140796088
75.5364952089814
75.7367954965907
75.8350347136567
75.7103119253232
75.4664930137989
76.8114298885961
77.9334219843548
78.0171618028768
77.853338823547
77.855734020875
78.3318227958337
79.0324288334687
79.15443074648
79.0152080637287
79.3900197267576
79.9915548649377
80.3680889045345
80.4700856206788
80.5196798804015
80.6085320417014
80.5347520241033
80.3868282407061
80.2362395407701
80.324569845
80.4892476960031
80.2033863777966
79.67203719961
79.2913588768556
79.2370255820088
78.9614780216233
78.3476420751902
77.8769964929642
78.2855708194018
78.3556276696736
78.0905695504609
77.747006871203
77.5459918500652
77.5778900381749
77.5466787841667
77.4405874351054
77.3332216150416
77.048240912271
76.8545375557988
77.0951151347935
77.0540644508221
76.711999524366
76.4561472365448
76.2526730994457
75.8811046526211
75.5004419092997
75.1195269541172
74.577273975438
74.3248918942607
74.17395990365
73.7614799423231
73.2632464967956
72.7972047123191
72.3894005813051
71.9796447450304
71.6040868937187
71.3933568014069
71.1388228635924
70.8138349760323
70.7123052146459
70.6480277470426
70.6978044276821
70.7789218022963
70.6431965117709
70.4564367238192
70.5495977815197
70.7282271694234
70.7612457877575
70.7833700666635
70.856728611109
70.9283441796382
70.9553640432129
71.2233339015824
71.5346640703638
71.6844247309402
71.8830080971677
72.0406929748334
72.0689935599542
72.3712107248269
72.8516798021529
73.1123181135654
73.2465581247537
73.4168448966756
73.6530548112325
73.8697589521588
74.0791572152655
74.2826190836838
74.4866510217484
74.669548732443
74.7659719382605
74.9188608967785
75.2443953892992
75.5051792099148
75.6398167938361
75.7077358317694
75.8073577294458
75.9129494281135
76.0099721193269
76.0730097683749
76.1161008363848
76.1321835273213
76.170689501742
76.2500223439275
76.2889871151709
76.2935705325765
76.359708858437
76.4342240153463
76.4773629874434
76.5456691463898
76.6230029060046
76.7002677890196
76.7922156407516
76.8982702669912
77.0120953449144
77.1331401212305
77.2706681397127
77.3982873489251
77.4988191435191
77.576455305676
77.6667605779805
77.751514185132
77.7938996066662
77.8176538335303
77.8564726594121
77.869657236674
77.8586164869111
77.8469391790944
77.8501032986515
77.8568396343699
77.8418544622554
77.8113442207442
77.7590790976113
77.7059429546047
77.6890246502924
77.6732936424406
77.6388391562824
77.6081059611709
77.5996655255986
77.5761251402467
77.5203920924957
77.4718214399714
77.4334951793374
77.3992087533563
77.3813750795285
77.3598601316441
77.3632445673811
77.3804476660329
77.3680675211242
77.3641677418049
77.406900086133
77.4591212120518
77.5326856328348
77.6055550283312
77.6714037504205
77.7346868494684
77.8229183653248
77.9217537979417
78.0383016636301
78.1584885770377
78.2948312090472
78.4206477596925
78.5511969769664
78.7145951380825
78.859625618575
78.9830112864441
79.1446203024097
79.3160660202642
79.4645158647264
79.6213172753663
79.7758003505039
79.8797151274038
79.9698409668842
80.0505951199436
80.1150464069
80.1433329007062
80.1215757204796
80.0983138770556
80.075657311272
79.9890001685506
79.8819874251144
79.797165944872
79.7155761313126
79.5991569829763
79.4807457514682
79.3777649246464
79.2734042495707
79.1468001563007
79.0174308867221
78.8816298844512
78.7255143111322
78.5432321533497
78.3491649943597
78.1764038311841
78.0133787387465
77.8496091612244
77.667278501798
77.4694184645351
77.2593831969765
77.0185695013008
76.76789489216
76.5068112260433
76.2146059087471
75.9179921387787
75.6385777185195
75.3737867506758
75.1647268409641
74.9833397407695
74.8085773008978
74.6663003983744
74.5294638995052
74.36955005804
74.2313802984993
74.0902415902901
73.9474707505327
73.7870196792629
73.5692409869381
73.3002437580405
72.9990407167961
72.7161795340624
72.4326185700784
72.1156582192349
71.8074812444533
71.5052057299257
71.1815387901455
70.8652920927722
70.5751105447143
70.2686804787775
69.9576713669831
69.6706266798081
69.3947614854872
69.1257552795648
68.854673075205
68.5560949138394
68.276314360165
68.0259899286809
67.7726499773711
67.5346880234764
67.3048480536034
67.0565471425096
66.8400779340887
66.6082171648009
66.3838258204709
66.189682878245
66.0062357314351
65.8151663647691
65.6550517260362
65.4989940926046
65.3561537744514
65.2263947006414
65.1094405903195
65.0031567788353
64.9204181131868
64.8305941205088
64.7609087400308
64.7379085209274
64.7694122971436
64.787698590616
64.8338710991893
64.8993540971573
64.9816467106813
65.1085240953751
65.2771843814916
65.4631618665049
65.691655558846
65.9444026852114
66.2351158246371
66.528600441668
66.8313723842561
67.1653547286904
67.5195781483364
67.8677045392623
68.184106133151
68.4930336098034
68.7939362387266
69.1001877328729
69.4202407066598
69.7204918479314
69.9734573091009
70.19113272988
70.4214695461012
70.6099869374923
70.7863819821404
70.9664471712931
71.1285999683658
71.2953408504847
71.4738434280429
71.6898915428684
71.9192658528633
72.1530762192347
72.4363079431926
72.7060077168774
72.9642464064803
73.2342607773332
73.4993011445437
73.7357615981219
73.9899162920257
74.2060726801681
74.4434725505685
74.725442688641
74.9710130774394
75.2010378666897
75.4372213789611
75.6817628085034
75.9090796511681
76.0757235383665
76.2731372481275
76.4539136158601
76.6148402969283
76.7824902803168
76.9376215645314
77.0591939193851
77.2058505741552
77.3349842969863
77.3850874083205
77.4559664742023
77.5511917319928
77.6186491403102
77.7035697815232
77.8001932844764
77.9240769985758
78.0389422497407
78.1327047667015
78.2411658249668
78.3383228582009
78.3922513275933
78.4661230005167
78.5490271294531
78.5973264625726
78.6408406600967
78.6847153060306
78.6960033333317
78.717042869522
78.7680635694773
78.8063996014075
78.8550607448387
78.8605411801013
78.8543515446992
78.8942846850266
78.9370113242207
78.9477430714102
78.94648126547
78.9396090259743
78.9318421930748
78.9284981374369
78.9028498377511
78.9076015936381
78.9091709003493
78.9032409498235
78.8505987159328
78.8135892784295
78.8090175570244
78.7475085514795
78.6846795289808
78.6190504356916
78.5062722359006
78.3767965871955
78.2755647780514
78.1772191533978
78.0071169554022
77.8690098671729
77.8041054250557
77.7617428652639
77.6959842923364
77.6257845380702
77.5507539858463
77.48743510549
77.4213868259465
77.3555752066676
77.253223043245
77.1274849053756
77.0134494582211
76.9106477636018
76.7788858596011
76.6144593932663
76.4628552222517
76.3563265550554
76.2654432834939
76.1882228008571
76.1406063981588
76.0865948981602
75.9871252092602
75.9168515479271
75.8617838351619
75.7785846144143
75.6717690950262
75.5698192230425
75.4787026203151
75.425358054346
75.3581933889429
75.2798418455942
75.2193428790181
75.1602841452244
75.0839989176702
75.0533864008665
75.0195693977679
74.9384526852509
74.8652909872246
74.8230076535862
74.724929633275
74.6504606322809
74.615777954798
74.5760189407787
74.504025996368
74.400865526634
74.3061235573841
74.2373313729085
74.1979810267557
74.1511770844376
74.0617592899046
73.9939271087314
73.9402715484405
73.8855405601989
73.7928459590907
73.7074944779979
73.5769355322604
73.5025251103673
73.4427823951753
73.344771127498
73.2334035931725
73.0976893861414
72.9459225309076
72.8281969842303
72.7161831158777
72.6357734166998
72.5304277236061
72.3904004415484
72.2346769240912
72.0803282311676
71.953562827711
71.8092970943702
71.635815643408
71.4447284514648
71.248004487425
71.1148060205636
71.0025008926522
70.9209514280111
70.8122512943269
70.7705983065184
70.6854036424942
70.6031977643251
70.5008235440641
70.4276749462946
70.3493370482293
70.275781549943
70.1344118881778
69.9702461940872
69.8592003823315
69.8587876019718
69.7676745102594
69.5532710372601
69.2966960186001
69.4815062163831
69.5010127583897
69.2785454017683
69.0958624393847
68.9305043341144
68.8037711408898
68.7222846419204
68.5834518376515
68.4512734726529
68.4049065914538
