1798
3999.43349933624
650.420452594757
1
128
4
94.359629903923
94.443523033944
94.3927151610351
94.3500099689566
94.326612635483
94.3347819963407
94.2895814244994
94.2937649014847
94.3400305897271
94.4013002313995
94.3510863156111
94.3428597959204
94.3442209248029
94.3187925846589
94.265850561699
94.309780776928
94.3616492408408
94.3818529149034
94.323611962286
94.3464219744248
94.2920393965785
94.2811389078844
94.332170101054
94.3924714900294
94.3160353855826
94.3580976829885
94.4588899957891
94.3148740117867
94.257284819114
94.3886672669755
94.3117045810448
94.2870166829779
94.3669919024994
94.4589711273435
94.4720710634147
94.4906470972215
94.4485514628463
94.4213942642409
94.3868919738224
94.5524260841236
94.6374951378447
94.578437551359
94.5159719802197
94.4355959880677
94.2762379022468
94.2166727144894
94.2236311405323
94.3307258933348
94.5337138079435
94.7580249152564
94.714109028748
94.5605673921764
94.4311847132176
94.3455735775565
94.3963481347217
94.4716239995905
94.5371652215303
94.7330929656547
94.7010069398035
94.6018977220692
94.5418079983974
94.4342354317852
94.3955842653238
94.3898670033098
94.278693411574
94.5072524753477
94.7467507695622
94.7479968672356
94.6279119259901
94.503782037074
94.3377466050751
94.3962219428337
94.4369910796179
94.5303478908972
94.6456628705254
94.817238852152
94.9794761245541
94.9448279579935
94.5328972070441
94.2382491564781
94.268895314759
94.4103999084463
94.5680241910997
94.7520277556217
94.8069141869201
94.8172166533458
94.6311650805829
94.3959425194419
94.3236713914014
94.4302718700573
94.5747506161976
94.6175830089699
94.597298445174
94.7117403916189
94.7938027829678
94.6613222475101
94.4508613505195
94.5352976933256
94.537634497355
94.5056183064549
94.5265697756157
94.5991528109794
94.7692944075439
94.8948642661719
94.8430795358048
94.841312513114
94.6744970802065
94.5874891222895
94.54004387624
94.4545635831217
94.4204135419439
94.6585065611918
94.8267021593603
94.8780176397124
94.9241505382599
94.9222835377052
94.8470622271656
94.7936220781094
94.6929999973876
94.6735329251395
94.714223374028
94.8643900460645
94.8899909675316
94.7714211936879
94.7405774966523
94.864880588832
94.8657376440244
94.9109089318314
94.9598114073232
94.9359582957922
95.0293472028441
95.3021937266299
95.3107674865667
95.0209117830196
94.7175567383267
94.6973377870398
94.7039409462011
94.5606604360257
94.5387987574528
94.7615487398002
94.8533131026485
94.7166108238806
94.4566154469471
94.3843757269897
94.5434521631292
94.8461987149273
94.7943950325312
94.7534334545953
94.8427164525362
94.8944345996581
94.8910545561298
95.0843899313351
95.2955915309981
95.2138420174457
94.8481936093747
94.6880263915701
94.681520327104
94.7928435088333
94.9049352445845
94.9847238636561
94.8952171741438
94.9397648778922
95.1002085286531
95.2108007839351
95.208683856867
95.1814994597419
94.8804615640293
94.5350052432701
94.5655538762202
94.8481559619224
94.9170126281151
95.0169138998011
95.1043910315494
95.0191373591261
94.7021858234
94.5752806365924
94.3002952012042
94.064011573257
94.1905347064366
94.3260571832562
94.3920553263087
94.4823510917299
94.4589224018401
94.5079806703281
94.491448011343
94.5120902398915
94.4435898050383
94.1354265736273
93.6459456894769
93.3375097543409
93.2972375590124
93.4205532686011
93.4300181204551
93.3996151040287
93.4342986290282
93.6028714571723
93.6434711107211
93.6125131269385
93.3737375604627
92.9001002610224
92.6540082853275
92.8272499787038
92.8998470647235
92.8102208198779
92.5357019257959
92.3419618658132
92.3551260425825
92.3773145069804
92.1737027580262
92.0067134851681
91.803554073796
91.7309425118499
91.7374824810623
91.7208777703951
91.6767879337732
91.5062121028444
91.238710453911
91.2062438692648
91.2326034261948
91.2532106334192
91.0188518741986
90.6004270321291
90.4462898011125
90.5160795413013
90.5471602420264
90.6374042582142
90.4949976714744
90.3020724707436
90.2270926164982
90.244541947734
90.1529935968027
89.9674685483156
89.6271118191953
89.4207452284142
89.3623011108529
89.4429387540482
89.3958366630025
89.3367674585276
89.1503987997371
88.9838065460321
88.9445347786156
88.9266142539313
88.774130866795
88.5799984557709
88.3964837578128
88.3725867538242
88.3286984499623
88.2049626282737
87.9885093479987
87.9680521539519
87.9987360727139
87.8972905818636
87.6619427649521
87.5367244230024
87.4026659154172
87.2593250839296
87.1260710610819
87.0959918998182
86.9598736811833
86.8604355144598
86.8518557551317
86.7395901023875
86.5545718011814
86.5010239016637
86.4282054423945
86.3876551182085
86.2912679074649
86.0176139904192
85.8065583638077
85.8229720306144
85.7391646151269
85.6987456310726
85.5881241554851
85.5245170942404
85.4518775751908
85.3087342695475
85.1716886280699
85.1014515935786
84.9088445688397
84.8159658235234
84.8349773319982
84.7153703158424
84.5713883461068
84.5641333151617
84.4124366416493
84.3450357048642
84.2290838947674
84.1739742802665
84.081752736538
83.919734368507
83.7627378230679
83.7319823293275
83.6581242558829
83.5995437795034
83.5899063092759
83.586945689762
83.3403974976838
83.1828157393579
83.1205314597889
83.0919752143868
83.0380257063011
82.8997031658809
82.7715060804569
82.7818472672834
82.7320087690537
82.6339268440712
82.5690086151106
82.5371052769797
82.3742469455627
82.26727713831
82.1246637671372
82.0803082257055
82.0979429890067
82.0780975011072
81.9507829908133
81.9315034208004
81.9180684185981
81.8194820759826
81.6866584464057
81.6563306147094
81.5395022086806
81.4646566424094
81.4517040530706
81.4152325673177
81.2853291482002
81.2532374435817
81.2274388221611
81.2046169571109
81.1504279187873
81.1464660628152
81.0660977016504
80.9675088865323
80.8348822967135
80.8109319225643
80.7818136117391
80.7389299588468
80.6954404156526
80.6946583683141
80.6495717963299
80.6499809611913
80.5585286600164
80.4788855049135
80.4382727239051
80.4659750553894
80.4351011775014
80.3801948437782
80.2624797271997
80.2762120790896
80.3046667618984
80.3013583203492
80.2583949147067
80.2409776362209
80.1820509292915
80.2107964574197
80.2184776985558
80.2611384965866
80.2152382785505
80.1351603375082
80.0811321938085
80.1170627894402
80.1034152734004
80.1058079114045
80.0679832660573
80.0667001601081
80.0223251857428
80.0205746611746
80.0270372046577
80.0552429091544
80.0255454450441
80.0541869436243
80.0185119078691
80.0367912866543
80.0142850780601
79.999090982403
79.970833864891
79.9124537949937
79.8158463683962
79.8665272105118
79.912648192916
79.963629849464
79.9315993726863
79.8543153732283
79.8109070562171
79.8535937635368
79.8534909791239
79.9071769018085
79.8390601870425
79.7664725888517
79.7396344730578
79.7877947345124
79.8044519070321
79.7743346830751
79.6678840601841
79.6412484518556
79.6874652549845
79.8095686388589
79.7893995632477
79.7770202720994
79.7602808502165
79.8053411131475
79.791409171136
79.7874466234186
79.7544694176355
79.8292913746762
79.8544046738274
79.7094583068094
79.6580451452493
79.7851913016251
79.8192941680745
79.8651715886267
79.8630235208227
79.8958531577526
79.9025925116994
79.9562550132281
79.9389015424583
79.8985073038176
79.8931827630958
79.9115869012773
79.8934650312974
79.8434827531155
79.8635922443642
80.0176779925327
80.0252146562884
80.0083410876874
79.9734228977787
80.0136006745375
80.0792565559166
80.1315634964504
80.1261437887413
80.2038479989842
80.2583419160546
80.2537238339028
80.2363028775454
80.3491161892244
80.3586332212027
80.4170463230908
80.4739754536693
80.4748801213728
80.5141066931924
80.63953442694
80.6458424841319
80.6699710486806
80.6998832905496
80.7541929198586
80.7173595992566
80.700303011759
80.8135193628347
80.9744989994678
80.9808575017012
81.0369347847731
81.1712966824067
81.1823967810845
81.1391039356011
81.2712288547488
81.350425335554
81.3973390603207
81.4414240467016
81.4475953225069
81.44496228991
81.5077620854427
81.5810630308629
81.7612303589656
81.7977065914666
81.8002620191911
81.8261528293739
81.8889436332225
81.9049510468805
81.9491171696574
82.0089846120005
82.0692255464402
82.1975821338994
82.3763452322587
82.4039075723647
82.3884714074427
82.374099029591
82.4164512867793
82.407567940734
82.4654962888375
82.5428717763351
82.584487898634
82.610161806109
82.6834368201478
82.7608121093935
82.7966977384888
82.7497400551693
82.770833957865
82.8111191559274
82.8849781527069
82.9570396062889
83.0267458462124
83.077875645937
83.1733542111016
83.1814755711738
83.1945511267689
83.203800808766
83.2119859589895
83.2269359295947
83.2775194359938
83.3221640487908
83.4077295074452
83.4513039991309
83.4883507281402
83.4832282277157
83.5677082629659
83.6486150054725
83.73404065137
83.7701924966941
83.7634715472502
83.7517594538036
83.8279381079197
83.8741784080375
83.937530671802
84.0396431276428
84.1300279239471
84.1367504046536
84.2077815194648
84.2567937725268
84.3089664789955
84.2878880523024
84.3103127834551
84.3766168353625
84.4706562514717
84.5012976860604
84.5560296669305
84.6227023184194
84.7382865294227
84.7477116374452
84.7586511311599
84.8030917585465
84.8627693379497
84.8422321380052
84.8513540633234
84.8640760164174
84.9013616865397
84.9328417245853
84.912046891542
84.8509815979218
84.928264118101
84.9860230649559
85.0611958276791
85.111073510989
85.0763704133925
84.9538881943958
84.9024359790334
84.8742694008343
84.8544120481313
84.8336581234109
84.8353835548039
84.7804519661536
84.6970759100951
84.6009246038049
84.5506949152925
84.4740088164771
84.3741465934942
84.3184398944231
84.3448866927787
84.3526913469696
84.3336624504021
84.2588546029718
84.1935340513645
84.1875195234146
84.2282920329684
84.2232626365808
84.2102053652335
84.1645073087862
84.1130060427907
84.0442660048621
83.9780520684619
83.922070864039
83.8746267937709
83.7213412181877
83.6313016026226
83.6369738755733
83.7204264544813
83.7075295107389
83.6841922775831
83.6922767244969
83.7646250528154
83.8174005399743
83.9215463420836
83.997629139203
84.1072206048494
84.225017981757
84.3671211489704
84.4668055727711
84.5601300587188
84.5790261414251
84.6294041916949
84.7008708845433
84.789536291708
84.8690503539803
84.940426466557
85.0067160502495
85.0562491371424
85.0952246217529
85.1756676072835
85.180737754213
85.1971493332277
85.2127380233973
85.2574787690475
85.3149297464667
85.3412413097756
85.3431486584397
85.4067842371791
85.4496163925782
85.4625597073755
85.4942121953583
85.5417393094732
85.5561112697986
85.5763028989115
85.6126919649334
85.6953905043103
85.7882071065935
85.8606983169398
85.8576324273219
85.9082172447395
85.9816708201278
86.0527595216071
86.1410269328511
86.2349334984392
86.3256147300467
86.4035086508616
86.4873223423611
86.6614033562704
86.7481195887495
86.8039657310508
86.7979784969625
86.7642018706851
86.8411781239198
86.9900941196064
87.0421671688949
87.0733543050511
87.1242690743769
87.1812560255551
87.2057115716234
87.262601287468
87.3305370296941
87.3928058195108
87.4185813098564
87.4283710483073
87.4044433199615
87.4552440751081
87.5378401468103
87.5880965317241
87.6433586323865
87.6903806480376
87.7018306733751
87.7426765893724
87.8356302642457
87.9084550531475
87.9152693419144
87.9063038148674
87.8819162697658
87.9491916061008
88.0188330961313
88.0466223706164
88.0476803722478
88.0868021884643
88.1007830170032
88.1410799463577
88.1999252786149
88.2431220788202
88.2554723676
88.2404553545042
88.2457529626082
88.3134303606115
88.36123245096
88.4074420476206
88.3938830721645
88.4196005939511
88.4654640562865
88.5057096884666
88.5834677969344
88.6130576850582
88.5904046354479
88.5895869985894
88.6089909355345
88.6644916704485
88.6900302288539
88.7214472734854
88.73340811275
88.7313625299672
88.7526929155274
88.8375450914604
88.8817913819245
88.8764867235541
88.858117889797
88.8859800482951
88.9055429858578
88.9493226139972
88.955691214891
88.974184224953
89.0465253446012
89.0761761854542
89.0673342060091
89.0847369782827
89.1398937918522
89.2011460080302
89.1949705339292
89.2043692377057
89.2270461054479
89.254896104179
89.2753222012019
89.3017259404108
89.3382315195711
89.3706508216293
89.3680375986193
89.3593639873763
89.3798406584562
89.4460840211702
89.4713878153734
89.5251303498825
89.5822257468025
89.5674603855296
89.5627363710125
89.6139703023696
89.6392807378502
89.64111107264
89.6602290684319
89.6583857517209
89.6374005652602
89.679784647407
89.7354573309037
89.7556476574583
89.7637566347982
89.8115552062686
89.8660732116585
89.8954727032855
89.8990119278641
89.9092349115406
89.9404902290768
89.9977432191522
90.0431129285515
90.0895139957828
90.13060839729
90.1737641821578
90.182406451342
90.2140128749898
90.2007329376545
90.2052823586068
90.2856218599176
90.345646120302
90.3640406908098
90.4119249695968
90.4333840796386
90.4854736256485
90.560965509433
90.5578759319173
90.5539353085084
90.6155627202617
90.6464094841416
90.6477905226277
90.6832559958624
90.7587121827361
90.7847814571311
90.7833956215748
90.8033809886212
90.7648335921251
90.787024455041
90.9108751322809
90.9904184599252
90.9828083271876
90.9432539549346
90.9169728647324
91.0079142872564
91.151761574179
91.1528843186742
91.1368678221059
91.1990002881707
91.2460085572992
91.2778047220279
91.2380132024466
91.2284506993504
91.3013871715929
91.2916505629155
91.2940329906822
91.2892794667976
91.2796185722748
91.3335810178094
91.3692218169912
91.395661628243
91.5260117700555
91.566407384177
91.5003288253891
91.4442137321446
91.4402410908049
91.5192471482528
91.6064415002757
91.5739587868142
91.5845131791288
91.611302746436
91.5947279130261
91.5762374643514
91.5906582194837
91.6112613576828
91.5754132435876
91.5494152334938
91.6446480461826
91.7120052248147
91.724006026479
91.7583739778241
91.7774441845104
91.7636055260648
91.7640424856262
91.7710313412237
91.7987911593336
91.8349996201305
91.8240721043732
91.8137394157231
91.8085738176132
91.8260933191164
91.8397847577924
91.8498912420431
91.8557798253556
91.8948774301003
91.87017734126
91.9012180177102
91.9020337123068
91.8675295117625
91.9017004027286
91.9342373037735
91.9524813196047
91.9571249702209
91.9803202921901
91.9905680019281
92.0122462028857
92.0659768705608
92.0499488684907
92.0240113423316
92.0504244467744
92.1010649863442
92.1375561829438
92.0941173590995
92.0417808554921
92.1077210880541
92.1472628626522
92.210098857372
92.2457222131338
92.2165577014065
92.2009668643693
92.218228638021
92.1858281495721
92.1487424980276
92.1676288844609
92.2732502134238
92.352820933042
92.3164531501442
92.2103694617123
92.2085398905733
92.2430432940356
92.2721096164517
92.2793786379248
92.2905479966189
92.3326019585259
92.3384204611892
92.3331940617719
92.3394003226091
92.2887730320212
92.2384523349806
92.230955593059
92.2312609332865
92.2030756153658
92.2239148863731
92.2808512154865
92.3329136586065
92.2854570029055
92.2860435601361
92.388235289877
92.4750843550896
92.5224724354032
92.5240540706388
92.4965151980591
92.4721702977386
92.447185748122
92.4826401551763
92.6204145660373
92.635353908929
92.5403699700307
92.5113636080964
92.4753098217594
92.4028368817455
92.3199419102964
92.267449135062
92.2242273583817
92.3200413305741
92.450897624877
92.5381356622363
92.5597009918062
92.5417855671367
92.4726092298198
92.4956459606474
92.5392128734145
92.4673889772357
92.3513314054335
92.3272367714204
92.3752365594561
92.4240387211058
92.4321739658253
92.3865028423193
92.2772498850415
92.2557956421061
92.3852795980888
92.4692615719598
92.4010504906705
92.3181347562986
92.3700905707425
92.4919895303199
92.598632054747
92.5787151661551
92.5521875378495
92.5955280154709
92.6026085869193
92.5911395476536
92.600389864968
92.6792041288665
92.7690963282787
92.8137781381597
92.7796696961892
92.7314049500055
92.8161811029572
92.9301336001709
92.9471118128054
92.9640885852096
93.0143769577275
93.0937019716903
93.157096780582
93.2351756669699
93.3110594002335
93.3977853960192
93.4759484974206
93.6091712207355
93.6167743431009
93.5737838226731
93.5568603896989
93.6407723345769
93.661496750837
93.7682586797692
93.8892955250889
93.9054287512235
93.9029446865593
93.8868551883833
93.9503708213732
94.1312843773733
94.096428616719
94.0132660526296
94.1630074412898
94.4186581634042
94.3992176912312
94.2624047872394
94.3016303459031
94.4277373924937
94.4606628040394
94.4296152636102
94.5519971489208
94.7333551442583
94.7698939701809
94.8788196263391
94.8790527456205
94.9245180858813
94.9822361462647
94.8654194873146
94.8378022652399
94.9437050902733
94.8909173183126
95.0320430067148
95.1781835260475
95.3026246494897
95.4738308666429
95.8214997712761
95.8069383829646
95.6772919014378
95.7642823805601
95.6105156972013
95.3938216392094
95.5858085410269
95.9239705351542
96.3010179342961
96.394770298271
96.0703799909686
96.1460426142405
96.663819980739
96.6056937869494
96.6864268846028
96.69536091963
96.6927624077193
97.329891101547
97.8879727725685
97.7068413477058
97.4006798852113
97.2911434722341
97.0130024013094
96.430834562136
96.0136326987602
95.6637174853237
95.4906624258822
95.6013709419747
95.5335115330961
95.420560122258
95.4454192586322
95.3513524033653
95.2253440280228
95.1261300039901
95.0573402677223
94.7586586645507
94.5194861577487
94.371528935818
94.43275876777
94.3617660955425
94.3663320859007
94.483058561284
94.3670319194295
94.3340730463959
94.4094191539447
94.432029699863
94.502156867035
94.2587551893452
94.18516227477
94.2559251847565
94.4733812313189
94.6541870257483
94.4622607837398
94.2944238690489
94.5690180488385
94.6808970989442
94.4968740065044
94.3290091740466
94.4388085164755
94.5478824972537
94.6856198923012
94.816800346932
94.8862433615698
94.8934058309154
94.9855202645776
95.0967553760037
95.1529222538287
95.2134470830117
95.2892215048234
95.0834495661126
95.1634528076614
95.2839510203653
95.1945130736832
95.1870996191718
95.6539091960838
96.0482078228093
96.178684365135
96.4444710511295
96.6370941601779
96.5035580086318
96.5155606509213
96.3074242987326
96.4107644630787
96.8740068173203
97.3048736005368
97.5611023178183
97.5995338642529
97.3526869944573
97.2045673341619
96.777233499725
96.6645695556914
97.1199925655367
97.4242061541029
97.5071678400963
97.7510321962051
98.0039832408095
97.7773290080069
97.584289198467
97.3888930781024
96.9121194694883
96.878856666317
97.013379268245
96.9583249701508
96.6488869498157
96.7090954351424
96.5230309467917
96.1536479351168
96.2970799272075
96.8911772499129
96.8659801229673
96.6392246512756
96.7165308296933
96.8350331815807
96.9576277218818
97.3094068381458
97.3287571959373
97.3957444271851
97.5452475038454
97.5313741789928
97.3724303104973
97.2203912038574
97.1131355753616
97.2572661867928
97.2350182712076
97.0978430365396
96.8241742260492
96.659735428595
96.4567698392682
96.3243776587124
96.2694092763548
96.3253599451498
96.2398432296448
96.0011550031718
95.9199658499647
96.0540899331401
96.0158340993722
95.723499220075
95.5250696805429
95.6122843458698
95.5864476207283
95.5978086968205
95.5608689027527
95.3808534362018
95.2948549084475
95.398424159858
95.4263386693986
95.4157963829279
95.1941536904962
95.15728463074
95.2744455809269
95.2614050090294
95.0660480410484
95.0491616030702
95.1171180377192
95.2066236134641
95.2090517481105
95.1037946184478
94.9772816285842
94.9485817273675
95.0800027097347
95.2037708541836
95.0977338818662
95.0683868260026
95.0624670657221
94.972849270845
94.9540178675494
94.9766481104485
95.0076077172685
94.9964848727369
95.0527414895126
95.0735609430325
94.9903279396996
94.9594127844154
94.9968843286108
95.0674395253077
95.0194884823689
94.9182800188507
94.9292812944611
94.9996825633915
94.9769794868485
94.9534385336077
94.8670242042641
94.8807098003441
94.9386284841465
94.9654458104998
95.0143476967322
95.0811513705824
95.0774180886162
94.9491151024295
94.8567025943582
94.9554027053447
94.9825762682006
94.9837493428465
95.0099657480039
95.0556600477581
95.0705718712247
94.9692161009672
94.9345767559483
94.938182035644
94.895492290618
94.8877895385431
94.9087740006524
94.9655468278731
95.0048116541447
95.0072744657638
94.994483599387
94.9909905759151
94.9000993273759
94.8773001771072
94.903923670618
94.9112218631742
94.8517555021295
94.805644009938
94.8474753130931
94.8587139327662
94.7811428789697
94.6583593957464
94.5497280325301
94.5417091422707
94.5279231435313
94.4522954582207
94.3842993787739
94.3282554614648
94.2398790127383
94.2089800068559
94.1723350600072
94.0891042435937
93.8106049036353
93.6881342066513
93.6050417062179
93.5266457053263
93.481569625901
93.377125834777
93.1800911491161
93.1395673221409
93.0711096575134
93.0058154535445
92.9519166042258
92.7783950853372
92.574432947254
92.5002625181643
92.4732901532476
92.3948986037165
92.2882133764642
92.2281514083076
92.1139644025949
92.1160366518268
91.7766980841691
91.3627113401328
91.3390694412451
91.2460823886046
91.0868482676552
90.9529361180392
90.7644221823489
90.6180895068098
90.3934370614793
89.8250812854911
89.2447323253347
88.9572373072652
88.7923379785985
88.6277381751927
88.3597665824248
88.0564889904078
87.6307462028979
87.4250446645927
86.9974025231115
86.1584530301966
85.9492815942175
85.4173935346792
85.0386925763584
85.0164244931435
84.7196471056275
84.3686801577187
84.0671209568833
83.1513605607227
82.3938261410404
82.3129938233345
82.058286522303
81.7721367015393
81.1045339322215
80.6678525336856
80.4229639465111
79.7570321755301
79.2314570601919
79.1178279345489
78.7559602007556
78.1849310354747
77.9135066318931
77.7371519442397
77.5439362043366
77.1499676904979
75.7327012465367
75.5235955419862
75.8558580932909
75.333404845327
74.7050748744073
74.7175586549534
74.6313187471607
74.4028820294978
74.1500259907365
73.4464888584788
72.7820630663651
72.8931677170084
72.8742914919434
72.558239060371
72.2155320890923
71.9885502226261
71.5247771155535
71.3215646502049
71.3041478900528
70.8411324831897
70.1897334632174
70.1925794600435
70.0896301232462
69.7956901579158
69.4676514585285
69.2025108700205
68.9327763509952
68.6379897785361
68.3857667523839
68.1979753879024
67.9584914019442
67.6737456702015
67.4458723313281
67.2547695486047
67.059997873296
66.8973555607044
66.7140307817148
66.541618972156
66.3956697203744
66.2923350691418
66.1988315815361
65.6988053427832
65.412580691631
65.742151214847
65.6708598869835
65.243893058716
65.3745402767755
65.5757517258786
65.665494508015
65.8427720698889
65.1667826975652
64.6690806778441
65.6186770646774
66.0709058564807
66.3984671472246
66.7368113223502
67.0484426442172
67.5747048912458
67.8509568728453
68.0645909224624
68.1665531939244
68.5630278113438
69.6276766963893
70.3235624140807
70.4599260945894
71.0015832485435
71.6462325217399
72.0009438366135
72.3059216880585
72.7384525957257
72.948341501597
73.2040017325018
73.8644527629549
74.1873933110049
74.6354649201402
75.1263308272818
75.3972048533633
75.567215943076
75.4071530716793
75.8814665637262
76.9833932900258
77.4528676371204
77.5377971720688
77.5969334560749
77.8270624276995
78.3491657925548
78.714822690212
78.6527332188729
78.7141473838887
79.1023484085067
79.4649822352437
79.6465038721622
79.6994797339139
79.7871297058417
79.7623909942464
79.5772018336886
79.3507866174156
79.0208440606375
79.0951305254059
79.1060730696509
78.7576014656234
78.2790803278592
78.1833899663589
78.1111728168699
77.67280100002
76.8605196184457
76.7248593911937
76.9888682380134
76.8787558616186
76.6436748989079
76.344907892652
76.2101794410742
76.183638184769
76.0633766280466
75.9153621994796
75.6963250436443
75.1728934875184
75.0229098417775
75.0712397720604
74.7756950937183
74.3860651810308
74.1119280767896
73.7968232677677
73.319145868554
72.9790481302183
72.3549821218265
71.5623711272472
71.3217797177358
71.0454972162314
70.6015235981577
70.089887913532
69.6261411541994
69.2123731827433
68.7515308468844
68.4008259016961
68.262325127174
67.9588233631896
67.7182002586856
67.6096805569152
67.4714996249775
67.5392713233735
67.5821532134187
67.4452699452905
67.3335602282608
67.4611031231794
67.5925352572278
67.6827922465489
67.7747995469442
67.8959152571883
68.0025896560554
68.1426411333261
68.4477174800782
68.7072076379006
68.9449168004767
69.2226400746308
69.3842132104089
69.549211307628
69.907439030931
70.2420290453065
70.4916465664558
70.7361016193525
71.0167500508186
71.2859000416912
71.5390836591571
71.7967770850647
72.0505659472948
72.3045071837969
72.5236865534443
72.6543005022841
72.9032821641613
73.2136611390915
73.4583982646963
73.6022298567046
73.7296209085445
73.8533590248973
73.9646961565201
74.0618962589441
74.1512607829426
74.2159947332503
74.2525647885231
74.3188536313549
74.4149521855925
74.4810002273264
74.5430267367159
74.6298485681453
74.7286227932208
74.8187623760812
74.9413584468893
75.0682207207067
75.1923932337077
75.3410354517503
75.4862909996271
75.6221559613399
75.7722854041142
75.912590794039
76.0383462712531
76.1413706894595
76.2779440687338
76.3922014079529
76.4623287092014
76.5185913933579
76.578595371117
76.6153608237602
76.6442626314468
76.6717036068447
76.7003659314223
76.716199321477
76.7509593442891
76.7883244551452
76.7875111386635
76.7756906886949
76.800615495043
76.8532833806728
76.8968836126181
76.929252105779
76.9628697892413
76.9897056247486
77.0106978156929
77.0267075415636
77.0201881073599
77.0091513509631
77.0193355333429
77.0469637326436
77.0563076464627
77.0531947155407
77.0823672134942
77.1253430676432
77.1591334752056
77.1690522046781
77.1960997764181
77.2655835045847
77.3631587609858
77.4413311680893
77.5301097550994
77.6162782623764
77.7174725088055
77.8132266786544
77.9266101513128
78.047943852514
78.1860690236754
78.3286233356144
78.4369245554829
78.5694869014187
78.738537325136
78.864610036654
78.9747983932216
79.1007123582857
79.2273194065723
79.3465863151885
79.4376088675303
79.5079787527376
79.5698757682072
79.6157142111859
79.6278631539587
79.5964857825596
79.5605890614429
79.5172185480811
79.4386973691488
79.342662611314
79.234726702117
79.1318528484732
79.0434843961609
78.954601818859
78.8364827248272
78.711381371247
78.5845948210466
78.4592669051064
78.316418166936
78.1352980955293
77.9402948786294
77.783624887763
77.6284615612955
77.4389548254482
77.2562973147609
77.0549909957166
76.8345389270833
76.6192085821737
76.4043586828746
76.1743349754486
75.9344286640105
75.6980903025465
75.4841908747877
75.2823255436711
75.1058411751724
74.9229498597651
74.7247915804421
74.5386392326409
74.3935878410916
74.2586032057984
74.0963161730771
73.91249406536
73.727330009157
73.5152141774451
73.2686607319983
73.0006806313035
72.7304987835933
72.4452874043257
72.1357920354648
71.808380044162
71.5220360043841
71.2493725744208
70.964118313888
70.7200086537386
70.4687489763384
70.1805304808117
69.9066588054115
69.6786596132375
69.4559961843375
69.1810619659122
68.9019147767739
68.6365060181554
68.3812111487922
68.125654488581
67.8703261794867
67.6362331554939
67.4165910828777
67.1845377168817
66.9486010468811
66.7117966659344
66.5087527318115
66.3244618154436
66.1369125871529
65.9783532905491
65.8505216061239
65.7084456495318
65.5838987602094
65.4490603511882
65.3485249247635
65.2869345719944
65.224661560858
65.1555608567463
65.1189808483682
65.1483914500421
65.2039184193523
65.253088757173
65.3050251373265
65.3591857333095
65.4637099965824
65.6180489670151
65.8100602298363
66.013317261315
66.2473097932661
66.5083460566062
66.7833857604248
67.0546445084349
67.3533315421743
67.6841937869476
67.997558391378
68.3070698066225
68.616061824928
68.9258112496926
69.247287541859
69.5551828558386
69.8275149335893
70.0900933934675
70.3711167567144
70.6255855452951
70.8673370545748
71.0722837124445
71.2656640946267
71.4637057541357
71.6456821794804
71.8617296851662
72.0926670848926
72.310382565506
72.568845160398
72.8609860187709
73.1506190319287
73.4300608292552
73.7203684629408
73.9801416405864
74.2102711118501
74.444268208964
74.708070024296
74.9660342826757
75.1824566156264
75.3957429027523
75.6167106341587
75.8124633385925
76.0216130660782
76.2418620843362
76.4388494567117
76.6365130833175
76.8323223197313
77.0089821471321
77.153784601775
77.2855174195944
77.3902055424953
77.5056365227982
77.6167048764134
77.7218551286254
77.8202744473139
77.8815485187801
77.970945311427
78.0355087815913
78.1031767757529
78.1886014962725
78.2769770390533
78.3544267695787
78.4562423558936
78.5418814488942
78.619921248026
78.6740536474708
78.7660389441643
78.820901301645
78.8329544033865
78.8690635092166
78.9053736498273
78.9287693267139
78.9433383658679
78.9633911949484
79.0032139227273
79.0267756663655
79.0374538800152
79.0261992475903
79.0130807295643
78.9735022233794
78.9304135253036
78.941226925092
78.9341185108726
78.9070916207846
78.9073873247571
78.9178180038029
78.9348042671136
78.9385596602072
78.9003498325819
78.853402542734
78.8587409285694
78.8353701142665
78.7780397286554
78.7003702417401
78.6187865386391
78.5156055713372
78.3849920371133
78.2486942689263
78.1081613972728
77.9371798842832
77.7908847710958
77.6879280952411
77.6018019310072
77.5415110753117
77.4968819182939
77.439565426698
77.3832457767466
77.2953895222553
77.1693432469279
77.0343462911146
76.9256634125065
76.8013179545187
76.6294033916326
76.4393104851993
76.3039690830314
76.1889787344694
76.0956525163775
76.0078467566464
75.9157054281498
75.8185148084539
75.7572619323054
75.7113791907918
75.627391667726
75.5211644751464
75.4273567935283
75.3342988012043
75.2677377159874
75.1906703612853
75.1095218328785
75.037044201749
74.9669172384314
74.8830241808129
74.814815615732
74.75535701528
74.754318219837
74.6971861867657
74.6268168346047
74.5526484763204
74.4721610293438
74.3697257741376
74.3261651199276
74.3168886830885
74.2801494624295
74.1724565183418
74.0855909185882
74.0386859822985
73.9696283161186
73.8881905612131
73.804941836098
73.7337161827009
73.7003115383579
73.5826014110789
73.4892462307525
73.3976973717885
73.312048894279
73.2546635474635
73.1494274323383
72.9799765369112
72.8164856651202
72.6958385673051
72.6545477054411
72.5328381824021
72.3869584517256
72.2440148168255
72.0816572336174
71.9400458444438
71.8242657456299
71.7208200426285
71.6249426382162
71.4463174937165
71.2253289113439
71.0341313101986
70.9037854701732
70.746381108162
70.6157586750336
70.4708721223346
70.3357655693319
70.2528240254589
70.1943537164687
70.0642589025222
69.9433410013576
69.846009729338
69.7396861853016
69.5869172210672
69.4963082896369
69.3798153018876
69.236502479815
69.0741889128692
69.0092089965795
68.9197298961158
68.827675249976
68.5367974201684
68.3894266798064
68.5208629786534
68.3933441742039
68.2276863971192
68.1460256468065
67.9792182211236
67.8502229937596
67.7389967262015
67.5782915021825
67.4169266841162
