1798
3999.43349933624
650.420452594757
1
128
4
95.9763873401003
95.9727048548827
96.070878590842
96.1080495834316
95.9927246163838
95.9139145165723
95.9716957892791
96.0854375916651
96.052301600466
95.9532235464567
95.9208498776616
95.9585453244092
95.9852424573214
95.9815881591586
95.9449483304812
96.0603855653366
96.1700503008866
96.1109355804438
96.1055061642924
96.1233036066597
96.0407049912765
96.0565768023954
96.0938061967769
96.0360470347476
96.0279645244104
96.1818768939057
96.216491779828
96.0888561147337
96.0306502175896
96.0695345704657
96.1008501233402
96.0627710977211
95.9661522462844
95.9663286873146
95.9752489085639
95.9497699257551
96.0288261436491
96.1699937071546
96.0983888046511
95.9732668336375
95.96640505666
96.0310215515244
96.0207522932414
95.9646627960666
96.0342404181552
96.1443375986796
96.1365651702458
96.0959982613893
96.0449052252513
95.9721634566808
95.7884242316162
95.7608409838493
95.9313317270443
96.1381113454228
96.3007246210108
96.3579908897212
96.1667162340742
95.9947309500207
96.0509966822535
96.1382754694115
96.1156566761847
96.0709798627201
96.0394115959055
96.1251232962603
96.2219874449736
96.1995391969183
96.1305596223562
96.0857509437709
95.9627891346949
96.0287612093909
96.1467401459029
96.1236197681352
96.1287522940859
96.2333197360563
96.287741451918
96.2271621732317
95.983726272395
95.7432433295686
95.9064434216478
96.4056626290055
96.5264170194872
96.3585252711288
96.19715245195
96.0708495020461
96.0245506583961
95.9529061832093
95.9277339870144
96.1689423245618
96.3595047098948
96.3863938749963
96.3212819158125
96.3569672167125
96.3369003330838
96.1525429241381
95.936976983617
95.9417252604933
96.1563031346612
96.3008486813118
96.2856158337968
96.3689532543101
96.3920068895759
96.1905901824577
96.0652607725392
96.1965777121243
96.1725529294951
96.0259504376627
96.1973135515843
96.3824388706772
96.3816360255157
96.445785352849
96.3359819628042
96.2653436587804
96.2993618131251
96.2391638223477
96.2197401766199
96.2561427691917
96.2136563467924
96.3084044995821
96.4146759106128
96.3339603788603
96.2340912061525
96.2083377400121
96.2331717359715
96.3489131657848
96.4037209020269
96.4364255853077
96.4961350056173
96.4652446204964
96.3494410046481
96.3130505665679
96.3264273306204
96.2823527125646
96.146298643436
96.1680696506828
96.2902901291471
96.3129296636642
96.2763683022894
96.4049906186398
96.5371303934156
96.3856022782905
95.9748821744604
95.9086323159283
96.2423872970135
96.5379496625819
96.6027632045207
96.4829766369106
96.3368906344207
96.3196164285732
96.3673686088553
96.4818529155002
96.5083823505786
96.4531593311299
96.2452798064023
96.1072161435033
96.2933372362009
96.56323473641
96.5936571787686
96.5621515147307
96.4432440471439
96.3133196470612
96.3980725071237
96.5752592871141
96.5339659540642
96.4344012229074
96.3241572995394
96.2543254052871
96.3189937410296
96.5306150686705
96.699997366203
96.6911435418551
96.5110178395139
96.3813406349429
96.2710196640786
96.2198622976223
96.3079981717159
96.2311391004438
96.0990428033017
96.2096689176897
96.2584042316303
96.3035849902123
96.3067763100331
96.1857640947633
96.0844824614493
96.0333716037995
95.9900519441053
96.0586522945359
95.9718978606245
95.8041821589056
95.9123243066597
96.1541283226887
96.0123873121838
95.76609048095
95.7230043759767
95.7602783126276
95.6089965668262
95.3999342448734
95.209325255337
95.1160507056133
95.1173195841612
95.3384015042722
95.4714657252611
95.3511501699744
95.1148146345196
94.8978735706723
94.8334528124353
94.8551363718544
94.8071485227815
94.8068629169251
94.7972991492189
94.7313237207508
94.5956905159336
94.4998967498909
94.3253048987128
94.1711215802642
94.1944262049836
94.2691200069945
94.1360819148432
94.0038207930984
93.8433975781247
93.6932709898618
93.6449739878833
93.7372639692141
93.7846436622655
93.721621759162
93.5473785613024
93.3129176678596
93.22656866326
93.3110400201722
93.1949577672166
92.9790933633765
92.8711327735753
92.9377333058793
92.9628549045692
92.9158216463426
92.8199809309357
92.6646024411215
92.5418039546071
92.5317419092038
92.4788371837703
92.3136813064005
92.234462316394
92.2393187106671
92.1047385238828
91.9351436079799
91.8684294006821
91.9084011673201
91.9604660298141
91.8977167243952
91.6103810576795
91.4740138884261
91.4551253236388
91.3611762911714
91.1470853656029
91.0703096297824
91.0915540931741
91.105527487284
91.0465969168591
90.9128050360186
90.8628440110348
90.747340409111
90.5613148186432
90.5611684778542
90.526789537384
90.4182050795056
90.3365078085418
90.2620745900209
90.1188454849341
89.9853988177379
89.9990291428004
90.0002279768409
89.89002422695
89.9200781136551
89.8648429269243
89.657773409403
89.5172012791229
89.5121054081726
89.3977387892201
89.3106602205108
89.2771391656577
89.2334813521964
89.1488168943122
89.0583904294229
88.916588198169
88.8290711970819
88.7375610608186
88.6873790887458
88.6502122529928
88.5253769586645
88.4246448543277
88.4461079512469
88.3618970211646
88.2624494551126
88.1787614803475
88.2142686945311
88.2013152587833
88.0599842986701
87.8978611389188
87.8668631520929
87.9121838496473
87.8795988004918
87.7215290328789
87.5911415237971
87.5012665960277
87.4426911242456
87.3480732829486
87.2613824803153
87.2695495328067
87.2445842879195
87.0590895394785
87.0039059036865
87.0625445327898
87.0688781099475
86.9513108301098
86.8919713552486
86.8151435959733
86.7096231897299
86.6420763206286
86.5803227565025
86.507922276256
86.4738884817966
86.3954692542414
86.4077607339252
86.3681375568019
86.3424591022144
86.333365974631
86.2759441365307
86.241923882808
86.2191592856473
86.0384631198765
85.9750124425361
85.9712839404519
85.9277650372518
85.8681978242142
85.8157290548881
85.7834741062369
85.8166680345129
85.8033128095905
85.7719162699165
85.6557211815757
85.5435501678181
85.5049720469647
85.5275467939752
85.551316290108
85.5860795881609
85.5603352879978
85.5086187519695
85.4193470440223
85.3592026858259
85.4013767628281
85.5010194215511
85.4380023876214
85.2615030983474
85.2051048007481
85.3602805712599
85.3867605999475
85.325553721934
85.2782267292072
85.2979653859788
85.3037150234683
85.212343529945
85.1782513911404
85.2475202691117
85.1697130335194
85.1002057462562
85.1105196643401
85.1538075297634
85.1155933631203
85.0558498021321
85.0652656386399
85.1439370114185
85.1694423687491
85.1853183268946
85.1710310614785
85.1460690771143
85.0855221875864
85.0450498922738
85.0298350915442
85.0467467107014
84.9884043672463
84.997633917649
84.9925062895061
84.9365313833757
84.8731143490464
84.9269105636557
85.0419051265583
85.0734334706315
84.9481186811398
84.837089192739
84.8021527424338
84.8996678313705
84.9717106979324
84.9794378453441
84.9602785879778
84.9438152057741
84.836299259879
84.740644431122
84.6639652889442
84.6652346108656
84.773443070723
84.922508112337
84.9663031631752
84.9077524809059
84.8285834481609
84.796874826115
84.8446598366156
84.9358172751971
84.9199439952253
84.9131703111029
84.9201055271941
84.9715762942761
85.0071650409241
84.996609748215
84.9340980448742
84.9442117921186
84.9706211568145
85.0107940371805
84.9807756774323
84.935639358563
84.9397681300669
85.0375049007802
85.0616743334652
85.0723981119404
85.0945600537543
85.0734578951161
85.0656628910736
85.0946312809182
85.0348270375937
85.0322886858942
85.097590438184
85.1525058139713
85.1531376589208
85.2015807550917
85.30879470164
85.3934724229483
85.41667475734
85.4426118320174
85.3383021562643
85.2890621646829
85.3574654597572
85.3467932077013
85.3114561631313
85.4830748476887
85.6012353531738
85.5285478817403
85.5418347277318
85.6369768742857
85.6506554114753
85.7213571019819
85.7959521408873
85.7876777696618
85.712206993251
85.7643348163401
85.8739815092766
85.9434794618067
85.9735691013674
86.0148812483922
86.0071123929624
86.014167722106
86.1251257356385
86.2382122072783
86.221123239067
86.3104219019327
86.386902656291
86.3575508681933
86.2904894037791
86.3516809780147
86.4598990106313
86.5195040271805
86.50031794873
86.4553898436325
86.5376515092402
86.7078092154869
86.7470721536675
86.7626449491504
86.7992184910523
86.8958467830071
86.9234901336885
86.941096255974
86.9276124811537
86.869558662618
86.840555493805
86.905648343617
86.9686133547068
87.0202288301768
87.0503753738404
87.1022722205182
87.1261945496765
87.202648332788
87.3060704103903
87.3469932518013
87.3395900563713
87.3879391783124
87.3858201480698
87.3558999220327
87.3660980874022
87.4082284360102
87.4191085501789
87.4627713423482
87.4965997928855
87.4932292008448
87.5633217244094
87.6905061181648
87.6816137602013
87.6126762291944
87.6110783967652
87.6960477915678
87.7614512872331
87.7806081792178
87.7910895167205
87.8814133967494
87.8862649190045
87.8986459121802
87.9988933781266
88.1254122617419
88.1379564293319
88.0865554097494
88.0479361211143
88.0716032055551
88.1329337504929
88.1971835987188
88.2327504211655
88.2578653120434
88.3047299344638
88.3975310962007
88.4185435430068
88.41627052016
88.430966640138
88.4317479646279
88.4739369549816
88.5909221566635
88.5867884759627
88.5327538706988
88.5330643348024
88.539482286701
88.5867287947309
88.6671129845502
88.6531325244304
88.6743175153502
88.6696991107617
88.6659142515689
88.718693179206
88.7365774200105
88.6735005476744
88.5841987161292
88.5037960538694
88.5523143953631
88.6194356393056
88.5621476242877
88.4594784747178
88.475824942811
88.4885576841388
88.4428502064529
88.3401831847539
88.2605526107669
88.2012984872312
88.1760988924777
88.1395468441311
88.147975230415
88.1053839498672
88.0427813860662
88.0078080573551
87.9947130174564
88.0372110190888
88.0250191798366
87.9804839900929
87.9746790722483
87.9018195247297
87.8538395326567
87.8052313098612
87.7792956101766
87.7198568750966
87.6293755507887
87.583038870295
87.5737916154495
87.5691129349382
87.5590054241596
87.5551660082738
87.5886739391908
87.5804030519437
87.6073638216367
87.6934819761706
87.8397785385329
87.8984304908628
87.9399429206343
88.0044949941748
88.0210468196658
88.0314452661583
88.1363716817259
88.2449317888863
88.2927534628666
88.339910053895
88.4191489174949
88.5109005086681
88.5968670406916
88.5999672224096
88.566550443063
88.5732304357431
88.6647825595537
88.735109689098
88.7359359860132
88.7252109921477
88.7602937033463
88.7528317104337
88.7675418728248
88.7854896979213
88.7923960595
88.81613055775
88.8742099512048
88.9130842783284
88.9300406243956
88.9540475431954
88.9849431617183
88.9798157369987
89.018422781664
89.0337727108741
89.0596727361837
89.1214033477205
89.1690235890694
89.2309407589427
89.3228085774977
89.4138348526517
89.4869694573
89.5314813699519
89.6100928712949
89.6864912666217
89.7475793013209
89.7917262307895
89.7816874716562
89.7752284534347
89.812760120991
89.8611378670137
89.9064207094596
89.9680536239753
90.0238474779992
90.0286823770394
90.0657791661416
90.136436168348
90.1898314821952
90.2185899426097
90.249301021643
90.2736467981901
90.3048667190628
90.2749511055295
90.2469928776277
90.3161393021556
90.3947244204863
90.4252443050021
90.4475047327187
90.4771029667577
90.5045441577537
90.5020259853336
90.5502246026465
90.5788551095498
90.5994978866105
90.6097504339275
90.5939078089463
90.6152992464252
90.7108706490027
90.7467774510366
90.7205785798331
90.7334927003829
90.7857288549106
90.812423806909
90.8106454252384
90.8020012510045
90.7987575758543
90.8028026567874
90.8283527201044
90.8345706029766
90.8633452544497
90.9045818683278
90.9531566181383
90.9918488173734
91.0440530901987
91.0203069962807
90.9746597152368
90.9820687772239
91.0273705276804
91.0676055525609
91.0227312885536
90.985456167744
91.0202424990977
91.0483120846425
91.102225351099
91.1614883943145
91.2129037498431
91.2498517483408
91.2161400700091
91.1885398668396
91.2433925940174
91.2812898406915
91.2726493881836
91.2930765213357
91.318628609938
91.2975177236648
91.308483229521
91.3185751130328
91.3321044032331
91.3675688145089
91.3554878405991
91.3715894352137
91.4416789491384
91.4842366801156
91.5000708930026
91.5181283538625
91.5239012603999
91.502926438346
91.5267137069728
91.546377373082
91.5064688278659
91.5243495348328
91.593891616372
91.6280319282159
91.6104821507525
91.6106258343461
91.6890018846265
91.6842610815708
91.6224181405015
91.6370208034688
91.6775519444871
91.6617868304057
91.6840986585814
91.7228863230028
91.7706106499301
91.8076762443116
91.7727304386631
91.7194782464757
91.7403183497149
91.8281219562196
91.8757934082866
91.8758435344895
91.9052081355093
91.9175745054733
91.912166291763
91.9568059981428
91.9987972856834
91.994109898613
92.0523030427189
92.150254406509
92.1800543865345
92.1508041311969
92.1424030556762
92.1442090803111
92.2061654309718
92.2593966934442
92.2619528534855
92.273804985912
92.2968068869768
92.3156571267991
92.3707162712471
92.4212120531532
92.4519032412892
92.4748597790779
92.4433391946746
92.417643740169
92.3870884471824
92.3856463221461
92.5081248108656
92.644877839217
92.6852832726327
92.677008229976
92.6368906761523
92.587860725191
92.6090098901593
92.6331175441589
92.6447937531559
92.6306852000402
92.6729618702042
92.7464930806354
92.7894121590653
92.7964292338999
92.845803272664
92.9005225352903
92.8656017979938
92.8652890207855
92.9213337844805
92.9261701237639
92.8930615156394
92.8820260811091
92.867647366513
92.9005693548237
92.9768073316894
93.0062168676397
93.004128872821
93.030342134123
93.0701850996702
93.0814986258139
93.1244088022543
93.1478017184978
93.0771873523502
93.0886003650593
93.0926533921161
93.0706469371728
93.1413354362311
93.1681531686717
93.0736804886255
93.0698079084538
93.1146206842624
93.1289314554914
93.1937096357582
93.2489426685343
93.2796561863642
93.1989612433519
93.1465292706364
93.2260263534666
93.1936915282856
93.1286939723643
93.1947707892451
93.1966191854063
93.2346448753223
93.3473982811554
93.3136207923854
93.2747630674829
93.3147055011508
93.3453835919925
93.2734821639926
93.2346771869659
93.2599543376283
93.2779950279741
93.3896138383428
93.4122746803257
93.3134532561535
93.3075692488468
93.3952690125289
93.3991509732878
93.3806011247727
93.3769724882088
93.3835705713866
93.3758661727105
93.3466430778186
93.3624851030194
93.3786872973763
93.4061524759257
93.4132330067724
93.4374981228533
93.4737477893756
93.46520559303
93.4059828426438
93.4326993189273
93.5628937429234
93.5975660984582
93.5834815889518
93.5460597550298
93.497942585321
93.517716293436
93.5455346995731
93.5414951704952
93.514444207168
93.4939053580272
93.4349596840342
93.4442026369034
93.519836919986
93.5253909442777
93.5069724333476
93.5528524224127
93.5420512844434
93.5195460653682
93.5851299685798
93.6117094623636
93.5406740928199
93.5107658173554
93.5127060059112
93.5165708470504
93.5230644116584
93.5497422540153
93.5691585596197
93.5297336244523
93.5215353036093
93.5187578407722
93.4889808708736
93.4784699376437
93.4890469338582
93.5103527068689
93.5251723316101
93.5694692354123
93.5601647012548
93.5890250191997
93.6376172825222
93.7356491924927
93.7569860913223
93.6999404341584
93.7135728170378
93.8291168393787
93.9464092302156
93.9099072717906
93.7800779085542
93.5976095416168
93.3990155072305
93.3887603529048
93.5061058638018
93.5442142051627
93.5235825622701
93.5519485288444
93.6294484342798
93.689866261806
93.6462569612213
93.6272528274985
93.6631703069621
93.5527562862996
93.3972542992227
93.4007275880945
93.3729538830213
93.4496594307409
93.6020503285427
93.6601171136217
93.6157453277849
93.6276063500502
93.6436168694209
93.6497514752233
93.6079516923081
93.6209494477362
93.6861431414977
93.6763536766901
93.6219483814475
93.6641126797882
93.7446890658947
93.7989523496522
93.8097212862264
93.8798077161231
93.9243454578766
93.891594645263
93.9070628184119
93.9197385450028
94.0225476183599
94.2622166997901
94.2916184714558
94.2997860828512
94.3878820544095
94.3948204086033
94.2868249836311
94.3408433705726
94.4856046278181
94.558606308071
94.6144560363006
94.7713384583598
94.7918780533456
94.8089010773103
94.9006730271578
94.9719318986615
94.9766632494704
95.1534704239844
95.2135407624567
95.1645882919056
95.1552184693782
95.0862573170063
94.9594200797116
94.9307782946638
94.8976785029178
94.876920283644
95.080460256069
95.3744670141792
95.4940955760066
95.5050002609445
95.5135309370468
95.7389091277656
95.8919453090857
95.7080886012041
95.573225832371
95.6803366577508
95.7590809916058
95.9120512058213
95.7299939127861
95.547552799546
95.7868200679983
96.1454809561923
96.1189483831866
96.050997049844
96.1071416707173
96.0742066932048
96.3776255285521
96.5282540736842
96.3471258801079
96.2480944248103
96.2846598912084
96.5220481873096
96.6477796693729
96.749050885358
96.7239083840649
96.8453528457194
96.9515110918318
96.9405591961538
96.9186141765156
96.9523286548551
97.0590510195682
97.0759680438667
97.1832810249033
97.6821574829828
98.0799785559266
97.9685364275355
97.9119953590986
97.9631982304026
97.7241905786301
97.2467545629721
97.105356436423
97.0827564506107
96.6935616272389
96.3691016878391
96.376075549863
96.289815616725
96.0590408540118
96.0584978368989
95.9695763849591
95.7866964772847
95.6461354747774
95.6362264426799
95.6442407154648
95.5794395112012
95.4035271778774
95.1413188249196
94.8616762085488
94.9881780583676
95.0605361263833
95.0768775490463
95.232439681336
95.3618466505371
95.2762787924267
95.1928380684107
95.2493366357344
95.3275157434646
95.427669381767
95.3315795775519
95.0478632480965
95.3409057487981
95.6025341262303
95.3808295015234
95.2472838143396
95.2358571665488
95.3529340026501
95.5241890878092
95.4785070976332
95.3996601268764
95.2889854022629
95.2913591629936
95.4051409069665
95.6505949854902
95.7564491477467
95.8937611744113
95.9639851511797
95.9954479262245
96.0426711381568
96.0921681348607
96.1346625097796
96.1815603788226
96.3982902226533
96.6056386824346
96.3853591824675
96.386114200311
96.6364555503198
96.9328993705467
97.1176774836824
97.0628389948263
97.1031928832885
97.4378958180978
97.7372604402398
97.821908963495
97.6852308862992
97.776959153971
98.2061420301757
98.2974429519162
97.7251555859314
97.6385027416015
97.609240740419
97.5717694182294
97.777220165638
97.7974433035939
97.662676757543
97.9653750017701
97.898458633243
97.6027027337684
97.5336861630114
97.7325443732322
97.5065184648033
97.0758415262323
96.9925563089843
97.0566654887813
97.2837653321493
97.5122523730757
97.4668037831501
97.241647996184
97.0778420922151
97.1426455750645
97.4281604659629
97.5817226104533
97.3366408863855
97.417327496404
97.6677299633367
97.7416170634916
97.6553880732359
97.5778532201576
97.3965686795264
97.3685665521393
97.289763036464
97.3088069187796
97.2335601624628
96.9919389395343
97.1251903399348
97.1106369301226
96.8634633489604
96.6483112971767
96.4504524164474
96.4858105353781
96.365738194207
96.2937727670615
96.2572865984297
96.3627699451578
96.2797693232785
96.2240602878113
96.150856485947
95.8795845091554
95.8327900624732
95.9858680411082
95.9196431850159
95.92688262064
95.9567904042645
95.7776930795137
95.6050908195942
95.6826175762005
95.8620413703091
95.9549156559579
95.8438785208834
95.732221002126
95.7017985818015
95.7627477248552
95.6478879623168
95.567619121111
95.5648243075038
95.5429299177341
95.5126739257574
95.5342117407948
95.528298799116
95.5824335388875
95.6096369684766
95.6122353350229
95.6326710634846
95.5666256954736
95.4725171842581
95.4635327821165
95.4928298137826
95.5299103303491
95.4791713253178
95.4546353504426
95.4100926737651
95.3910195465752
95.4313058981668
95.4778965588045
95.4558544568282
95.4873001742189
95.4547754502413
95.4245015682837
95.4828879396666
95.5483733626612
95.5741635541635
95.5813533257715
95.4993766239439
95.4349878451678
95.3880959643792
95.3771435254536
95.5206574656614
95.5590740179095
95.480204837041
95.4998458925716
95.4839745136887
95.477612546742
95.3838348438307
95.2993053166454
95.4416877466087
95.5341491845443
95.5508668826495
95.5122839271012
95.4811060596447
95.535389661496
95.5405625381761
95.5127627638736
95.4697040093912
95.4489842301664
95.4721525899694
95.5095494928369
95.5056854010381
95.4740989278063
95.3768194863749
95.4008253493931
95.44216074496
95.3861790999815
95.2665474172709
95.2481712009251
95.4040024789347
95.4670175718319
95.3207491379746
95.147052216178
95.1315522037605
95.1454300743394
95.1404479143183
95.0704292519758
94.9436779555588
94.8129359114705
94.7498020800952
94.8627370340117
94.7788225151663
94.7201584909962
94.5857203847777
94.4085990893376
94.3755307529946
94.4176188333951
94.3320481686117
94.2655736871769
94.0774323246905
93.9056936427142
93.9016473229897
93.9611168924446
93.9224104879606
93.8136588089836
93.7354702223102
93.6361659222585
93.5712461554194
93.430346079471
93.1687210130505
93.3825145493937
93.414514285066
93.2694194693155
93.0906176073539
92.8947894725598
92.6461383717996
92.4097843708427
92.0844956038407
91.8800595765858
91.9321317087633
91.8377192853358
91.5795963581093
91.2396222556366
90.9361028454403
90.614583382899
90.355431813662
90.0902905134747
89.6129512825788
89.6072681348659
89.4725601105046
89.2105334120172
89.0855874064448
88.6675883708281
88.1805297384671
87.742611703376
87.3064153002446
87.0135030331348
87.2285113962129
86.9530400860172
86.4542928829814
85.9058798152709
85.4946769820738
85.3227907361469
84.9316659719866
84.6375116461897
84.5345015239578
84.1983175118239
83.6776267335435
83.3978036444254
83.2554287584954
82.8538606262986
82.2348540275446
81.5028874918515
81.610906896263
82.1584115490132
81.6144613544269
80.9976251035762
81.0128856199862
80.986043071814
80.5683175966099
80.0754091918329
79.5627505850636
79.3361261124811
79.6545160266133
79.5882711718731
79.1529965216596
78.6956302074156
78.4358344731315
78.221094587618
78.098745722343
78.050995545461
77.6361714980078
77.2043208962202
77.3040207719749
77.3289517469981
76.9444663039536
76.5518820182201
76.2973842431304
76.136854910448
75.871575027289
75.6408365968002
75.4358201760095
75.231422598166
74.9892483859443
74.8015183739218
74.6308716019054
74.4657869843033
74.2799172236454
74.1654316826816
74.0004232212439
73.8405334139842
73.65402856997
73.4684089462216
73.0549608422008
72.8711635244967
73.3171011004395
73.2406104950979
72.7643770665469
72.8085157260081
73.0291602250273
72.8724454459723
72.6322535918276
71.9585185220309
71.3383135126344
72.8253128934429
73.6613020799781
73.6063944200088
73.5751551877261
73.537173624381
73.8257647645421
73.8741513915731
73.8028415066474
73.9022478007223
74.1526926201053
75.4620553087826
76.5362801116121
76.3794882094408
76.3074074705701
76.9932189308828
77.3193350160249
77.361368749946
77.5614435011133
77.8871085824536
77.9342394566833
78.6143962927598
79.2115837291662
79.366034858437
79.8208212179505
79.9543693581079
79.9275659876345
79.7034480918278
79.579934540742
80.9985486696834
82.0353530326167
81.9189371718323
81.6307561653141
81.6079308595366
82.0825306239979
82.6787706852216
82.6802994946152
82.467250024311
82.8047265850567
83.3224338285206
83.6176403269317
83.630600960585
83.6387530479325
83.7116125730273
83.6066038168627
83.4874529938829
83.4262587439731
83.5976195989744
83.8377987239877
83.5464324491401
83.0685165488933
82.8241958189666
82.8653616262382
82.504721162121
81.8517722569429
81.6120816379212
82.2616101656058
82.2531764309687
81.8511155974596
81.4482065870122
81.2596128165029
81.3095192284622
81.2527507483467
81.0788581675458
80.8646606988499
80.4997630576732
80.3591726014004
80.6941797898047
80.591064100109
80.2062117016166
79.942557436076
79.8016107533491
79.4397618746265
79.0796981172479
78.734134003125
78.2530634165387
78.159610919752
78.0443458321061
77.6094606464543
77.0981241530644
76.6408102452118
76.2588096704292
75.8338066375283
75.5327831530707
75.3772041399692
75.029103217775
74.6642212305455
74.5995187992927
74.5252897882355
74.6237964786295
74.6359175296368
74.3969152055171
74.1804670869938
74.3350494673629
74.5234937094817
74.4943764070279
74.4686803720236
74.4749765956649
74.5184606324199
74.5592411096304
74.8341968000649
75.1139405000264
75.1953614699876
75.3446379205153
75.4863190952642
75.5039694979449
75.7797475370616
76.2311213095372
76.4431515945661
76.5253778134094
76.6802484368675
76.907777209981
77.0990319130513
77.2958093594264
77.5021603867312
77.695107321403
77.8656769706734
77.9602577787457
78.1013717659018
78.4051609353306
78.6640479687175
78.806942328592
78.893788430497
79.014039289498
79.1347172594621
79.2253366222824
79.283200361031
79.3270713258633
79.3534108728505
79.4055535813774
79.4907895147147
79.5399040860527
79.5649171477423
79.6139141318501
79.6717057557044
79.7333668973185
79.8070898368411
79.8754446458496
79.9528815081772
80.0324088116882
80.1133068655004
80.2269559119082
80.3360068595032
80.4362155487339
80.5368044920663
80.6372618430208
80.7266978825413
80.8164081704144
80.8862304826086
80.9530331818031
81.025087432376
81.0846814014319
81.1243034704401
81.1486604545408
81.1838654882059
81.2140025625228
81.2323643436515
81.2309200399787
81.2109288913055
81.2223755287861
81.2569193418481
81.3004966764963
81.3329340575961
81.3364536795264
81.34068448208
81.3586709962371
81.3732978066219
81.3867550929925
81.4060316899119
81.4139465371551
81.4407306526186
81.4623858591585
81.4521768960498
81.459464681687
81.4857111108606
81.4952400078015
81.5177033248585
81.5574544341779
81.5768514816135
81.6022841967442
81.6461534042937
81.7178631973716
81.7874496229337
81.8507233063859
81.919599670003
81.9910269396395
82.080224315238
82.1862960020544
82.276665694629
82.3737631396689
82.4599455145756
82.5436551312025
82.6598981329033
82.7679883364181
82.8697093691221
82.9778904350372
83.0890315615818
83.1895946576319
83.2920715678024
83.3821350690144
83.4587038171273
83.5279713279322
83.5740648935348
83.6072993245165
83.6284264155529
83.6219285026697
83.5968507072115
83.5576581680181
83.5086689447996
83.4554038040322
83.3956266327754
83.3270615247666
83.2462787412996
83.1554626754351
83.0750467728134
82.9861695257661
82.8782339224837
82.7822155723238
82.6920423009125
82.585945059714
82.4572465579605
82.3301861638892
82.1899769878572
82.0536687914455
81.9208189219732
81.7730615784772
81.6037812103046
81.446304315518
81.2924065434501
81.1252272300264
80.9466775814617
80.7665541271798
80.6158622549016
80.4786375736348
80.3149964892697
80.1595241315542
80.0404948894227
79.9378570800842
79.8243398924721
79.700696458477
79.5679966483914
79.4211901800439
79.2638116886033
79.0962643054734
78.9089886227465
78.6923522554118
78.4437378775844
78.2170521876831
77.9766253725932
77.7391086392392
77.5198035807064
77.2851775351607
77.0233544831119
76.8185856535052
76.6235519507955
76.3990090240447
76.1667132041251
75.9880489320606
75.7968401540269
75.5624960260083
75.3315921399822
75.1126241640428
74.8845731480437
74.6641950056938
74.44857303482
74.250429896743
74.0571930559533
73.8592408185246
73.6562046851186
73.454668547016
73.2579815135272
73.0922281409077
72.9272754074064
72.8078247477594
72.6934292834852
72.549393789521
72.4114285818164
72.3212149000282
72.2246090900415
72.1446879170941
72.0731785227052
72.0369756358229
72.0189112677135
72.0204428179608
72.0308232047268
72.0477156987137
72.0606006534128
72.1134039630314
72.1951643023271
72.3055255103582
72.4592424671684
72.6283524978285
72.7864967986942
72.9940892780179
73.2201975423104
73.4453344201727
73.6804982338603
73.924666086479
74.1523043475511
74.3651489971978
74.5984626067558
74.8460564105392
75.0661024051531
75.3110281638144
75.5410843083569
75.7432330040331
75.9368464262712
76.1377924630038
76.3151887665136
76.4517924876299
76.5760177494548
76.7242896974262
76.9015724273235
77.0908685484912
77.2809934822105
77.4657229579147
77.6481392963672
77.8941508750396
78.1329684193681
78.3477511215568
78.5468465203815
78.7327532444476
78.9204634541918
79.1010092961419
79.2771415676944
79.4655237878563
79.6495860232504
79.8218448044504
79.9769662893908
80.1582982568187
80.3327982866779
80.505713226774
80.6692858332393
80.813787711236
80.9853638181031
81.1315271874757
81.234633459072
81.3367659608826
81.4439245990668
81.5615285266541
81.6566242350053
81.6971007162568
81.7049810648013
81.7520049775186
81.8259306546312
81.9218417817196
82.0232529482615
82.0685193678008
82.1257008525107
82.2470124505602
82.3370479854878
82.4244984295683
82.5024211630219
82.5499322338391
82.5601886902439
82.5854839809146
82.6490693420291
82.7142490492142
82.7395910342562
82.7444727323045
82.7504693377664
82.776641102371
82.8096319371964
82.8300755718272
82.8746195089183
82.899767269173
82.865731410181
82.815204932103
82.8251984764226
82.8455235437579
82.8458547207382
82.826204289123
82.8054031781028
82.8171389062095
82.8388915614002
82.8512128517749
82.8455696835561
82.8375829039408
82.8084611393949
82.7673278151464
82.7378782245559
82.6752010114619
82.5905534004246
82.5362625199469
82.4426933885799
82.2994959000717
82.1709513757927
82.0527829224542
81.9431064913591
81.9052599670327
81.8722354698278
81.7947035523513
81.7257961187178
81.6806161572691
81.6178573867812
81.5308959377413
81.4336404250114
81.3699719190282
81.2929082876362
81.1625122213523
80.9997829301184
80.8749011186623
80.7803935103613
80.6774876835898
80.6007777741106
80.5517183632013
80.4673094000064
80.3582974646151
80.2710677034738
80.2048241045234
80.135553047229
80.1205425573166
80.0493390782175
79.9585840316082
79.8860015508222
79.8134622287189
79.7668419426548
79.7220652752495
79.6652962705952
79.6133970313548
79.5592097032408
79.5487627154392
79.498506189678
79.4359861323991
79.3903907878736
79.3279818626554
79.2495840723807
79.1880987471602
79.1459284395703
79.0903558227457
79.01006946291
78.9860437182832
78.9578777809399
78.9148662418556
78.8679401855617
78.803554686636
78.7444976463422
78.7289289032611
78.656400640766
78.5909965663057
78.5085206036212
78.4052745746179
78.3437917079128
78.2889874105232
78.199183170611
78.1142647114479
78.0132289254539
77.905770162002
77.8208140931558
77.7629694514691
77.6440665594252
77.5246709370247
77.4395334639465
77.3232554478837
77.1927116156848
77.0824439893676
76.982371948201
76.8238220712106
76.6522972439704
76.5456458227938
76.4345316246685
76.2729255465337
76.1929367345972
76.1779060952178
76.0562290637005
75.9608370234315
75.8813506499828
75.8681138485042
75.8651786683439
75.7940854904667
75.6624277592623
75.5689378777514
75.4892255560537
75.3999019688131
75.2866953255146
75.2079197397
75.0708243328424
74.8339568416128
74.5861020967996
74.9948600122706
74.9833132479171
74.6895419739184
74.5353016353112
74.4311135800994
74.3913505275984
74.3224677585596
74.1691162885388
74.015283511275
73.9098799225652
