1798
3999.43349933624
650.420452594757
1
128
4
93.9029270945541
93.9535557398801
93.8356237166351
93.8884855928166
93.9378961300166
93.9371302532216
93.9907561034624
93.9860696029944
93.8824916699702
93.898378357935
93.8522935285523
93.8088186172831
93.8245325759709
93.8774210461298
93.8618485850254
93.8924270705802
93.9400768076769
94.0327852055593
94.0667799464206
94.0790614510171
94.0148104544972
93.964981184016
93.9521292183776
93.9573843659728
93.867582169915
93.9365393844807
94.0078068802146
94.0652186315063
94.0395630626866
94.0104941770002
94.0440841503154
94.0460702716143
94.0198075774228
93.9511635389123
93.8144511182147
93.8859094873378
93.9610438093606
94.0250092152996
93.9978579874502
94.0231143954196
94.0857440305165
94.1234858351035
94.018830067901
93.980044401491
93.9443609951587
93.9877445777181
93.9734556391527
93.9672041809407
93.9685856195404
94.1129677262011
94.0968453560127
93.9733515778049
94.0729035446359
94.1807427223698
94.0751926571602
94.0940762272153
94.0694374463093
94.0461885634531
94.0096144580067
94.0570225595922
94.1538911106799
94.1443175009464
94.1095356654601
94.1299447480014
94.1643521117746
94.2586976118041
94.2090702411294
94.1386062571965
94.0303258029077
94.1078110453551
94.0843507908252
94.1371876582156
94.1729417992403
94.1779766103102
94.1549898727297
94.1276036253671
94.1561812516443
94.1810145866957
94.1703657107355
94.2853738936451
94.3388720071258
94.34017542987
94.2033462764745
94.1391464826386
94.1144397291558
94.0479728001548
94.0564574784613
94.325668457888
94.4338288370491
94.3612938259658
94.3713921722323
94.4243666364619
94.39167836493
94.2414602452888
94.1584250097866
94.2671264851349
94.3233232311551
94.1924092390422
94.1249950881626
94.2233911194204
94.3501164502701
94.4714085902712
94.3819138755111
94.245192752814
94.1505302196654
94.1628703161497
94.1671474130803
94.3842236546776
94.5343725464323
94.5581882978315
94.4819224245116
94.4189539634473
94.3445831702966
94.3053548059451
94.3316323826244
94.3905252625498
94.3543159065903
94.4118412124543
94.4645713214363
94.4750837684855
94.3578490015517
94.2796280057084
94.2597087833842
94.3819731679719
94.3956219473044
94.4591720951024
94.4729531764877
94.4585866286531
94.4547748928477
94.561670722226
94.5216699795113
94.3532543450704
94.2146903932601
94.3386548350493
94.5323612320286
94.5687256321315
94.5127967459046
94.5518114991103
94.5841893462701
94.5958730376765
94.5143270294418
94.5339728287463
94.3944586158461
94.5505613562185
94.6393493086161
94.6299544912766
94.508908132478
94.5405955293383
94.7034019138609
94.6587590331263
94.508269095968
94.5289873376534
94.6217457823364
94.6598364125223
94.5719902429041
94.5923769109775
94.6582187676983
94.6646699255779
94.576093510863
94.5729828317684
94.6954404472609
94.7609999418731
94.6932642049912
94.6882380082258
94.6365039670803
94.5831535511552
94.5274508453695
94.5957131755258
94.7091810714917
94.771718659971
94.6246415095522
94.5176469426448
94.4861174292159
94.6220000833968
94.6675162282421
94.6831392325475
94.533638180987
94.4696371169481
94.4232076046053
94.473101795213
94.4406114606727
94.3524214032403
94.2487386781026
94.1969180462429
94.0945720126779
94.1247826079379
94.1642117827526
94.0237848034545
93.9877660010983
93.9124450223364
93.7958937923136
93.8288245671005
93.8001795350155
93.8059436647772
93.7237150414665
93.627781798497
93.5129277278823
93.4570335106996
93.3516476631444
93.3090576469674
93.2568765397035
93.238613792212
93.1495449123854
93.0742048695817
92.9020287799753
92.7701780701194
92.733766956333
92.8219154812352
92.570587963752
92.4118335993155
92.4258075852604
92.39507681612
92.2911131310899
92.1353183272306
91.9661948346752
91.959796386362
91.8705798270253
91.8691771706726
91.8036357148941
91.794406277738
91.7277567102027
91.5210016109484
91.417872761304
91.2279136820277
91.0796392079984
91.1729446739428
91.1360045683425
91.1317826305124
90.9569811569296
90.7551544101267
90.5808119937411
90.6014062915479
90.6620284429291
90.5619269802486
90.4136250249343
90.4150812459191
90.3319203679681
90.2400663384066
90.0174604424493
89.9988637110581
89.9840160592314
89.7502126982678
89.6226423096328
89.7316421911762
89.6468871962816
89.5536610429543
89.4956192411293
89.3363718416978
89.1740695743965
89.1980201476297
89.1280756339423
88.9981211614172
88.8696811741394
88.7574058091922
88.5798885452699
88.632162230406
88.6774256073104
88.6571912625072
88.41226746956
88.2016635380992
88.240358838103
88.2423776094838
88.1150367970406
88.0259057777646
87.8495791991618
87.8135648788122
87.7379480086998
87.6827856855792
87.6206904724896
87.4368719082306
87.2876692395131
87.2272146292479
87.1429933803709
87.1684185577664
87.1133041663064
86.9979980776927
86.8861029943935
86.9426474248551
86.8041725454544
86.6602658808049
86.6147340828813
86.6120738863249
86.4556103543011
86.3252350630771
86.2338135639193
86.1405206580685
86.0105487890548
86.0465499500397
86.0046621121142
85.866626331757
85.8275250840781
85.8286725526993
85.7519328672093
85.6865663962591
85.5743793940602
85.5093059025131
85.5164361452137
85.4377705373433
85.3082172644666
85.2114580435284
84.9766569324738
84.9229564611876
84.9580116027802
84.9320071259685
84.8335824306989
84.8566816737734
84.7749381569195
84.6728586818944
84.5262073614919
84.5414990407691
84.5935543655675
84.4572384947073
84.2691692307517
84.2584683032012
84.2443184994343
84.30338220263
84.2326293547498
84.148313463483
84.0694602850295
83.9684684091902
83.9044926325973
83.9015809313971
83.7691267255954
83.7802189147178
83.764856937689
83.7320767694037
83.6726409165783
83.651385376221
83.5533940788729
83.4878342023435
83.4251652730688
83.338241539043
83.2365651697485
83.2371028958824
83.1997801738714
83.2387078397213
83.2269410355355
83.2237787918954
83.1442403263049
83.1174742518931
83.0701618765674
83.0593444310059
82.9719822476917
82.9397161552284
82.8818308180728
82.8452281224257
82.818409739676
82.840993231958
82.8075648663111
82.8151103173964
82.7785336613901
82.7508273105135
82.6712681443538
82.5649504673034
82.4892267318927
82.5368303749965
82.6245514036791
82.6354291622278
82.5099514138816
82.5560386688987
82.6019062963804
82.6727805987062
82.6207048277743
82.524288509998
82.4711639181963
82.4764210801327
82.4203118532263
82.4647280315257
82.4631470100862
82.4826237019172
82.4570829135348
82.4287701594763
82.370791597307
82.4245457826663
82.4329259178757
82.4290342371008
82.3151489073642
82.3089796397703
82.3640258716526
82.4438470680094
82.3958941117699
82.2872036500883
82.194590536508
82.2359172765149
82.2189257350079
82.2862444004482
82.1963345472732
82.2033109525949
82.209412259924
82.1552838437067
82.1718884118557
82.2713578378339
82.2056174294836
82.1582214265427
82.1020446452934
82.1119458968387
82.1198671703357
82.1461035225075
82.1772542723248
82.177706723714
82.0982250064443
82.1311119642154
82.1309102655588
82.1958790572304
82.2128906809111
82.129502237268
82.0297367650393
82.0937656980622
82.1386114328099
82.1299388521418
82.1514358535615
82.2484899999054
82.1949216148095
82.2658277384619
82.2933973143195
82.2763683524044
82.1813679331504
82.1936642830112
82.2681881520262
82.2647230949429
82.2722776207337
82.3413853130959
82.2723534785051
82.2848647711797
82.3027184524881
82.2887969496344
82.2838471261838
82.3592211026804
82.3866739489711
82.3756632623191
82.3738732963794
82.3985073790413
82.3898326397542
82.3889627348392
82.4397069143513
82.4806100626484
82.4959441733373
82.6443395623039
82.5724469510697
82.4841293623806
82.5543194153068
82.7004716131389
82.7138285290842
82.7697873262978
82.7728538272243
82.7634499869121
82.8144601838862
82.8953403068521
83.0050906715541
83.1560118755268
83.1308890781358
83.0616761295799
83.0356189825714
83.1589754282008
83.2193848883008
83.2218584894849
83.2469994220011
83.3184331717207
83.3211703308022
83.330615474533
83.3399001183156
83.4960318615364
83.5968481839931
83.5659343050767
83.4946498837898
83.5324346459733
83.63701629948
83.7791218102237
83.7280597798051
83.7038124900367
83.7585509431374
83.838914455555
83.9526447423073
84.1513140290087
84.2409539662406
84.2138192256549
84.1168106593245
84.1544734944325
84.18880959626
84.2253531289021
84.2422765916635
84.244589509058
84.2426468105107
84.3230868606888
84.3179804766684
84.3205093984644
84.3294344750128
84.4377020018459
84.5345595352504
84.5979970304662
84.6152897188892
84.6665177240045
84.6759016671742
84.7722626414589
84.7894184858689
84.7478857392644
84.7474356592161
84.8292768354916
84.8290250843569
84.8208448719699
84.8395107090159
84.9590401495109
85.0095883360719
85.0405840592936
85.0506911577576
85.1057797913623
85.104845480887
85.1398246627593
85.2269134314487
85.305005291048
85.3060668482595
85.3719005715817
85.4017305797499
85.4669545738333
85.5172811041171
85.6060297272039
85.6110003652762
85.603887645894
85.6556786230417
85.743015882899
85.7519899486215
85.7926926397933
85.8173074455649
85.8122082865786
85.8660285944004
85.9330437106588
85.9077330072664
85.9239548462929
85.9752347465349
86.1317271503152
86.2226222201227
86.2133287286155
86.1835900854805
86.2135454367404
86.2267728326252
86.2065012149166
86.1740707501324
86.1847849606998
86.1909190752266
86.2942359936662
86.3579729916222
86.3480593016302
86.3049805159223
86.2551133203943
86.1224257020025
86.0760203738383
86.1282102615816
86.1827614652401
86.155404267314
86.0909653750851
86.0974748087148
86.0755546832228
85.9579430591341
85.9164123587159
85.8429382197706
85.753955880463
85.7195455575636
85.7286785946011
85.6560316284986
85.652139200919
85.7080814655726
85.6768162887014
85.6139380618977
85.6354439603526
85.6042645089238
85.6191511176435
85.5795520536834
85.5203286092977
85.4353334818006
85.3560900030789
85.2878521909432
85.2719619803204
85.2342568298515
85.2319434508471
85.2121940714871
85.2096787304918
85.1978227877325
85.2852470505027
85.3491537059824
85.3644809809775
85.4005889045648
85.4770505655349
85.5849406940329
85.6844951773503
85.6767125408553
85.7229900637319
85.7841229708358
85.8585480587878
85.9241207724212
86.0077293328301
86.0501920923466
86.0785696903956
86.1451015817512
86.2224228615409
86.2212930380108
86.2674731137055
86.3091475447115
86.3723869484203
86.4778331653162
86.4991380656445
86.4521181763866
86.4613843757374
86.4502632948442
86.5234439023241
86.5971442600374
86.5984357730802
86.5658309070138
86.5926110131015
86.6317235394809
86.6990257776101
86.7150425840169
86.7419178905595
86.7640685476758
86.808206476051
86.8335502979259
86.8908275344977
86.9264826878531
86.9719388638779
87.055688420762
87.1186267955534
87.1788718168725
87.2286906706403
87.2975978109451
87.4841854761881
87.5848961532859
87.6064215575749
87.5895670686636
87.6724667893995
87.7148369677102
87.7273417282101
87.7585899240911
87.7873787381522
87.8170692166266
87.9213941803205
87.9526174818407
88.0002602693947
88.0151638418039
88.0615611425931
88.1402479173574
88.1923762277693
88.1852516922883
88.1873750409638
88.2403724974051
88.2645188850914
88.3159831844707
88.4048117353763
88.4541095416537
88.451880850878
88.4183092922249
88.4686864662033
88.5287778788565
88.5435331086254
88.5052235784575
88.5330735971356
88.6248477607576
88.6597769863762
88.6805278916435
88.742891283753
88.7427135955556
88.7385109665293
88.7428759886224
88.795326809837
88.8582809023783
88.8735390840561
88.8352968584542
88.8527802929009
88.8922982295593
88.9194519720743
88.9109807347086
88.9447031485406
88.9936967576197
89.0468906912983
89.0837708680603
89.0889345619011
89.0400683559877
89.059964984858
89.1201458473519
89.1518793131361
89.1442699174359
89.1498095396777
89.1875381639756
89.2292024607561
89.2269592824629
89.2235176943465
89.2000214198055
89.2388033879868
89.2837559945249
89.3317455902312
89.3730350038631
89.4194856333602
89.4403172435386
89.4631246083258
89.4630423590581
89.4466126136535
89.4620898124648
89.5215859494453
89.5143570985977
89.5294855536921
89.5777936910095
89.6111302460828
89.6205013657182
89.6399885351118
89.6482278912917
89.6417564026398
89.6437094597691
89.7044123633244
89.6733847488213
89.6517335216556
89.7176821210906
89.7861409027592
89.820183331595
89.8797376383958
89.9126392998654
89.8877619723037
89.8468329775929
89.8613594236386
89.9142335912202
89.9149370142694
89.8673170364681
89.8882854305275
89.9112702551337
89.9076293363338
89.9058295929498
89.9426931946921
89.9998581062669
90.0578092953572
90.0644100036488
90.0888230676869
90.1367425551085
90.1318676488539
90.1683695487887
90.2007946933668
90.2174302618293
90.249971015019
90.2204597236132
90.2995872185838
90.3770469406835
90.3520475090261
90.3129289275201
90.3654481867721
90.3981732873736
90.3964015054577
90.5018245278773
90.5951632083184
90.5881047524688
90.6466041115552
90.7432868134936
90.7062928940813
90.6934437970285
90.678641120015
90.6713507557247
90.7886747837682
90.838544612126
90.8231670621142
90.8642634983307
90.9060822239
90.9194984216721
90.9996017475082
91.065392198254
91.0732356015833
91.0117854837563
90.9842028044202
91.0377348280939
91.1319584579943
91.1604058967096
91.1282577212173
91.1459460290121
91.1613553200103
91.1688739720178
91.2187698444422
91.2940400068993
91.2762350530624
91.2981113681476
91.319917655321
91.2631694082224
91.2679620994188
91.3372094528783
91.4104382777857
91.3459032473221
91.3561252499408
91.3788335428798
91.4025301698706
91.4650510962594
91.5087513235079
91.4979300342647
91.4734017279737
91.4726846785946
91.5015311094076
91.5991618188393
91.6146876508641
91.5848424364821
91.6074404977727
91.6230746763233
91.602902074986
91.6338295792457
91.6865397206405
91.5653244091332
91.5405342072078
91.6605097502648
91.7023093187735
91.7255513900303
91.7549238317441
91.7391014763444
91.6653997829779
91.6084188731414
91.6421172973556
91.6930132855947
91.6538488786605
91.6520466433444
91.7246245989593
91.8437179572556
91.8448437841556
91.7272529181007
91.7199594842102
91.7862565214154
91.8325574728768
91.8527879180288
91.8293208173468
91.8280486344769
91.8622844311241
91.8883366352548
91.8225275703983
91.8263438894941
91.8826823957351
91.8800621799474
91.8931472790213
91.8296851827321
91.8637176476813
91.9053202603389
91.8176264154106
91.8516823579423
91.8986146253173
91.8120248863337
91.8741552308802
92.0004918209011
92.0097666840296
92.0360120494998
92.1070127577585
92.1333629691279
92.1312461393003
92.110463154487
92.0653731489486
92.1167418912683
92.1655748779352
92.1236148866346
92.1156183889621
92.167500425354
92.125661699044
92.0793227982742
92.0717197574483
92.041674500054
92.0003737406615
92.0442702128665
92.0821833205549
92.1173745858986
92.1675761853821
92.216164796734
92.1700435481286
92.1099266927651
92.0985967618508
92.0874875575215
92.1090851033088
92.1259809977169
92.1678523375796
92.1206411358039
92.0507259759599
92.067555694884
92.1298360938045
92.1513436400071
92.0889962978556
92.0300112087424
91.9637885908334
92.0466966002047
92.181636853051
92.1872676143693
92.1809021472044
92.2202795153625
92.2973222538821
92.2990743601101
92.2207088787611
92.2019325859025
92.2597133343102
92.3442311072879
92.3687620676941
92.3507057662858
92.2468049691733
92.1249878613801
92.0852204343331
92.0151182809925
91.9848901092993
92.0580786175935
92.1314461445951
92.208337348592
92.2496965660772
92.2379791531672
92.2161789994915
92.2134578481386
92.1782013712637
92.0798943812995
91.970784127976
91.9245148687432
91.9560648107264
92.0358285687411
92.1491742866813
92.2105247177777
92.2340934299399
92.2578361352815
92.2233409370766
92.2575876465515
92.2905445830126
92.2754013172016
92.3247845411597
92.3666821611354
92.3846547267463
92.3802216982411
92.357009234938
92.370365186037
92.3504555653903
92.3784694382179
92.4317616818612
92.4597987899782
92.5560913792014
92.5894939643318
92.5139528819687
92.4977055166239
92.6833816970364
92.9236392027192
92.8737218963162
93.0047889649769
93.1817819128392
93.1906132674234
93.1579239355234
93.1757638597256
93.4116565936465
93.3980711043986
93.3472861685936
93.4140887716415
93.3231195508741
93.3844717875517
93.4071704102161
93.5596932312052
93.7221683827411
93.633075464027
93.4719445295071
93.6047613646868
93.8685669858804
93.9264123002651
93.8734575389919
93.9129761130419
94.1179825812894
93.9921178555997
93.9086160810738
94.0822031967596
94.1631227017916
94.2028197676468
94.2194489477318
94.3214445600517
94.3576678009372
94.3444723163277
94.4701815977803
94.5599443689367
94.6438209907427
94.490221635642
94.1277717205091
94.1877040911162
94.5018257512716
94.9592524090018
95.1017408104711
94.8711125475024
94.8892969284483
95.0415299945028
94.9090899283838
94.9036389457404
95.2092392165928
95.6510210062921
95.9210700393816
96.1722401510164
96.0029697989167
95.6741695315353
96.0048652731925
95.9633488132347
95.7427799497047
95.9890748661616
96.2439142241179
96.0887496796137
96.0582132962529
96.5858180116652
96.9835842035087
97.0260692430021
96.7488318666816
96.2780712868033
96.1519891236745
95.8808577916841
95.3843810433427
95.5316631411181
95.544021992416
95.5183908279619
95.5004047026107
95.4590729823986
95.4451886291008
95.2864008473423
95.0856004277208
94.7930243555431
94.5535189433203
94.6571723153544
94.5905125200048
94.3769155344592
94.2806344614779
94.1744346051636
93.9966370812226
93.8849435097553
93.9350758591977
94.0181898072507
94.0596668281363
94.1492553026724
94.0487054392527
94.0610487887448
94.2523211933956
94.3069580876962
94.280680345306
94.1109668468169
94.133721812539
94.3498487637137
94.2572846987247
94.1459463187117
94.17042990148
94.1928697943597
94.2087089577744
94.2390360385938
94.3791630640148
94.5776200255083
94.6657822989803
94.8783830618362
94.9488507764786
94.9730540156138
95.0183354052985
94.8277600858977
94.6762516096282
94.8274602356576
94.9527801423244
95.0945767944691
94.9794701203917
94.9140745606971
95.0819388836931
95.4176509895374
95.6249559296355
95.6305376649253
95.6960631910918
95.8414934816975
96.1392522339831
96.8882129213775
97.0697190293696
96.7734633022727
96.8781382501552
96.9226991007167
96.9086082177066
97.1044903643666
97.0311318376112
97.1027530774128
96.9545576566865
96.8992228179762
97.1575204006406
97.2729011018602
97.4899255054107
97.6878120847828
97.1708082775853
96.7801756280839
96.6916755883373
96.7693280839432
96.6789296200878
96.3776588552269
96.2663055573522
96.4560909162736
96.2869375978634
96.2613994209033
96.6750492831343
96.6013200468746
96.2611382343629
96.4590633055215
96.5754942955663
96.4560625966001
96.1928724080218
96.3642188784719
96.6342745344759
96.8232241302354
96.9514301485262
97.132301011315
96.9275387252279
96.9097188887742
96.8065142297269
96.5126113409881
96.4169110783586
96.6752156092775
96.6858176784019
96.3205978755542
96.2017043957782
96.1135484223244
95.9256466928269
95.7730544729591
95.6678305467932
95.7032175347288
95.4889780111318
95.5575846639759
95.6126728476106
95.4066535102069
95.1548646686985
95.1649044634073
95.2798502003841
95.3030895056317
95.2522428811927
95.2701772955007
95.1494234290201
95.0688981177244
95.0123813416272
94.9421126410603
94.8562840017342
94.9286654299535
94.8762938297895
94.7531263149943
94.7201542536192
94.8603040998123
94.8449599781429
94.7051533244302
94.7091898901831
94.7976929351819
94.7972255261189
94.7945556278141
94.7955645302356
94.7608587410227
94.6446273608387
94.6177801854629
94.7207442991779
94.7817413803215
94.6343328599169
94.5730169526347
94.5560904814364
94.5827367996184
94.6303748203385
94.6327603935188
94.6646255699467
94.631358641133
94.6075660381513
94.5995327391032
94.6222718682689
94.7104824492367
94.7221089695519
94.6719581191743
94.5648866745082
94.6044326093015
94.5891338094345
94.5623888257824
94.6046034090546
94.6017777096321
94.5948304181314
94.6597146173197
94.6911535297626
94.6932981365899
94.7157625016081
94.7039986826337
94.5938438639923
94.5772620413792
94.6159184437702
94.6196616466634
94.6090375359818
94.6372044585885
94.6253777084187
94.633807737458
94.643277429411
94.6391043692276
94.6605277379015
94.6718376515668
94.6697186595494
94.682659784018
94.6985595224466
94.7297047368119
94.6642053383958
94.5925130927379
94.5689868406747
94.5862116665369
94.5750228815798
94.5870232284806
94.5957233305663
94.5477817170567
94.4677062848397
94.4696048850563
94.536039103171
94.5330752299807
94.4409705590631
94.3716655300281
94.3097673523978
94.213608823383
94.1831473598483
94.1629892861374
94.0632869957633
93.9058133449767
93.8254650111134
93.8242746100576
93.7236189971706
93.702363434187
93.5968189659749
93.4473043667912
93.3989716631236
93.3714583582296
93.2618657137441
93.1821609261583
93.0720140774484
92.9738089155097
92.9279140314908
92.9432679752555
92.9041276553416
92.7990320851062
92.623915803066
92.5170947776731
92.5054957615952
92.3974982338562
92.1693710278324
92.2082446976748
92.1888744080447
92.075180753391
91.8267084136101
91.6020960112952
91.4212545214644
91.2343973588897
90.9252173776199
90.674321712149
90.5070016844013
90.3617954037368
90.1188522597373
89.7975489239388
89.4169072315317
89.0823129139388
88.8448469250237
88.6039611486682
88.2193183197286
88.0609471448279
87.7447255244407
87.4222477648946
87.1305231065074
86.7252228900583
86.300761028345
85.8856695328829
85.3793089810657
85.0198592435753
85.0058630695491
84.7204145361532
84.1925086982895
83.6161489419521
83.2381793402839
82.9689679163362
82.5257427093847
82.1511904270271
81.9521567220252
81.5480621077551
80.9888951127662
80.6581117719311
80.4192271745965
80.0736242043014
79.5039953364859
78.7342719287597
78.7203323425397
79.1176461030032
78.5740186966155
78.0352543723736
78.02630868906
77.8813861896134
77.4358940518033
77.0016970376372
76.5077304726756
76.2436099907684
76.5048776351379
76.3976805066783
75.8925214991466
75.4482695856542
75.2451791616625
75.0034171615177
74.8535522686474
74.7794640632621
74.3307728247871
73.8848324838149
73.9535237276806
73.879201425756
73.4639089876112
73.0818309763137
72.7962020736964
72.584863193269
72.3089250709211
72.0431816316307
71.779695026596
71.5075116136744
71.2306073933252
71.0028874106951
70.7459376377435
70.5384164021737
70.3043206302067
70.0992880166454
69.884094242559
69.6951712369016
69.4443567205711
69.2444506129671
68.8037125091971
68.600459609358
69.045737638591
68.9350829800143
68.3402595936085
68.3359859554894
68.4646137468093
68.3048765650792
68.0696256874358
67.3501675368527
66.5157796834023
68.2140054320534
69.0049954251258
68.9556631394466
68.8931540404038
68.8945214542246
69.2020106615142
69.2108055800246
69.1678933076486
69.3017957976868
69.4570945934793
71.0954601153551
72.4019060943614
72.1748069122689
72.091143839216
72.9619862803748
73.3297998052448
73.3512261741939
73.6373962638486
74.0724658464554
74.1562295118854
75.0178240975928
75.6588670892807
75.8663410729342
76.3814189277936
76.5773606164809
76.6449094941169
76.4211399129344
76.1629982721182
77.8404518288314
78.9786523109796
78.910773985529
78.6772732463853
78.6667167270654
79.1983601774521
79.8998977837598
79.9128028753416
79.6633308970173
80.0537101030554
80.6887948248457
81.0023688370166
80.9906399053425
80.9984827713323
81.0803796982486
80.993057345023
80.8856669302031
80.7689040208243
80.9506762916785
81.2276729522834
80.8991105975384
80.3393112656881
80.0780664988858
80.1399571571771
79.7867608788424
79.1004848135123
78.8140243206612
79.4115958042532
79.3632458949527
78.9549419182325
78.5481101965259
78.367239586033
78.3762438728255
78.2805806015367
78.095229415666
77.911370085568
77.5326179908899
77.3687628260194
77.6885824820721
77.5635040819552
77.174922994088
76.9348276487715
76.74154129565
76.342314740232
75.9858089877152
75.5859437122316
75.0213440805008
74.8973520353786
74.7646281677981
74.2330729938373
73.6056227796979
73.1295956617351
72.7236845711529
72.2097294861578
71.7808469574787
71.5632292696281
71.1819060718152
70.8120886425995
70.6947348959319
70.5420944027986
70.6058477516178
70.6072611040145
70.3362458605677
70.0889806473907
70.2639046171696
70.4492429778073
70.4131129108142
70.3642332126749
70.3838881671659
70.4410656181504
70.4600796156175
70.8142340954669
71.1616361491465
71.2360500432851
71.4208470939279
71.58933727739
71.6096648658456
71.9510362442568
72.4495178382444
72.7000674594939
72.8111147405361
73.0053633161493
73.2752859030188
73.5122119429364
73.7595263708525
74.0321655181501
74.2840886116127
74.4979309021587
74.5862090246731
74.7666646951175
75.1903241136449
75.5165131614051
75.6821158043032
75.7892164236556
75.9154657350496
76.0378783160795
76.1607822335416
76.2773821998545
76.3497850427453
76.3639403836288
76.3985318724862
76.4987265518029
76.5664102293105
76.5859405090797
76.6612965310938
76.7160806455703
76.7704940399735
76.8424916331783
76.9065035244103
77.0008576742721
77.1226976744928
77.2468650431492
77.3678260554219
77.4996572214653
77.6320099890813
77.7462921065858
77.8607102135341
77.9944554120993
78.1377558257273
78.2313015336351
78.291606155135
78.3516297315374
78.4053925807152
78.4711759514413
78.5290297136572
78.5336801119189
78.5618365877952
78.6168905526635
78.6359006591481
78.6417735215537
78.6496751317282
78.6562553248232
78.7124160361261
78.7580031399086
78.7765400192769
78.7993863897502
78.8454132633718
78.8691292334768
78.8679321537979
78.8859929072886
78.901719512803
78.9074355081531
78.9069583823788
78.9158877500355
78.9504849758409
78.9725166333241
78.9798367623094
79.000211459632
79.0240677708436
79.0358861705545
79.0801337668149
79.135104165676
79.192399844256
79.2692808104618
79.3464519865128
79.4212959609998
79.5139832758726
79.6129612964761
79.7164305508849
79.8160391066674
79.9202037092881
80.0268145921786
80.1399771700298
80.2741203461174
80.4061317185278
80.5273632332312
80.6654836956613
80.7659782409517
80.857149744983
80.9876389179988
81.0981716531187
81.1905914546498
81.2711735681902
81.3166877528703
81.3289421721021
81.3335922762959
81.3286447863987
81.3091958535603
81.2445766146571
81.1668119015801
81.1084651844143
81.0383315654665
80.9669576032135
80.8703207670765
80.7588850981649
80.6417384966993
80.5395156750576
80.4475903171227
80.3066382505262
80.1706148053465
80.0502212034691
79.9141474038521
79.7620036415754
79.5968497864622
79.4287403908416
79.2629973824292
79.0681641674959
78.8772235087631
78.7046425031924
78.5126375425185
78.2885087551747
78.0743889559744
77.8904449900899
77.7034291737783
77.5164158380078
77.3177001145844
77.1595617441847
77.0167035183291
76.8400912119871
76.6591055986184
76.5043769413568
76.3576158965822
76.1994040139259
76.0137195594517
75.8000273089324
75.567100495478
75.299776721872
75.019008363083
74.7364155980028
74.4331032497211
74.1333228775141
73.8280589910324
73.5551538366116
73.2941737515979
73.0185856701064
72.7517287851002
72.4925934091573
72.2377368681482
71.9858712071825
71.7296015732544
71.4695028250895
71.2038830295094
70.9729347463101
70.7304623352098
70.4500839929651
70.1766237363817
69.9471291437471
69.7075547313291
69.4818386626465
69.2544252023726
69.0348225817432
68.8212105647429
68.6241846868431
68.461164563849
68.3030601656248
68.150014248005
68.0210324467787
67.8714985978963
67.737835186787
67.6144897763879
67.5008902000208
67.4377323893422
67.4112742964882
67.3994622639131
67.3910699625394
67.4087547055735
67.4428064275582
67.4714649129545
67.5574786829072
67.6795819434668
67.8207294419305
68.0037957730187
68.2084252446789
68.4559638876272
68.702547449465
68.9737642412247
69.2842892683836
69.5800489366102
69.8980727059476
70.2130620435909
70.5030664882707
70.7749117958237
71.0746441013753
71.391562174779
71.715075552015
71.9931173726995
72.2249016585037
72.4404255690173
72.675625860157
72.9136116757376
73.1125083882135
73.2872284486801
73.4661936133202
73.6258114448328
73.8190499334627
74.0439810982316
74.2883451976137
74.5778142628875
74.8604161002164
75.1086360579933
75.3380336878757
75.6007746167397
75.8560710821807
76.0864929943943
76.315020126626
76.5610932299089
76.789569638428
76.9613968849959
77.1486972758301
77.3502389318112
77.5382828788572
77.7340494726948
77.9329712012447
78.1066245686503
78.2599925483816
78.4293183097507
78.5958237854825
78.7645922293213
78.9163543925944
79.0309767153224
79.1246356976082
79.2078369521817
79.3067037930706
79.4157014542406
79.4801521740785
79.5168487749448
79.5789449932799
79.6179271065669
79.7041219556668
79.8058329351711
79.9091218982316
80.0154707590147
80.1041410182207
80.1586043464921
80.2152829606252
80.2298483992126
80.2390739994401
80.2889117429421
80.3690731941814
80.3777596213139
80.3782053201457
80.4235041399022
80.4491111534601
80.4368108292875
80.4505032206105
80.4364659847663
80.4277263352744
80.4227763192491
80.3914574408113
80.3294303303724
80.3146408602697
80.3508809502371
80.3829120048427
80.3938979651548
80.3679131663442
80.3117915318683
80.2856759879758
80.2769343305244
80.261075011503
80.2154211757087
80.1633385400361
80.1145299253823
80.0339704513879
79.9112954893663
79.7816628964343
79.6783445567609
79.5658120698251
79.4253030223735
79.3001117683242
79.1538079962534
79.0339358875759
78.961642175461
78.9043021746569
78.8020932393627
78.676218578605
78.5300221955796
78.427697160361
78.3398609613354
78.264390409576
78.1546652289694
77.9944824146101
77.8078260250687
77.6467460898678
77.5068197540901
77.3692407048326
77.2442555194134
77.1199609177527
77.005134931766
76.9245487785507
76.8754307196431
76.8003473155616
76.6860268259267
76.5900840255522
76.5025360106023
76.3970599960957
76.275773724271
76.1530277122445
76.0514958633055
75.9902142913534
75.9206726241879
75.8791821144305
75.834688477625
75.7841796488281
75.6947608219413
75.6099507868541
75.5372671426277
75.4834250448254
75.4249804919178
75.3527570254869
75.2332292212097
75.1215742742058
75.0412025930766
74.9740660668561
74.9054582182183
74.8299320837932
74.766545865449
74.699780808602
74.5966588912788
74.49465085029
74.4467489392523
74.4000067861142
74.2913776729119
74.1968701888931
74.0961030361719
73.9708933128523
73.8851468368682
73.8440513975748
73.6872478737735
73.5079001219061
73.4122744431278
73.3151961665403
73.1838505239626
73.0889437839842
72.9186449838939
72.7646103616073
72.6863359202592
72.5368952750752
72.3610782947256
72.2371582318501
72.0988592587717
71.9622207636637
71.805931500413
71.6630307271168
71.5310924207034
71.4573710742022
71.3491299094447
71.2603055650057
71.1563510354734
71.0482647888691
70.9529552779814
70.877165619982
70.8111146429292
70.7292141418989
70.5535805314944
70.4794661156524
70.4224814809071
70.3328707769921
70.1740142946505
69.9742461004502
69.7069902024257
70.02935041432
69.9970360413553
69.7067099904202
69.5529815925898
69.4548537908825
69.3206474053521
69.1790288736676
69.0666520765548
69.0361053477901
68.9719926897604
