1798
3999.43349933624
650.420452594757
1
128
4
90.0479848256001
90.3236004316849
90.4096338592408
90.3102514967328
90.2135153306679
90.284614362797
90.3060435623323
90.2794666758782
90.3431806381941
90.5071439121299
90.458538566313
90.3513166519003
90.4769031684058
90.4795821992159
90.4978780394746
90.6193553335702
90.4542116500737
90.3195561340912
90.2841370288227
90.4444437938496
90.5277576252328
90.4734965360745
90.4925592062052
90.5924031253944
90.7043887014861
90.5597274598691
90.5658014355384
90.4979864888366
90.2080912254171
90.4322303954639
90.71753711012
90.5767786208648
90.3881431696515
90.2078470155785
90.1804108644517
90.2721147809805
90.417652228413
90.5204359588897
90.5954269165042
90.5742394459041
90.345060194233
90.4112357723969
90.5862280342895
90.5700149177257
90.6488730689937
90.7827468235539
90.7200692461231
90.5785729712742
90.4406452415678
90.1557026483322
90.0689694185704
90.4008986959961
90.7197832774982
90.7131055602385
90.7313456127639
90.7722374459348
90.7329685719491
90.7026599883657
90.6717069418894
90.5775227689329
90.6094260873905
90.5465053784347
90.4900699331655
90.7167331913135
90.8151110193098
90.7712766162396
90.8069410566973
90.6059955765599
90.4533315682843
90.6964164284953
90.7505845134217
90.7095576051089
90.9060255360075
91.0096799007314
90.8539969491809
90.5574860205935
90.3109686693461
90.5089310395647
90.9906053181519
91.204405949814
91.2929337122442
91.1413906480027
90.911574671656
90.6956441536555
90.4426970888084
90.4446334900835
90.7314746527456
90.9855881594153
91.0355532766096
91.0398865685503
91.0610217041857
91.0236747859477
90.944467214122
90.7070768472401
90.7329122958668
90.9257059049142
90.8561080121788
91.0045804337016
91.2545509462163
91.1782876222425
91.0657190809939
90.9295038838742
90.8996487922285
90.7898312715428
90.6737403401897
90.9889646793077
91.2610660078304
91.1962532714878
91.2819653250102
91.2529831118995
91.1128967392742
91.1195066687503
91.1392602545656
91.0641933216271
91.0932501696774
91.0460076761906
90.9349218711464
91.0842632392954
91.2138107371228
91.1367147369771
91.1248553357683
91.1361043344747
91.1258858736955
91.137880332504
91.2680056223667
91.3761308580915
91.281085651213
91.2335857021234
91.246690541744
91.1184509970056
90.950691106164
90.9399184773598
91.0037117963645
90.9685405484147
90.9797465030574
91.0619353306003
91.4697448458415
91.5683551372059
91.3965144869934
91.2720310317777
91.1071474715156
90.996906866258
91.1505472839444
91.5285785526515
91.6008593150758
91.4822063074069
91.476769476746
91.4309676480433
91.4303113541374
91.4643160180221
91.4258261194481
91.2684433483777
91.0805626144528
91.1506161115184
91.3592177374955
91.4367008762186
91.5380877118626
91.5860543224668
91.5824649033901
91.5911816094827
91.5826362853382
91.4667081596269
91.4108787181662
91.3360532851767
91.1478853994768
91.1536641239893
91.543532149191
91.7492251488048
91.7357689115962
91.6226777437196
91.3681363036162
91.0842725976567
91.0058076504059
91.2096259152313
91.2375796534223
91.2750327940333
91.5671654632393
91.5895823613276
91.5636134199372
91.6120548588272
91.4998875370214
91.2966459656454
91.1379601844816
91.1142391639519
91.0566126131277
90.8648166122456
90.8276164309181
90.8430061194962
90.8939586116513
90.9305408566483
91.0678736019628
91.1342657593006
90.8659277783124
90.6828136940227
90.5437833289784
90.3088521028952
90.1262269828938
90.0237824571824
90.183496245707
90.4519669876332
90.4947585891925
90.2506382994426
90.042224723414
89.9132781689865
89.784874254203
89.8498901154806
89.8708678642242
89.6971654816349
89.5830933124698
89.5476968144133
89.560330596761
89.518713351994
89.4655212232379
89.3457234698119
89.2144329111289
89.1197554874311
89.0610964175437
88.9491196554394
88.704774635397
88.3682305619745
88.3517812188072
88.5306760439481
88.5770945843681
88.6704128848248
88.6783948297295
88.429895639131
88.19950267452
88.1394514564985
88.0342608833535
87.7972418533918
87.6161079910095
87.5706962114283
87.5934881355196
87.6172096764112
87.5800411779188
87.5125066542014
87.383565639222
87.2426784841128
87.1816806677893
87.0764660781802
86.8556169534062
86.7744584361484
86.817217486056
86.6929785541705
86.6779904124568
86.7055169883466
86.5245212530739
86.3846745455702
86.3010561109322
86.0901231012929
85.871438643607
85.7616780088115
85.7683785216039
85.7413777976048
85.6640601622204
85.5745216414685
85.5603695774088
85.5635000875118
85.5587694336746
85.4381036660247
85.1709235979274
84.9232494283232
84.8888031414837
84.8464781161584
84.7702244836932
84.623920487036
84.5858885520581
84.6832129373461
84.6619422519436
84.5308185258639
84.4039133759361
84.2835781782922
84.3079984749994
84.2571170979375
84.0691870235251
83.9529928257681
83.8762301084387
83.7287086702714
83.6686499213384
83.5865727316406
83.5178155061773
83.4883698346354
83.3621543113681
83.239618451083
83.1526657078729
83.1077841749374
83.1980051009228
83.1556909889871
82.905028770352
82.7266004554229
82.7317331948375
82.7457569977374
82.6685911656507
82.6029956580499
82.6047688849881
82.4998159123836
82.3756840869918
82.3020222667311
82.3016861257974
82.2536389766547
82.1367342211424
81.9966071022792
81.9252091108166
81.8997769514051
81.8444027062775
81.7551776321438
81.6905898677035
81.6530117669014
81.592026843431
81.4232438599536
81.344314345397
81.3266601310517
81.3169381594738
81.331905953413
81.3238741288495
81.2736019277427
81.2346408160652
81.0524228152612
80.9582760743338
80.9722738767704
80.8997002930036
80.772483609464
80.7044550898894
80.7226078765217
80.7272521779319
80.6206798801601
80.5861580653958
80.5694849599819
80.4606293474179
80.3129025125969
80.2102380356292
80.1877549533322
80.2294891407001
80.2345306741713
80.2141723265236
80.2063493168503
80.1678150767497
80.0806323403161
80.0322624913106
79.9642073937355
79.9499937334892
80.009182998295
79.9381497578446
79.8152414884835
79.801530138276
79.7742761699824
79.7915709230221
79.7628268381085
79.669987697861
79.6226123113318
79.6425436796391
79.6055561836779
79.5892523594488
79.6305411789608
79.6155986120476
79.546514154035
79.5283664917141
79.4222772947586
79.4068691506786
79.4446129493208
79.4064400859505
79.433051366456
79.4376813656844
79.317320628543
79.2641386976174
79.2869044734063
79.3327095529646
79.304258742535
79.2554809718018
79.1927776570718
79.1532365128673
79.1552082759468
79.1742820423819
79.205417367955
79.2075408255521
79.1887406986467
79.2000535464387
79.1325056691737
79.0375121878974
79.0156933713537
79.0154822978402
78.911475716481
78.9215123719032
79.0242562708669
78.9604841301834
78.8358597319385
78.8245470573651
78.8898733574394
78.9524393279576
78.8768009039659
78.8121265572441
78.8232904837015
78.8530241101939
78.8260712457222
78.79518191182
78.7957310021749
78.8714990273456
78.9186891174786
78.8634183249345
78.7768110046096
78.7513945160222
78.8129040585133
78.8511878150707
78.8206160002184
78.8529520632672
78.8646409092475
78.9042087858842
78.9478246299825
78.9212560148686
78.9583661092671
79.0872927682296
79.0491931178959
78.9486706412463
78.9346754447069
78.9746764593612
79.0215144216844
78.9453427055273
78.9051608603753
79.0789739882555
79.0975356537149
79.0368075674925
79.0808088478504
79.1051405893331
79.0920246474295
79.0773687621419
79.0930116383651
79.1605260036305
79.1957967213041
79.1758311452967
79.1833298905382
79.3057205581347
79.3970476877793
79.3998633400418
79.3611240368378
79.3880808881384
79.4205034070822
79.4636299181273
79.5117121302528
79.5211952139059
79.6033773198905
79.7064477544969
79.7250328453458
79.7636818120163
79.7792101554965
79.7568105242062
79.7532614743016
79.8071095583988
79.8526097032229
79.9345687919919
80.0365091724685
80.1223412863034
80.1473968541417
80.1643061691525
80.2400720368845
80.3605946282757
80.3712407310883
80.3274942127193
80.3824981960679
80.4480826141083
80.4198883892966
80.4537983501499
80.543130254398
80.6021434408261
80.6359937851231
80.6759957668002
80.7065419513898
80.7383767031547
80.7677692730258
80.7793282474548
80.7875317731453
80.8944461219151
81.0519542216705
81.1496201434848
81.2552191475231
81.3134842711284
81.2441590084948
81.2174518918777
81.2759741516381
81.3521818518314
81.3807927366566
81.3360007232177
81.365168670686
81.4521156905754
81.4712822808539
81.5078202562759
81.5230327639279
81.5450453930472
81.6576223805395
81.8036756120142
81.8183826937157
81.7609181876829
81.8311171486863
81.9734189809689
82.0509705915092
82.0611353126605
82.1330321644359
82.1716039132006
82.1011107345881
82.0642495971302
82.1041296886446
82.1914013062577
82.2118873642214
82.244325824407
82.3185832344648
82.3306193426386
82.3420649278251
82.3913338338306
82.4602826100276
82.5360597866893
82.6347483336682
82.7095816402976
82.7215667578679
82.7918257065419
82.8991389137054
82.9560499711343
83.0023064705457
83.0736090384443
83.1138227432968
83.1515630527033
83.1703339542575
83.1650794939671
83.2421944489814
83.3063103955515
83.3148993843012
83.3866332970995
83.454171741903
83.4912513228373
83.5468330865331
83.5752349895904
83.6181642383726
83.6834903450753
83.7320459649357
83.7670952240069
83.7377556874831
83.710237159208
83.7310585436785
83.7693937572219
83.8440879145637
83.8968586119332
83.8995970223731
83.9329074031913
83.9310974632801
83.8970292512525
83.8670005623019
83.7996180619065
83.7392441056161
83.7614112841036
83.7244785744643
83.6306926223763
83.6190565247257
83.5094903574107
83.3771450997731
83.3289742477753
83.218483865744
83.1160106648217
83.0653199020392
83.0423651029733
82.966628328626
82.8510323966374
82.8141620119468
82.8025336672994
82.7851192669923
82.7703373594923
82.7327492207524
82.7056726166059
82.6587989327062
82.5811362094389
82.5266215013878
82.4543093518063
82.3573809738243
82.2907046486075
82.2457212059398
82.1958522688562
82.1337759199909
82.0596617827367
81.9956207075875
81.9885962313036
82.0173329309712
81.9927914259687
81.9770740894883
82.0553047649712
82.1638047213448
82.2856231426263
82.4068088777647
82.482914800561
82.5940239904729
82.7151362135141
82.797836715968
82.8763991349521
82.9420882582793
83.0175805133975
83.1366964043533
83.2767316857302
83.4000209134
83.4545228724707
83.4611561220614
83.5352312267498
83.6011697880896
83.6080262616283
83.6514649920796
83.6839243569139
83.6779204234598
83.6755356898264
83.7095110525996
83.7265251382255
83.7141241261773
83.7574361507964
83.7860048880034
83.753685774064
83.7855531698826
83.876571342994
83.9498858687858
83.9980006115181
84.0172731495177
84.0203534069981
84.0591521189626
84.0815550257939
84.1020847138508
84.2306398887233
84.3927589553458
84.5267474730939
84.6428629330433
84.6919350717231
84.7834173828608
84.9380191936871
85.0784377022779
85.227901274457
85.3199407906832
85.3377114791092
85.3492382941851
85.3769038918039
85.4483825560859
85.5273329267938
85.5774939690188
85.6021240540691
85.6668801849066
85.7404942289856
85.7918109503317
85.8446607831453
85.9054690209313
85.9624088785359
85.9966527871432
86.0283953694164
86.0910509814244
86.1650275906599
86.2235498055435
86.2502876822315
86.2498251709346
86.2834166657535
86.374544249524
86.432947131443
86.4611886700876
86.4930470606445
86.505068136692
86.5283575921566
86.5612870760828
86.6120607490909
86.6701435835091
86.6851729030259
86.6928777505233
86.7179025871574
86.7612155656338
86.8192842002942
86.8619173768097
86.8572400079152
86.8732837296825
86.8978625277781
86.9014731692471
86.9303806288206
86.9788159949866
87.0286894788294
87.0993151272256
87.1420103617506
87.1429793103502
87.1300262132494
87.1288357240659
87.1369341610807
87.1225621023804
87.1313722446641
87.1662441965738
87.1923109235074
87.2153078308703
87.2210040843679
87.2780045690047
87.3295036490211
87.3554326570571
87.4266631048664
87.4775985406682
87.4565099649421
87.4385156913484
87.4522237322276
87.4884174484513
87.5588930948887
87.5962473943405
87.574035976934
87.5965194029305
87.626643369163
87.6359027612956
87.6684472252395
87.701930561122
87.7194007129186
87.7136549675524
87.7004686824971
87.760548664109
87.8348022948572
87.8308561123472
87.8153897894923
87.8662129324151
87.8979211601087
87.9152098102204
87.940251339338
87.9608755507514
87.9898185522866
87.9941798837899
87.9931598269443
88.0097905298589
88.015702033741
88.0340051807702
88.0510293949626
88.0177976508451
88.0096528527812
88.0434456079194
88.0503416206014
88.0815302765692
88.1168065374286
88.1231484609607
88.1887952182845
88.2736573548735
88.2618522404988
88.2370841309572
88.2542026140459
88.3075480544631
88.3793138923037
88.4208918420741
88.4428888385226
88.4893390674441
88.5208545951559
88.5105328634932
88.5277555412982
88.6060192787728
88.6388590682209
88.6405905347709
88.6732135973253
88.7036810526642
88.7251725612177
88.7843958068183
88.8067062172294
88.8187160854375
88.8787491486099
88.927880024478
88.9361550636805
88.968449430074
89.0007373507911
89.0043353864037
89.041055331457
89.067990146032
89.0682092739729
89.1739075006639
89.2289192331235
89.1440172723217
89.1516048041542
89.207114301951
89.2119106505375
89.2332184120834
89.2666596456131
89.3450115390459
89.4160986041119
89.443209492866
89.4251344188441
89.4228843853426
89.4114687623147
89.3994824226721
89.4377031365708
89.4639483379924
89.5168541008116
89.5664837804426
89.550046818389
89.5781005585701
89.6318131328537
89.5910820185919
89.5325265104981
89.6336414690988
89.7121332222595
89.6815383054226
89.7130923812898
89.772280456826
89.7521695882162
89.7014383161416
89.6823480225025
89.7467956189715
89.8016822169734
89.7877832801151
89.7636404967955
89.7542957930733
89.7164566967836
89.7320305357183
89.7864379968946
89.7835524472876
89.81108462739
89.8761367559079
89.8848397356778
89.8988044388531
89.9447884198098
89.9376150838528
89.8889838990746
89.8850611503416
89.9560103855509
89.9768901102948
89.9797004850347
90.0251176387612
89.9634430603456
89.9295806293583
89.994983149073
90.0236109315691
90.0217664238022
90.0249793061643
90.0472530126835
90.114081399327
90.1604555830621
90.2039433052928
90.1910396986697
90.1129705569213
90.0698103263686
90.0840326110403
90.1508476002923
90.1603279617111
90.1108971678611
90.1444182654471
90.2136522470404
90.2581541003888
90.2746190203501
90.2309672225239
90.1988450074147
90.2830121531959
90.3154455835962
90.2649753470272
90.2346266126324
90.2275351098092
90.2480721778865
90.278474420822
90.3483727375198
90.4260598864624
90.4129680747248
90.3736090838839
90.3618922965169
90.4156491827952
90.4253356276007
90.3614380822329
90.3651338410754
90.3841237549375
90.3847529361263
90.4500543169207
90.4984051966642
90.453725975588
90.3783927500214
90.4258860247943
90.5074985271881
90.5042664061817
90.5085701195346
90.4857332083554
90.4543056770869
90.4729789126133
90.4938592006849
90.4891736901295
90.5043593013567
90.568441948395
90.5884817221069
90.5362357796529
90.4544326942271
90.3738165893505
90.2618759958234
90.200331157918
90.2646136242265
90.3517657260473
90.429224783839
90.5009005030555
90.5568787476848
90.5659137985761
90.6264431347088
90.7141167978549
90.7568303019892
90.7999620815101
90.8749867237624
91.0207315467203
91.0453616005849
90.796149497828
90.4844699017784
90.3020086364029
90.286032714956
90.3633433715115
90.4696715850447
90.5970038542743
90.6865268974042
90.7032358447836
90.6941575365944
90.6879954810047
90.6503993222013
90.5801372743765
90.4289657077448
90.2848391726335
90.325699183386
90.4973609917352
90.6095535058725
90.6061897464781
90.6056432766503
90.6663588130394
90.6928666855476
90.7402331395441
90.8346936700633
90.7651759726244
90.6979769048784
90.7646839485377
90.8052777960568
90.8096405219717
90.8097537498446
90.8772597812063
90.9404025259286
90.9814955869526
91.0140096189946
90.9275123894787
90.8458125782762
90.9109300881278
91.1517397153778
91.3684500797117
91.4374310815795
91.3998103971945
91.3860205594299
91.5045474275916
91.6910666638338
91.7818796234053
91.7444378509902
91.6982091163484
91.7204302389132
91.804964134814
91.8860274537601
91.9592887924802
92.2292852622622
92.3421342118867
92.1534079463336
92.1151328058557
92.186826760842
92.2469951570238
92.2607899397361
92.3352730992599
92.4450214916216
92.3157347717766
92.0985773574975
92.2751203989775
92.6094926142731
92.6273637874746
92.5942742463427
92.5725597284393
92.631033015168
92.8638817195925
92.9438502226351
92.9327271564191
92.9249847325872
92.9251996679596
93.0599133346574
93.2559609515589
93.3223431237948
93.3482858402874
93.4761791809508
93.4968125520855
93.5479126686339
93.5480333753104
93.446185700521
93.5775436093902
93.8855948109234
94.0906259639174
94.1475993834201
94.203307898957
94.2051151175184
93.9431484962811
93.9953313172892
94.3738094744971
94.4396624808319
94.2478231398923
94.0405441361797
94.2958459045201
94.8060078124454
94.8423317581067
94.7328931320205
94.5496649393173
94.4830485429872
95.0738534177748
95.7992970085911
96.1483177921589
96.1123570937609
96.0238190798028
95.5353029782109
94.7514548907367
94.7332887439663
94.8390320541264
94.5516108623474
94.2820120816708
94.1508837362957
94.1726681686188
94.1613131438317
93.782296987805
93.4745988687238
93.5865371858807
93.3271890064543
92.9459756599205
93.0689281549627
93.037155270338
92.8492226626623
92.8429735038202
92.8029102476846
92.7699845163967
92.8243057148425
92.8180265279242
92.8665829214354
92.9096739308301
92.7970442832207
92.6892889961607
92.7675895945772
92.9935189784684
92.9873195306916
92.8393841357382
92.8882565631554
92.9674285759693
93.0683628935325
93.2011744303973
93.1737066959188
93.1609363867823
93.1960802800301
93.0233845584573
92.9025860098533
92.9591669736456
93.1052217636901
93.0904880816299
92.9827917370658
93.1251930498136
93.4132636920887
93.5936470307929
93.6905507413584
93.6960272186388
93.7586136310743
93.8830687633469
93.9603973190277
93.9912603798588
94.0913319464634
94.1810474105732
94.1799856245051
94.1685181444093
94.3412242616568
94.5129084330627
94.6656053889213
94.9870073450394
95.3015491919359
95.3815420884413
95.3364620765633
95.410220044479
95.8347539643234
96.0675779496017
95.8848270091321
95.9525078497887
96.2961501074679
96.4317306393824
96.4570581000633
96.2242587173356
95.6715202957037
95.2908463483269
95.2802725469751
95.2900417404653
95.6720237585408
95.8753523524841
95.6625056226113
95.5894847514644
95.8108366435669
95.5576111268483
95.1256683951748
95.0446815839912
95.1769760063722
95.0867441289868
94.8992589550344
94.8517485060877
94.9112220940769
94.9226253523813
95.1225944358172
95.1999558512182
95.1409803981211
95.0165847590869
95.3031286079219
95.960498605594
96.3305376399863
96.1206200875067
95.7739789155349
95.6623060853622
95.349987638147
95.039985452649
95.3358287619685
95.5049733106861
95.4286534836596
95.4702534940418
95.1668367578573
94.7687306043705
94.6658407518843
94.6152627295627
94.6166125839034
94.5842826980288
94.5079583847479
94.2927063897403
94.1900365741244
94.2167576755763
94.179042692558
94.0855146325806
94.0288982489902
93.9937306328873
93.9921322273958
93.8966195164452
93.8557070103728
93.8438703028023
93.7555184353447
93.6866572339668
93.7913094020725
93.8582657765185
93.7783515417352
93.6578309109015
93.667651101254
93.6149312604835
93.5430938250271
93.5583478698076
93.5441619312561
93.472272048635
93.4987032119566
93.523993201276
93.4798402306594
93.3875847534959
93.3881320563243
93.4407394728933
93.3917769492806
93.3820386245303
93.4351480509101
93.465939458535
93.4671688204266
93.4299859213992
93.4548369989928
93.4667499736521
93.431876674777
93.3531790196463
93.2540364128252
93.2997322009843
93.4639683831782
93.4431983104822
93.389840613321
93.3832222870281
93.3881544474536
93.3915232345323
93.3651010632017
93.3508852986833
93.3783306824626
93.3700807648203
93.3196754135441
93.2345023669638
93.2722372517977
93.5002040742079
93.5432030226997
93.4332050585033
93.3974596558979
93.4379304587956
93.3873299232699
93.2348335499716
93.1846744237581
93.2913809959121
93.3990875380346
93.460932723345
93.4997051707415
93.4935917783598
93.4863691285519
93.4334575796246
93.4011758824266
93.3518319722639
93.3202992246103
93.3386930277695
93.352207717218
93.3490193036903
93.3162611738905
93.2889538381351
93.3343414622015
93.3520789821663
93.306112709549
93.2240100646659
93.296422408569
93.4940852093064
93.5041644476411
93.3975341868647
93.3445416037702
93.3122917597907
93.3112199936978
93.2958990961446
93.2260393554345
93.1128599091288
93.0334122419786
93.0803247671174
93.2823455723903
93.311516902725
93.2794167860019
93.075175909067
92.8822804135544
92.9105852377819
92.9562380877502
92.8632119332483
92.7335806358319
92.5070607527252
92.3334066459799
92.3505660261298
92.4213315659118
92.3690908213744
92.2088953950567
92.0188879959917
91.8949302820605
91.8297614721686
91.6247764215048
91.406303608655
91.6702670855884
91.7864992781943
91.6840694674856
91.4754142175793
91.2461459469708
91.0260160024872
90.741328552791
90.3700184449806
90.236028373955
90.4227868365439
90.4481667488421
90.2022317889611
89.7804687175892
89.3107016856051
88.8542758486428
88.4561169670783
88.0562675662863
87.5851102318086
87.4668390540456
87.3339843189583
87.0871472505915
86.7219155065757
86.0406396864296
85.3473763854397
84.6888161603023
84.080622320258
83.7732008151099
83.8646149548266
83.4930141483143
82.8532030130763
82.1629079374196
81.6024488646035
81.2586160558441
80.8014395931818
80.4543308200667
80.1857582072943
79.7751226515642
79.2638047855609
78.9059594620179
78.5552154974802
78.008359565975
77.317139212052
76.6061551365999
76.7613471771579
77.2783083414886
76.8263823337577
76.3770479512354
76.3494758370731
76.2132746412586
75.7992931469429
75.2862556883693
74.772098242533
74.6627097926846
75.1488151950106
75.1764194203779
74.7685518194145
74.3376968735796
74.1089343804893
73.980180176764
73.9499856017265
73.9477220441454
73.6256269282009
73.3105421050683
73.4532091242945
73.5138217204183
73.1834649575635
72.8314504203789
72.5854304853906
72.425347519723
72.1859687325091
71.9489120174692
71.7242822542077
71.5234678185391
71.276268205093
71.0560755691608
70.8676004810069
70.665667687744
70.4395311181747
70.2461809818437
70.0144375180265
69.7468044375432
69.4010377967169
69.0305904479467
68.5539295299399
68.3016255895027
68.5328244498225
68.2832048286891
67.6989013432114
67.5381653156645
67.5228109582084
67.2054699787149
66.8190197299334
66.110211342881
65.5009237780027
66.984726814918
67.8440983146183
67.8869534548749
67.8996020729908
67.8934317676056
68.1739069956114
68.2549812908949
68.2562749401917
68.4738703766811
68.8590764520139
70.4862431584993
71.7585464945259
71.7016504016192
71.7308151702749
72.481130736254
72.8325564880674
72.8681477322816
73.1081333603281
73.5105470073772
73.7188610583334
74.5060439947383
75.2082088511382
75.4622015153818
75.9249877643779
76.0414965672351
76.0215961418865
75.8283877165616
75.8288445505169
77.5450104679233
78.6364263179356
78.5150662627344
78.2199678469715
78.1707139104946
78.6558821116163
79.2408337225573
79.2453875862896
79.0678190617457
79.4523081435614
80.015419208732
80.3468987808344
80.3513657745057
80.2660671429748
80.2260629274337
80.0548879679138
79.8733704572196
79.8016131539253
80.0136106100758
80.233549985036
79.8440674041907
79.2960526739085
78.9845261994608
78.8679153102326
78.4105681884197
77.7346034727812
77.5590502284008
78.2414708536659
78.2470048661973
77.858411438802
77.5157851287874
77.4000821732334
77.5517776644076
77.5628129156305
77.4372003634121
77.3146082001047
77.0802739125598
77.0608242664252
77.531645630534
77.5460782123082
77.2580707888836
77.0595491279063
76.9208873180946
76.5840081615541
76.151564290158
75.70753911758
75.2055123495594
75.0242216862288
74.8186288695159
74.2522933112775
73.5272734857303
72.7967762426696
72.1607230721469
71.5208033774587
70.9728839673071
70.5919039160783
70.1831132310461
69.8026793493831
69.7070069567531
69.6516958702567
69.8355868408138
69.9634761182163
69.8272948546107
69.7053533414711
69.9322682857974
70.1887439959349
70.2354625767395
70.2732567987863
70.3197494099528
70.3986905275592
70.5161487209505
70.8473396301544
71.1511278679908
71.2372352095032
71.378821739414
71.523030790276
71.5885508591902
71.8627864509699
72.2927345158872
72.5074064850656
72.591888477904
72.7334177973228
72.9215034717112
73.0925203429561
73.2739316602017
73.4613205468305
73.628828353542
73.7602722159555
73.835553079156
73.9890067162803
74.3300625777094
74.6100418870196
74.7640322987396
74.8488498693643
74.9263195481606
75.0037805208637
75.0716408065069
75.102313789348
75.1113682626217
75.0861667615688
75.0622854565185
75.0907979667836
75.0848200089742
75.0450161465404
75.0499661447888
75.0781814960171
75.1149878508479
75.1650276610789
75.2424360336647
75.3368664423671
75.4541432068196
75.5925109817981
75.7482259878195
75.9303883816059
76.1265611088661
76.2978043331294
76.4435947119576
76.6063286609954
76.7765348292598
76.9118399440806
77.0213371978195
77.1193125537785
77.2164231367633
77.3032757321246
77.3781064267993
77.4388531524043
77.5012601401669
77.5601528348116
77.6043351800866
77.6400894661726
77.6761168062021
77.7067738231518
77.7361035333792
77.7725250075481
77.8166833836356
77.8760087608545
77.9477519491848
77.9749356398275
77.992464085818
78.0186889952788
78.0522472926372
78.1110650707576
78.1392142713258
78.1447424520509
78.184806388235
78.220553006954
78.2514922519025
78.2939182273718
78.3525507167524
78.3886979200785
78.4494952603406
78.5513452520574
78.6472636850576
78.7290062463029
78.8487531270427
79.0114661451555
79.1657993882752
79.2948775406383
79.4366923386245
79.5917548851122
79.7320570137974
79.8765894776969
80.0145715101518
80.1621214173828
80.3248069317992
80.4911163561965
80.63295566705
80.7457088769549
80.8659959545771
80.9925793757361
81.0934128178321
81.1630886944851
81.2359224347408
81.2822546086095
81.2885771767456
81.2646940075282
81.2237941583747
81.1554238241548
81.0477437022976
80.9295744670657
80.8049390979926
80.6970319011864
80.577886114052
80.4173370998586
80.275931237857
80.1386132951018
79.9500801392972
79.7318054279607
79.5192776179499
79.3230364782256
79.130132724205
78.9251131095054
78.7286390889716
78.5104443456887
78.2689894614722
78.0289424210766
77.79647787252
77.5511546684883
77.2932271196382
77.0166891909462
76.7255913003508
76.4334028463355
76.1923713146831
75.9624764196609
75.7238123099337
75.5161268011425
75.3372656707421
75.1571964290139
74.9990645905396
74.8711965598369
74.7452396877202
74.619438704312
74.4807783975957
74.2863833098321
74.051075599267
73.7770732008675
73.4794487265935
73.1720097039459
72.8814517456387
72.5859214748271
72.2699237414545
71.9454329399823
71.6385158896817
71.3375484041625
71.0644210650841
70.7701623416218
70.4751753915408
70.1670677495641
69.8493241689358
69.5718244837254
69.3068321127752
69.0164629402128
68.7012169256606
68.3882540088857
68.1195175276225
67.858182530574
67.6023559412811
67.3602200639719
67.1104722795953
66.864625979217
66.670091459688
66.5217835280141
66.4176966702476
66.3163890723094
66.2460613844269
66.1862116549705
66.1292249256776
66.0754401104472
66.0197538288667
65.9521250763473
65.9122794932125
65.8938343477156
65.882399985213
65.8913339179544
65.9390039233352
65.9909017199826
66.0634493758991
66.169541729213
66.3212911721754
66.5011021994812
66.7361617343604
67.0055027535359
67.2994710269263
67.6199943386491
67.9662746891058
68.3261846480021
68.698570985405
69.046180352428
69.3702114380033
69.6797140227469
69.9506544071212
70.1773116975657
70.389880668595
70.5635893600265
70.6930236851723
70.7630128085415
70.8249139335692
70.8627460735983
70.8600011177288
70.8503194520652
70.8360816746865
70.8467035916628
70.9313873099381
71.0724636057181
71.2651607589904
71.4835148612399
71.7658125750539
72.0805007324026
72.4182180512137
72.8255328867916
73.2393887535535
73.5406585328311
73.8315023247579
74.1684678799687
74.4718372325724
74.7584825111121
75.0814433263607
75.3855468553626
75.6745972121518
75.9490128824013
76.1643813354857
76.3444816974535
76.5522838955049
76.7460856557552
76.9419537731665
77.1414909029209
77.2947361984633
77.3900964037949
77.4848775487115
77.5969015044947
77.7006462161927
77.7589157649732
77.8090397945724
77.8629729337142
77.9419390962967
78.0017797035919
78.0854609219611
78.1786981035353
78.247774401931
78.3580153769201
78.4921486276396
78.6149383776177
78.7464541498289
78.8686712379247
78.9183256355395
78.9551156170394
79.0370422580035
79.0957633310984
79.123496709762
79.1538733497509
79.1429168500756
79.139881370791
79.1876838248284
79.2272473737602
79.2512705927286
79.2256194858907
79.1990498455845
79.1627089683531
79.1275624265704
79.1391568750792
79.1731960096706
79.1679854539237
79.1298443765309
79.1144509846387
79.1163496314037
79.0835089508852
79.0174980576822
78.973970674342
78.9204031841448
78.8271976406813
78.7263470044951
78.5625278303545
78.4165126188384
78.2770322001096
78.0792690002534
77.8348068223469
77.5762018085771
77.3630706066021
77.2085341715569
77.0744368720747
77.0162088491448
77.0128541880891
77.0499551263879
77.1426094360715
77.2258898276485
77.20354623344
77.1616978602283
77.1304375399202
77.0915760069605
77.0280422694728
76.9467136536781
76.7921253604065
76.6377253367003
76.5470881650084
76.4637154657611
76.3807093152356
76.3526980365343
76.3571224246732
76.3473748445214
76.2979160112441
76.2714883590638
76.2405227653112
76.1904968516361
76.1235739457586
76.0478168355021
75.9553338249074
75.8474876146523
75.7513650256416
75.6810746007651
75.6011056461993
75.5425231056887
75.4812890617947
75.4414217433167
75.3500083533781
75.266250804313
75.1808441946779
75.0872119567734
74.9937047776489
74.9384743050788
74.8525912013456
74.7631865697352
74.6432975686015
74.5631218807097
74.477418058382
74.443298381011
74.3760312513712
74.2628897347122
74.1609145968306
74.0990062840265
73.9965548436336
73.9247434223819
73.860618048798
73.7832667942996
73.6965523584431
73.6257879624661
73.4982384359006
73.3675677275606
73.277162707886
73.1754346810455
73.0193984001903
72.9024184008698
72.7525651599946
72.6181917094549
72.554943389476
72.4547814285064
72.2530968629938
72.0907468384152
71.9272455279808
71.739305515178
71.543953497296
71.3152949474171
71.0497602482953
70.8984058056984
70.8077389266292
70.7489457471859
70.6971551864741
70.603197893348
70.5055911678432
70.3923844078615
70.2865059258391
70.2024098495441
70.0851495170637
69.9429920555547
69.7586721867231
69.6373200312907
69.5240705045906
69.4484510256685
69.314506564734
69.14533271014
68.9064969737565
69.1988887711431
69.193117219616
68.9197311412606
68.8220916170839
68.7037018683162
68.6015691142604
68.5686166213008
68.4484369592882
68.312671412807
68.2689309990587
