1798
3999.43349933624
650.420452594757
1
128
4
99.1236958574888
98.9788149420435
98.9217432596576
98.8715810888258
98.9343518791771
98.9427512163792
98.9812708866973
98.9655518887897
98.925435191764
98.9424251625884
99.0357417261419
98.9874053678748
98.9608552641758
98.9629185374937
98.9090018389279
98.8560231689926
98.920883359765
98.8916662498938
98.9627816292372
99.0261819334115
98.9898020129516
98.9235469987738
98.9520942885631
98.9946063437352
98.9361530671521
98.9130825661771
99.0168618740385
98.9641158495801
98.8327008857722
98.7701435526442
98.8633854412461
98.9138915563834
98.9519485133343
99.0447075532847
99.0256516975344
98.8392864165608
98.7871497277312
98.8503336092403
98.9207073795687
98.8713740069057
98.8871233149478
98.9301502216222
98.9715126856132
98.9909243782657
98.9876731956614
98.7996989618361
98.8119570019331
98.9284757197364
99.0023097699407
99.0716959254509
99.1018813228844
99.0262940797615
98.9103182347135
98.7030408649552
98.6695576960075
98.7291700541988
98.9076065006548
99.0580778231241
99.0321959528608
98.9463327204486
99.0133396406667
98.9680620327078
98.8152156049864
98.7751215737434
98.8094154742688
98.8015393211232
98.9128461048223
98.9430923219912
98.9126142690593
98.8554477269291
98.8749843022632
98.7908346239217
98.7955428534549
98.7466966284515
98.874271947982
99.0336124869056
99.3613917242093
99.3547654451239
99.0000116118955
98.5002165950817
98.4446442212547
98.7094530632876
99.0377930510823
99.117169877123
98.9863905444237
98.9601448804598
98.9758643597049
98.8379844780826
98.8039671449244
98.7737191205613
98.8027484195876
98.8270627613022
98.9397340803038
99.0920282755455
99.2183473707743
99.1607569244475
98.8495130817698
98.5764777325089
98.7076344045471
98.7312040476658
98.7519484823173
98.8780192460195
99.0916932223953
99.0081315903583
98.831304010949
98.9795621462933
99.1211950452099
98.7367194531525
98.6363443371786
98.7040261909561
98.7235033850919
98.8679210350892
98.9666233787321
98.8999112707829
98.9345919876357
99.004523692146
99.0772787318409
99.0930245972476
98.8846713805407
98.6562131067021
98.8234422770497
99.0156329627137
99.1610029619165
99.1881149487511
98.9879085274504
98.8391976745833
98.9133195517192
99.0718389089773
99.1486786466159
98.8595409367664
98.8619058048315
99.0478476412936
99.169297399045
99.0668382011355
98.8803788644938
98.8942071627619
99.0073445478791
98.7237611027213
98.4534638859892
98.8424482283931
99.1862941173305
99.1007082983124
98.8824561792498
98.7562889648911
98.663107748834
98.7665281731565
99.1294637112773
99.0276314783114
98.8304410115367
98.8270823696506
98.8760799008406
98.9358428778284
99.0132736051792
99.1383363762899
99.0911446858296
98.6507567951996
98.5704560375429
98.8137782192494
99.1100730173191
99.0116503156867
98.8059117944931
98.7606355647826
98.8749841768181
98.9110496691855
99.1058929360282
99.2010233005827
99.0325097438898
98.7274355677232
98.53887189823
98.6822215992081
98.8995447093538
98.9943407354957
99.1412839686527
99.0770451916891
98.7688173720657
98.6179795278444
98.6969805069394
98.3709383853283
98.2298049277441
98.3883389641602
98.5865044824376
98.5528091098842
98.4924175956866
98.4846492888869
98.5820401960796
98.5281403848377
98.5234819872467
98.369983943341
97.9093590476733
97.6276958240341
97.6542007933133
97.855357401025
97.90328908735
97.7751716618181
97.6570145526589
97.489527836549
97.5876015359097
97.6788419482321
97.6211911589742
97.1513578601512
96.9429472008144
97.1252544284064
97.2010370811517
97.1215298276802
97.0214474568063
96.8037923539531
96.7102291752918
96.6785425375409
96.563151288392
96.4447063837642
96.3275284134365
96.1858455746996
96.2445914772824
96.2242892730393
96.0919500783784
95.9200275308661
95.8389665237826
95.6982896043592
95.5709698187879
95.5429355177011
95.448575478264
95.2061509857488
95.182179997111
95.1743799365723
95.0991866137067
94.9927192189432
94.9420990708474
94.7711810632855
94.6453128850515
94.6081893144455
94.5740248325326
94.3671031235008
94.1767274145434
93.9680791502889
93.9586764929458
93.9763900355846
93.9893765163819
93.8770529057566
93.7865632880064
93.6859687515459
93.6346998444733
93.4243697614894
93.2500566810288
93.1679202456338
93.1265427513975
92.9515463631537
92.8484221872809
92.7446166530189
92.6440493177252
92.5134890811251
92.4464943578147
92.3591281428958
92.29245683051
92.1736601130544
92.1501484457125
92.0763363507918
91.9472929560135
91.7981622003289
91.6366289234065
91.488474828421
91.4462074145108
91.3696321534019
91.2600716597185
91.0868765320771
91.1328613547436
91.1192463505675
90.966206765435
90.7670307942889
90.701039765104
90.5806202016731
90.5156104735942
90.4636295586568
90.3397781111206
90.1732619611074
90.161403946639
90.0438360224484
89.9003669495779
89.832637817566
89.8435883501317
89.6157872926417
89.4370787105489
89.4531990862555
89.496673743926
89.3413105854571
89.2070786173619
89.0746343784782
88.9705619447585
88.9025427253092
88.929932464441
88.855427320336
88.6480284253185
88.5413145428277
88.6825474002623
88.5798383725847
88.5178601301979
88.4402561341885
88.2491756097323
88.0810371431938
88.0176875938241
87.9728736615842
88.0143572770004
87.9509263446689
87.8134013190386
87.7187324207968
87.5876129436709
87.4119939366413
87.4408476995714
87.4831985370075
87.4267964281026
87.180419523908
87.1498516756617
87.2640918146677
87.246670888104
87.0481361636044
87.0427039536647
87.083025891266
86.9920306891762
86.7141107346679
86.6142232169318
86.4889949813265
86.3280483582383
86.2831292046489
86.412053397772
86.4728477174328
86.5468763396187
86.3228298290411
85.9773735834744
85.6330534923067
85.8495694660796
86.4085664098309
86.6078276633494
86.6326577857192
86.3816120585569
86.0476109184028
85.7874438345651
85.1885828611227
85.470161191879
85.7663996457334
85.4098202641283
85.6466057010129
85.9438099121504
85.5750182175452
85.158542427689
85.3198799748971
85.777560124181
85.3632750016283
84.6982778829189
84.7080634127607
85.1614067226731
85.5810994454218
85.4435948631538
84.9032244063355
84.9335322288749
85.3054927401585
85.3022620742204
85.457131208146
85.8820656023014
85.663895999088
85.2961125216371
85.2645089983795
84.8112143727
84.4917723968599
84.6318828101184
84.6426224535372
84.6403386911744
84.7081066749616
84.6945019587499
84.568874017605
84.66907188066
84.8602927549982
84.8808724469761
84.8441835360377
84.8381414842077
84.8408796012128
84.7979246510336
84.7182452032589
84.9144879365364
84.7525836659706
84.376612679943
84.2771581484803
84.4606113151129
84.6810440406301
84.7911637506075
84.603493809374
84.3599585280462
84.3817751665187
84.5407998262503
84.5465304906372
84.5925594487345
84.5593688525682
84.5571732722167
84.5052106448524
84.4561617561879
84.4200195058663
84.3828762561967
84.3269005792724
84.3385398424627
84.3223897898992
84.3901845990471
84.4677407180709
84.5080381732114
84.5172875214267
84.5996674121063
84.58732168426
84.5120214707665
84.4672871666005
84.5197975522485
84.4936487685534
84.4981024789432
84.6029422454888
84.7473794508463
84.6804582652978
84.5837347496831
84.577297778146
84.6375521763133
84.571756693303
84.5680971672389
84.7108498486537
84.8220308812002
84.7526591960518
84.7290428884335
84.8181301159993
84.8457103211512
84.6826898555538
84.6716294331714
84.7700949636193
84.915313118235
84.9355384090108
84.8888843902988
84.8846162609279
84.9508633685843
84.9235934216607
84.9749575631317
85.0842388279628
85.1766238626675
85.157495652688
85.1714483710653
85.1437088550397
85.2188671432998
85.3166159391359
85.342575757966
85.3222816013445
85.3742114554587
85.3648604893053
85.4351989981371
85.518017644104
85.5739868323735
85.6107570818206
85.6878144935618
85.7159438194282
85.8021539473239
85.8725633144646
85.8979526988766
85.8507177334553
85.9485202167602
86.0689654746985
86.1070820654188
86.0967228110583
86.1612700201876
86.1488658537232
86.1990898218017
86.3474560915966
86.5120543392834
86.4879077566084
86.4638858683556
86.4956281478951
86.5556499065588
86.5357992805425
86.6030861357756
86.6625274744668
86.7036565083358
86.8122410491265
86.9626426887342
86.9720423926493
86.9981047793717
86.9547742585551
86.9655293308701
87.0103658802412
87.0610120596401
87.0424119742795
87.0225943018698
87.1199317024997
87.307894098451
87.3057250476251
87.2808399534222
87.2275278417885
87.2326860252219
87.3394960132836
87.4853277386463
87.5470388991194
87.6282485661241
87.6410037360899
87.6768731831637
87.7413101340879
87.8425334617702
87.839414585283
87.8528637500505
87.8574934267222
87.8390887133851
87.8297197041022
87.8911417696879
87.9241694598554
87.9715016766281
87.9795267542604
88.0131364224553
88.0302610360949
88.1180213646351
88.2048840671833
88.3156605943395
88.3417059166239
88.3405497845845
88.3910445419274
88.5327245765137
88.6177202377239
88.6868531716054
88.6729172393002
88.6921462221882
88.7137679352656
88.765226570972
88.7674666754401
88.8355584711403
88.9173646649704
89.0369233872481
89.1093978970245
89.1698071929694
89.1759713661247
89.2060306370324
89.2517358587101
89.2856753435938
89.2950027712594
89.3835452559124
89.407101600414
89.3690070489969
89.3262594311195
89.456530722339
89.4662653260369
89.3852517467524
89.4209440212547
89.5323877414168
89.5857355442081
89.6558763572177
89.6723330919587
89.568517425931
89.4684902074243
89.5173974236335
89.4466615654164
89.3530623134885
89.2914223523951
89.2397385292869
89.1723545729423
89.1566600472047
89.0546266324207
88.961611487738
88.8807191701764
88.8243959522628
88.7205813012156
88.6334730002454
88.5343607465201
88.4816074296163
88.4162186859846
88.380446318475
88.3374573009864
88.3371580769027
88.2956065985719
88.2978211358241
88.3188168264979
88.3431127291444
88.2399582198391
88.1158173910571
87.985229564509
87.8957661139458
87.7835950115942
87.6651563001399
87.6296689123715
87.6554391009835
87.5946152830933
87.5849703515927
87.5707828762161
87.6049571448076
87.6797652238456
87.7267491044856
87.7402784305918
87.8989380647584
88.0427645465654
88.1256503554011
88.1458582947574
88.2055337316249
88.3016473118922
88.3955044927809
88.4334109684079
88.5267682111496
88.6428081476365
88.8187087125605
88.9702753291277
89.0544462413845
89.0596187460109
89.0486206742536
89.0284145848028
89.0944069652309
89.199726731791
89.2897145533386
89.2956095551729
89.3126188820032
89.2537108494164
89.2497548949005
89.2975020391273
89.3088566733724
89.2819834087339
89.3510353187178
89.4090135326451
89.4496175851778
89.4647368429571
89.5108082092653
89.5410851334452
89.6058196115382
89.6303163461531
89.6624151094923
89.7182311954674
89.8363712401281
89.9177908387487
90.0147174659467
90.1631418850162
90.3185426595907
90.3795415967618
90.465032909144
90.6240654695427
90.7346341328976
90.7545261843971
90.8485741125619
90.9212579868679
91.0268644916253
91.0916858421449
91.136581926681
91.1640309296548
91.1887431361798
91.2119068598827
91.27182438986
91.3444195593123
91.4508354415622
91.5007003621865
91.4794228574469
91.4603748520338
91.589516833561
91.7145892577953
91.7344282159881
91.7737337219988
91.8204990731449
91.7799414643457
91.8168244651614
91.9190766690077
91.9904335024912
92.0069600815348
92.0338778762338
92.0498937894454
92.0349963515206
91.9981569025716
92.0978042527747
92.1950981713059
92.2455806683309
92.2464026818713
92.3094629354593
92.3462020876509
92.372741748219
92.3818200889923
92.3696268003684
92.3862539925854
92.4305990551856
92.4657852432711
92.4953860774173
92.4805315086267
92.5070726783491
92.5634935355596
92.625736088658
92.6319166591308
92.6134539708567
92.621126892664
92.6715629434519
92.6997898395858
92.7399680600818
92.720951347438
92.6612362815082
92.6743559855757
92.7482121413944
92.7957678668785
92.8266498864099
92.8728797992657
92.939338523966
92.887653916517
92.8567749611209
92.9122229828982
92.9642426894212
92.9413157101083
92.9118434510696
92.935622124368
93.0299084067906
93.0570225401118
93.053176194433
93.0796430313393
93.1304647552008
93.1211329091026
93.1275963034858
93.1294523769706
93.1331460021771
93.1436221404599
93.1480405295792
93.1392178566498
93.1711035735874
93.2148798228875
93.2646535272508
93.2834401260607
93.3115538862727
93.3263905286291
93.3141305894795
93.2815973474238
93.2992585779482
93.3290831360592
93.3691354694077
93.3977023407768
93.4276649863731
93.4509676938996
93.427723018191
93.383307231183
93.4162526284448
93.4034322528824
93.3932928621813
93.4368055872726
93.5201468680212
93.5397519987497
93.4862383224319
93.5297013735335
93.6026532968505
93.6044920865743
93.6719077200139
93.7159288844839
93.6645693743073
93.6507640077161
93.7273213716949
93.7858770850664
93.8121056355479
93.8136243851666
93.8306497665097
93.8940122079548
93.8898799673867
93.8817576561251
93.9396606297135
93.9302678963618
93.9496928723553
93.9621505259664
93.9659195285297
93.998354281707
94.0431026707636
93.9808202192476
93.9353685661413
93.9380932038337
93.9823115561392
93.9938045513901
94.073585506105
94.0739589236971
94.0846045645239
94.1821771498
94.2033181496911
94.1918546710734
94.2000198891352
94.1493443739139
94.2400545209509
94.2965406965851
94.203729043639
94.1707414256287
94.1899112446545
94.1864079933448
94.2446354899007
94.2816124428356
94.23179069946
94.2133118921187
94.2845496780809
94.2885345784063
94.3119122893811
94.328371556811
94.3600537068365
94.4099055823348
94.3850758857893
94.420982963757
94.490636094282
94.3251784030468
94.2583254490281
94.3128693386136
94.3029781276428
94.3036658463556
94.3894521954527
94.4618765615283
94.4834850308187
94.472854957201
94.3570639607085
94.2470043191234
94.2951221237844
94.3894339867956
94.4128284162293
94.3831980929954
94.4377921460731
94.4370458778078
94.3500571243386
94.3902195160528
94.481257518846
94.3722558967113
94.4032454683911
94.5150576192586
94.5867712000595
94.5509582768551
94.4611182917793
94.4409858247879
94.4129000272328
94.389932426122
94.4608164923725
94.4220895075414
94.4326613192384
94.5304396844813
94.583647078281
94.5490171964265
94.4588232766644
94.4814839953179
94.5295812785107
94.5051018374454
94.5515254332359
94.5637762119005
94.5832334843459
94.576045969226
94.5119909432399
94.5310433237811
94.6047413472878
94.5932071200522
94.5546677420596
94.578346674418
94.5904011043676
94.5630373757422
94.6256501734641
94.7239859139062
94.7172015106238
94.6357605729966
94.6563070553895
94.6834160660125
94.74734919239
94.7927186411797
94.7271640197513
94.7221201059754
94.7467163348085
94.6700861444435
94.6634012710091
94.6831283691277
94.6879609721706
94.717093064364
94.817756160009
94.8876594499061
94.8263245003894
94.6944973590875
94.7071903272024
94.8106573967171
94.8209465411257
94.7724996626329
94.8023273134714
94.8079641170542
94.8496721737551
94.8944370660823
94.8512600520856
94.818955326669
94.8142237129411
94.7672013790992
94.764428846859
94.7553772886131
94.7457394307129
94.7312775615641
94.7285082269334
94.7243548881646
94.7096207546356
94.7850655662923
94.9169005336057
94.9911030647625
95.0296257747826
95.0859349533608
95.0440702200864
95.0673122525982
95.1959538481284
95.2694928664312
95.1849685329504
94.9668437778505
94.8623797249033
94.9831755075878
95.0611453767395
95.0630989510161
95.0017874293059
94.9670841364319
94.9557804071054
94.8899670208474
94.9264889454907
95.044912483041
95.0794398709385
95.0433051126561
94.9731397166896
94.9621536682096
95.0090437684726
94.9773827801991
94.9697604551068
94.9320425351174
94.9574961826821
95.0167534384776
95.0586928314991
95.0807554238426
95.1010538139823
95.0892879756903
95.1103167099823
95.2567031705751
95.2828790616076
95.2156156886236
95.1880784720502
95.1631324305336
95.1922294509539
95.196230125976
95.2568254355131
95.3686308626323
95.4479021059107
95.4290737605332
95.4591041017266
95.4644082709699
95.4131827672731
95.4370104791671
95.505099779474
95.5173968375332
95.616811231932
95.7443685063245
95.8099767664078
95.8756553484656
96.0141620074198
95.9277783329854
95.8651244552667
95.8959750510281
95.9394887082781
96.156082693611
96.3728110925258
96.3792744159393
96.3199586691278
96.277673393733
96.4026935570704
96.5347974371135
96.5547652552127
96.4961937184694
96.3397715422233
96.4200694439252
96.6365196722178
96.6251172155798
96.5070893509713
96.6023450329432
96.7307833658692
96.8398646780309
96.8503932555266
96.8293277290974
97.0506859690865
97.2202621742643
97.0935405972642
97.0568539544606
96.9143026526737
96.8472346932626
97.006857205871
97.0656373940926
97.0780248523573
97.2438944839582
97.3664892988533
97.7671540736097
97.7791283981709
97.327674167738
97.192830523207
97.5582464305277
97.7286839446141
97.9476934597442
97.8293584164735
97.6083711645609
97.7637352522227
97.7569800328528
97.8157329561673
97.7510797129295
97.9961078456545
98.7654265898176
99.0134004196019
98.9397655264212
98.5753264497175
98.7237390225401
98.7911363462699
98.8242691623078
98.7658213068654
98.7236067276881
98.6678036757835
98.6737461211233
99.0173911330536
99.1336356271282
98.6607910754048
98.3293345027442
98.2391776161618
98.010325487231
97.7286658835625
97.4601734895719
97.436510199763
97.4274812624836
97.221669900034
97.2686379753804
97.2555603315519
97.0928475868452
97.0377246775369
96.8476539824142
96.8045692154975
96.8410858032166
96.7109545419007
96.6051227485681
96.5901213338801
96.6751571578336
96.7728203536411
96.8394465902113
96.7688160669046
96.643589052049
96.7535107457344
96.8526983234766
96.7182793431408
96.649981068092
96.7864494660775
96.9548563343596
97.0207977237224
96.98399495584
96.8019730056286
96.7462664502559
96.8690820528057
97.0211214218273
97.05183495103
96.9539678499626
96.8860987535593
96.9252687573816
96.988957972397
96.9267764113438
97.2241161584284
97.593068437782
97.5368215589082
97.3797351539985
97.4311247959234
97.4271295164455
97.4388504039615
97.5171585646706
97.4564099860167
97.6219180199802
97.9148508982746
98.0441403085691
98.0681140247528
98.322433476887
98.7520756470598
98.9155078543109
98.851747057085
99.0018238914962
99.1456175088408
99.2531168532745
99.5403954869959
99.7000173300477
99.7227680341497
99.6066112253323
99.5967206827528
99.5874245302974
99.1253716720442
98.9116437766562
99.0180472663312
99.3117729947945
99.3285177866041
99.3916996404398
99.4531407921134
99.0428351713015
99.0383425137656
99.2999514417527
98.9462290679227
98.7735569011041
98.8628014176414
98.6639226214453
98.7104097262602
98.7076426465891
98.4106777736969
98.283948701305
98.3135035826345
98.4457988886639
98.8205437141695
99.0507576374259
98.9662150340973
98.9469256578733
99.1273142468677
99.1757782154647
99.4344496800905
99.4507618549294
99.1462235642654
99.1041069562887
98.7203869515882
98.5657020349578
98.8175776412106
98.6327701205724
98.4409109691417
98.2050575032569
98.1437223169479
98.0076042789658
97.9351937307833
98.022635404825
98.042282275448
97.9697846090616
97.7654731310302
97.5046573489074
97.5372748534328
97.6500002758359
97.6697437795051
97.4701308910525
97.267743521879
97.231407826065
97.1607596505196
97.0960024881246
97.2692400885765
97.235074702408
97.0460362163826
97.017605834223
97.1414705793667
97.156454653045
97.084517664536
97.0120449144267
96.9119247229839
96.7661052720164
96.7895416055052
96.9401806906562
96.9703071684721
96.9121712106916
96.8770682094167
96.7286776728945
96.6734107723588
96.7024320622577
96.7698658312666
96.7820907985183
96.7410852517037
96.6954084248176
96.7708494888604
96.7867803712436
96.7806537275203
96.7726194846443
96.7564383842905
96.7301710036811
96.7229759744814
96.7422448078038
96.7886857186467
96.6985850851318
96.6070574176022
96.5679767692271
96.6084430825982
96.6259423136478
96.6426232239293
96.6167101305401
96.6422338541236
96.6022367970558
96.6137421508366
96.6017456155594
96.6904849343664
96.7129975885342
96.7033386806385
96.6266601600885
96.5717767899994
96.609472241051
96.6488990705641
96.6268033801149
96.609867900898
96.5839285112749
96.5089439461433
96.4698990213113
96.5245896937588
96.5263451051863
96.5040928843211
96.5330905183925
96.5412636001417
96.5159237360975
96.536940711242
96.5589002044285
96.5489798472391
96.517004655489
96.5118838275318
96.5210860481907
96.513300146523
96.4660158944302
96.4347248228595
96.4032185379688
96.4720585749858
96.5430634440877
96.4831472813336
96.3666173883748
96.3793320100162
96.4416360250861
96.4171706947961
96.3850904204426
96.3565083551875
96.3512317886554
96.3498795860838
96.4244219531935
96.3489197547794
96.229142281032
96.0484760980606
96.0577638029057
96.0961525018726
96.0593948436101
95.9949806766659
95.9069794686163
95.8208330519945
95.7766902918195
95.7216320264003
95.6866168500475
95.6302913581915
95.3977816675961
95.2659284156579
95.1419944345638
95.1321622883446
95.0942437138659
94.9543186191077
94.9026072654042
94.8135228319816
94.7340927029884
94.448707446197
94.2550456929806
94.2896692525637
94.2263334012634
94.1585460116618
93.9851227699155
93.8908282758567
93.7784282363607
93.5821914302201
93.1234663740849
92.8689066137518
92.6393050870129
92.465457269131
92.2163944960325
91.9206963854071
91.6439266147364
91.3062048097934
91.06135273545
90.6769857820851
90.0122524684551
89.7416063515532
89.1867261965541
88.8027212313022
88.3553675017002
87.9717909748894
87.5022153262733
87.1139232170159
86.5930645334483
86.2457304742805
85.8438554352501
85.2745816436403
84.9201888648048
84.4922094622124
84.0119408828026
83.6331540426635
83.3566314673583
82.9761607137241
82.4999897044959
82.1279927781716
81.8149540369773
81.5406681378128
81.0460681520016
80.3911586847522
80.4914879081947
80.6988669233752
80.2770350345101
79.849425616061
79.7442401621097
79.6123434521168
79.3898996689514
79.141571602298
78.6544025968779
78.4219144178936
78.70712339474
78.7257127020541
78.4264865461616
78.1438830246915
78.0021920184406
77.7460331571267
77.7574399412108
77.8182161850504
77.5556014691582
77.2918878737953
77.4515859205407
77.4127183171787
77.1893933396711
76.8913012591259
76.728875945006
76.6008146387691
76.4460356860708
76.2654833190691
76.1062536114134
75.9568008861066
75.7797291139774
75.5851759850156
75.4230033077789
75.2747605923808
75.1340351484626
74.9630422293592
74.7596677334465
74.5505801164629
74.3204335841183
74.0616994568541
73.5352254542265
73.3691081544074
73.6374411239667
73.3779458772497
72.818108631573
72.7161634839893
72.6320951971584
72.4795363842465
72.2141232280202
71.4743575920172
70.9046287461593
72.2597730463685
72.871397716673
72.8987085128588
72.8111252317065
72.9071681648936
73.2182979120215
73.3351186989905
73.4392507032739
73.5677760871388
73.7535439331681
75.089712189768
76.2761968331144
76.195045544534
76.2670451149302
76.910653474559
77.3525776723737
77.4255358499877
77.7487021199019
78.1158459770779
78.2430202438735
78.8791890100934
79.3373057679822
79.6189592860748
79.9751375843145
80.2649354532802
80.4587235951515
80.3489190902405
80.1174756234212
81.1481488021091
82.2115114085456
82.4294132592034
82.3330984078103
82.3010252762206
82.644405858708
83.1743232597163
83.2749369181983
83.1806009137931
83.3373910945894
83.7403386116014
83.9737865796906
84.0124064056178
84.0661838461557
84.1326630151868
84.1196247584782
84.0340153774439
83.8554063289263
83.8137008562903
83.7966229585642
83.6036268362855
83.1244144155566
82.8685467602827
82.7818147895522
82.521130361741
81.935925249702
81.6726341240949
81.8899536869413
81.9079705409817
81.6907370365314
81.4282660206697
81.3568799502016
81.3871094342086
81.4185285953707
81.4052972878906
81.3670893978074
81.1275783509673
81.0860822303497
81.2968000564273
81.349260755485
81.1452232335713
81.0009110694342
80.8431470703569
80.5832260342148
80.3130027317343
79.941119704675
79.5437345921989
79.2534318998482
78.9900556994663
78.5179621384708
77.9004758751566
77.3606838819914
76.812880291155
76.2462480135934
75.7798945674671
75.4501405545015
75.0588294543308
74.8001080098814
74.6760367575839
74.6196092602014
74.7337135252153
74.8745486690706
74.7477857452678
74.6131799602145
74.7939233338933
74.9974483499605
75.0799806536884
75.0938186335691
75.1689202648315
75.1898131716888
75.1842429075485
75.3843503907973
75.6165264403243
75.6783120936214
75.7484932408149
75.8187600575745
75.8434240822231
76.0176203172319
76.3219217990479
76.5053336283088
76.5508506383123
76.6378620274097
76.782772462547
76.9214347615525
77.0416665923584
77.1907129355739
77.3621781107265
77.496560689655
77.5647595748082
77.6815879878546
77.9428032036462
78.2129842718061
78.3790886356424
78.4915135295559
78.5758740222328
78.6714497422131
78.7606345707296
78.8069258634703
78.8264342996838
78.8131518525317
78.7823710688592
78.7799409345107
78.7726356887349
78.7517568680192
78.7484504435383
78.7602714043841
78.7882843692706
78.8428548899354
78.9194061377057
79.000866064469
79.1085667481305
79.2322238726111
79.3701641607502
79.5541772281804
79.7370244846068
79.8783534408077
80.0215421476317
80.1894752052149
80.3553512730108
80.4894430476788
80.5977140727894
80.7127736614593
80.821737786054
80.9060684151123
80.9635954144268
81.0119982409939
81.0735878173372
81.1586590258378
81.2085634281917
81.2366999305128
81.266216084673
81.2979382499007
81.336489199774
81.3787387919237
81.4359327951452
81.4927190339974
81.5393553766482
81.5948979427019
81.6576128684241
81.6901005497899
81.6948586783763
81.7178102779574
81.7549622021614
81.7979848424469
81.851478934713
81.898421739286
81.942400034783
81.974356736162
82.0097409338308
82.0679537208144
82.1392674791528
82.2368118680389
82.3428730383655
82.4405719671384
82.562208655782
82.7004553742541
82.8089773357083
82.9332866149458
83.0880141174884
83.2333007007519
83.3802334496596
83.5196595329364
83.6574102941534
83.7992540524549
83.9463125442848
84.0919521672584
84.2124386356131
84.3252437705533
84.4468311229679
84.5739036843068
84.6862396008536
84.768092773778
84.8342734021236
84.8631051960544
84.8607624835513
84.8495558386955
84.8240334950765
84.7484022626013
84.6346837250189
84.5367510081941
84.4237995879187
84.2852643006134
84.1584002696902
84.0215198749975
83.8868743262429
83.7638709397977
83.6003615984621
83.4113105074977
83.2428780304589
83.0710402614694
82.8676373268259
82.6528188566673
82.4579563113629
82.2710649713562
82.0845495144017
81.9042910056398
81.7007740944093
81.4526556075248
81.1948966759736
80.9501198885457
80.6910278902427
80.4422810983945
80.2203385656258
79.991756684127
79.7639971340832
79.5720960307959
79.4083005349563
79.2488539354541
79.1132205493463
78.9976189729427
78.8700275609313
78.7292780933652
78.5929209732328
78.4566656197896
78.2799270170973
78.0572557307919
77.8098164496545
77.5355780759237
77.2543693667515
76.9894949815351
76.7356903487437
76.4780444472126
76.2139456170066
75.9399189586087
75.6792791648682
75.4311589769533
75.1531457121733
74.8864765906358
74.6527281762474
74.4088164813015
74.1312756606802
73.8386301542398
73.5764835528829
73.3089265705883
73.0393674205063
72.7861022770946
72.5430229293495
72.3151891780787
72.095271546206
71.8960821467366
71.7067348137688
71.5299873293937
71.4078864538746
71.3217077753088
71.261095035387
71.2240957159696
71.1737670139123
71.1261600291769
71.0909081032381
71.0409974375259
70.9821248574688
70.9293857746004
70.902614330806
70.8986726219226
70.9288804895709
70.986200310276
71.0633598607987
71.1418862917937
71.2322978866987
71.3670676108702
71.5579710932206
71.7839600168689
72.0331835340613
72.2939326822462
72.5503626149264
72.8410233750328
73.1517080641145
73.4523211216495
73.7395396544644
73.9780296230086
74.2009055125492
74.42982739389
74.6117434005597
74.7360290409687
74.8327468496947
74.90648417179
74.9621375305574
74.9731822975019
74.9680447650227
74.9648520036108
74.9497710792345
74.9423316797516
75.0162288155692
75.1430627690563
75.2714106808766
75.465399184007
75.7357492835314
76.0205567115914
76.3222834463229
76.6591963837146
77.0046991956836
77.310580363354
77.6119925231364
77.921074381392
78.1921999131532
78.4489409490885
78.7328607277805
79.0108280222776
79.2683717529145
79.5180767005417
79.7564066675773
79.9591068873895
80.1430084980932
80.3333807356724
80.5191316146912
80.6805278795297
80.8356192441378
80.9698437316237
81.0820448304722
81.1683047217397
81.2255079915468
81.2830034786701
81.3487038188278
81.4289377486497
81.5059286284917
81.5543525756522
81.6011343279659
81.6387952488549
81.7183949709509
81.8468031419214
81.980694868656
82.0958868127899
82.1984885639731
82.2879936720496
82.3423957654785
82.3922032987108
82.4717744450104
82.5196942990583
82.5426611137921
82.5629138849297
82.5979169031851
82.5975092161795
82.6018982848607
82.633803890402
82.674187738383
82.7153426053841
82.6850319932071
82.611718953857
82.5983324717922
82.5867253359535
82.5679195251268
82.5688588489102
82.5508407899269
82.533900922129
82.5217096607708
82.46829323085
82.4180639736829
82.3842216160204
82.3594616163999
82.2917332767368
82.1774100005162
82.0363488639557
81.8797747992383
81.7130942956129
81.5039237107366
81.2717427593801
81.0574688915478
80.8067859821856
80.5723486945367
80.4205019427514
80.3338895891965
80.3181742384985
80.3882314058493
80.500178472446
80.5818971763397
80.6010588930574
80.616801635619
80.6038868517734
80.5505307154479
80.4370072372917
80.3502648223027
80.2829523968003
80.1368669978558
79.9967271945349
79.9566077685846
79.9263184971204
79.8879239689025
79.8604703311983
79.839211803532
79.7977979600823
79.76540581795
79.7358508670015
79.6854372996806
79.6224989740352
79.5514178739609
79.4463360804395
79.3836220007291
79.3160269359495
79.2248354396236
79.1636507685781
79.0976042553204
79.0453818711876
79.0094883107936
78.9347466997045
78.8730726842966
78.7789840194097
78.6638897164564
78.577980027646
78.5323473147319
78.4910423987162
78.3832273862402
78.2333021382859
78.1732959507397
78.1498020230286
78.1078281900967
77.9859377703912
77.9119684081266
77.8793980187396
77.836886540193
77.7659110458728
77.6656446917116
77.5864904085546
77.5139082999039
77.4334826294734
77.3632473269603
77.2548640195363
77.1738714876802
77.0543942290737
76.9664828651859
76.9205379845628
76.7942712539975
76.6367097261863
76.5442626803976
76.4871309835134
76.4372976579218
76.3042786437049
76.1408912954291
75.958250607121
75.807188956089
75.6770888778569
75.5241611060938
75.3284940295421
75.2070132100785
75.1085719323211
75.0134765163989
74.9363144025337
74.930919023933
74.8672443664544
74.7453775499377
74.6296981395949
74.4763618086229
74.2626997189093
74.1926125604311
74.1171772019132
73.9391898211847
73.7468885125077
73.703448771619
73.6426675757076
73.4362007044891
73.2247097882902
73.5388221091744
73.6651446992616
73.3680194566131
73.2177593678815
73.1558223374437
73.1979633042909
73.1905691810956
73.1005728276596
72.9683729312123
72.8857080283317
