1798
3999.43349933624
650.420452594757
1
128
4
99.1061695028024
99.1006253482877
98.9598616637048
99.1390567728367
99.261099299775
99.1826607264987
98.8532591507289
98.8406328182167
98.7899414299252
98.8928975620755
98.9025370061371
99.0832309837819
99.0613536576254
99.0752142591171
98.9554512358469
98.9479897287645
98.9060802465297
99.008460548335
98.9019171436996
98.9369582426877
98.9970167443566
99.1678527413129
98.978489667035
98.9341202759726
98.8816184519441
98.9894878862578
98.9938974811453
98.8838527350714
98.7608191935082
98.9624977636936
98.7882023256119
98.7585311067729
98.8463452983766
99.0232927887784
99.0078014941414
98.886760517927
98.5995391541525
98.7213487550684
98.7986836876738
98.8485987183387
98.793551960141
99.0078241792097
98.9456206384712
98.7665447210146
98.5120247432127
98.684726617911
98.9143072982277
99.1743546330245
99.2833625172982
99.2643682100022
98.8245391841995
98.3059043177539
98.1264487037795
98.4127899002866
98.6486912666733
99.2513973251323
99.2650795465856
98.8294853519963
98.5874530833066
99.0289313969967
98.8554973644684
98.5551864151508
98.9108700082428
98.9917212595364
98.7314352355281
99.0177271354849
98.7970561883973
98.5421746062647
98.7294037895101
98.4631876166569
98.6342663606969
99.2055032368199
98.6475504564702
98.7075399948489
98.951281756246
99.3126826964339
99.2516491705989
98.727176819762
97.4461579459706
97.9683002383331
98.9208233169575
99.3615356560884
99.3521669967318
99.073005091073
98.6294782630874
98.541915037688
98.140745577394
98.3487446816337
98.690132194978
98.884802471563
98.8978994130576
99.04296566189
98.8212661047672
98.8162960896479
98.8694072321346
98.4434909385504
98.4067410282523
98.9622134207829
98.4550781259897
98.7331232784937
99.0914050913095
99.0628913932036
98.781469509297
98.3617096744111
98.6657245743108
98.7641626296081
98.131351281762
98.614811232686
98.709320891744
98.499264511776
98.7764051671322
98.9044545790508
98.8841081380747
98.9036911308098
98.8148982211201
98.74565186292
98.8771017270007
98.9017626154978
98.4836120913856
98.700991704876
98.9270268669571
99.083636035949
99.0238291794719
98.6170906271849
98.5585697278982
98.5417297546057
98.6471628484704
99.1115909225701
98.731499241773
98.599086402181
98.9272724688766
99.2882891192455
98.7491448773472
98.1699968322384
98.3077227481273
98.9033490158825
98.1165063121547
97.7076966867914
98.6463281079262
99.0016122547179
98.8013525023772
98.1279037658588
98.1376175835228
98.3497955726386
98.6968498431637
98.9566630102916
98.5600813302868
98.4155326985799
98.4644380687556
98.6875373750564
98.6963252082231
98.6224779860807
98.7632799751319
98.6799868035984
98.3180933288602
98.4346451135705
98.5899711784997
98.83899208128
98.8463220182389
98.6177689123459
98.5893305063175
98.9765978748625
99.0023373884429
98.9728844878235
98.6859704801859
98.3469085363864
97.9719073148538
98.010935535704
98.5210035523625
98.7081492424007
98.789922978691
98.7751083814176
98.8219389514274
98.2612487466414
97.9617617192367
98.5981595221139
97.9818678242621
97.7212055213714
98.1549727543307
98.4623692883998
98.3907387477983
98.4051573143963
98.5473357606499
98.3170148704471
97.8657317733715
98.1501072950458
97.9600482881458
97.239099281848
97.0587244022173
97.6007692918446
98.0156746560038
98.0505711690432
97.9127051007444
97.5574102986664
97.3389877044011
97.4228078996802
97.4638076671558
97.486376748494
96.7496082477479
96.5230226388249
97.0912719063202
97.3788272273427
97.257707687336
96.7684632724165
96.4056977072204
96.6174320602507
96.7302236106226
96.4435479983204
96.2050018080371
96.1260179788218
96.0550369381226
96.2598875562343
96.3113699347521
96.1533627218177
95.9687323611637
95.9603801296091
95.6430135224273
95.4256534503425
95.5365184578431
95.7103100952339
95.5294816413196
95.3649884400705
95.4021633750264
95.3578186976337
95.2444537160507
95.0888531355562
94.8473670931227
94.6914050090631
94.6475327221474
94.8544510237763
94.7940277362451
94.346247344478
93.9783239499021
94.1358926856418
94.2590241570874
94.1295982117093
93.8807427056653
93.7258816425679
93.8337015428684
93.9198261347883
93.6810771864398
93.6325091201283
93.5476347201537
93.2495481392769
93.0970961525946
93.2057756904804
93.3457334004377
93.3658260190863
93.0534292277777
92.8829936965545
92.8037770764494
92.7257243627703
92.4096251225279
92.2563220084876
92.2122890348246
92.1728714488037
92.1275448609018
91.9656574840089
91.8550270384371
91.941404948053
91.7568203023388
91.8455133314024
91.9122518349976
91.6767542359361
91.3838956757463
91.1539958839614
91.0238274669503
90.9654062552685
91.1367625462573
90.9732960349366
90.6364809316929
90.7008141633614
90.7010438297403
90.5782878935928
90.480094442402
90.5128371503561
90.3523912463968
90.0907531498151
89.953029947115
90.0806863872833
90.0459081328838
89.9221651531212
89.8210163526875
89.8202977069243
89.6547992930401
89.354241209097
89.28058146737
89.2910430224354
89.3051364506986
89.3163451453628
89.4466565998574
89.345301347861
89.1890825192631
88.9977940197937
88.7185020852648
88.6223919225866
88.6283355101571
88.6937373675964
88.6334071690555
88.5025563809489
88.3336064467532
88.2659989382939
88.2773889580942
88.2251690931609
88.1928646022462
88.1393623828923
87.9403247852616
87.8983296462418
87.8744310483077
87.8166429365712
87.79532747886
87.7017513466243
87.6799468120709
87.6683497222317
87.5714218358141
87.4387846098412
87.2998181880244
87.2730142268003
87.3255169437587
87.4002455765523
87.2044890229514
87.0146233979104
86.822860078883
86.7813427374395
86.8681569503225
86.7972304340663
86.7004363441157
86.5579373055194
86.4654817727577
86.5285990381169
86.6279277208787
86.5774986528683
86.5258196314652
86.444845355323
86.5236965847814
86.4657968216574
86.3013809258103
86.242521011693
86.2510357335933
86.2708831324956
86.1992034520662
86.236879392672
86.2502268990046
86.1227252041934
85.9653906937364
85.8853602411898
85.9624521123075
86.0748685330471
86.0559040934402
85.8658083130972
85.7850042889158
85.8064912825571
85.8290600019152
85.8086672245702
85.8173718402725
85.8080104566826
85.7333917832317
85.6677316306365
85.6418104468029
85.6120635449754
85.6690218217944
85.7527703419817
85.7899183899148
85.7846970593552
85.6986706022079
85.5974970119928
85.4932067255149
85.4298498904435
85.5041783060213
85.4635164565101
85.3405755513917
85.39614253442
85.4773178102503
85.4289820289208
85.5304234768578
85.6171848614444
85.5358511552265
85.2946558003657
85.2583257598261
85.2276695610614
85.1877732681072
85.208157252726
85.2276916191188
85.2089521778348
85.1330502500827
85.0744497482433
85.1602416637329
85.1935137959157
85.2771616318127
85.2769016498036
85.3161217703201
85.2469209418114
85.1478143153706
85.3650645290513
85.2307495053632
84.8557638616985
84.7536751878435
84.9911726498354
85.2677091876853
85.2067146723568
84.9384529851167
84.9888830114597
85.465729939099
85.915148411923
85.9133048229392
85.6644434783319
85.5427796938426
85.4398282816038
85.3839728669724
85.1055350165195
85.1599390987737
85.3541156851622
85.3729499671539
85.2612784657287
85.2598000449345
85.0647850264719
85.1880698913466
85.2324878430009
85.0824883492357
85.3700634481333
85.5849194388726
85.3448491644724
85.3016099679287
85.2793245145026
85.2444549376654
85.3292447394464
85.5799395453797
85.8349265241504
85.7991819681192
85.7115409944448
85.7517308049867
85.6735883461004
85.768676642533
85.883333569144
85.7864940166393
85.6023809319374
85.5565784120779
85.4695297292912
85.6212604133175
85.8830075716908
86.2493509758141
86.4683842383536
86.4223720896656
86.2070910305549
86.1088794894338
86.0353149730036
86.089179621881
86.3510766792149
86.6054587174443
86.6058109407238
86.479522898271
86.4154268804501
86.5482970785575
86.6976155905849
86.8177472699967
86.9008300609443
86.8847862708942
86.7149199176955
86.6999677800592
86.8217282574483
87.0752778769225
87.1858223822479
87.1784432292594
87.0582200726178
87.0414406609197
87.0186492689737
87.1726243181258
87.2851940430858
87.3151854775189
87.4108298118144
87.4506005239111
87.4233049656079
87.5364939721187
87.6134735526902
87.672496464
87.5860201186891
87.7097630381306
87.9166389318032
87.8313888236433
87.5973501908855
87.6831408844743
87.7399539784051
87.9489024886485
88.0316927174989
87.9164603845149
87.8394599688899
87.9143599781103
88.0191216074534
88.1210439603184
88.046771540265
88.1591897603866
88.2194971416175
88.2244252439851
88.3057294671279
88.3939337915421
88.3944529759342
88.3750040893806
88.2708616710743
88.3943230736706
88.5174214363356
88.5784913250783
88.4581737992313
88.3840439017218
88.5063058265538
88.7834799205569
88.8287702065651
88.8316574579299
88.7008766576352
88.6417586241845
88.6598585715525
88.8269553904193
88.9612624098637
88.9212547188886
89.0005583599448
89.2167093306017
89.2025238309555
89.1857056453711
89.3433330042891
89.3913999021732
89.2544902041683
89.2894734755999
89.3011657346146
89.379063946858
89.3282885514477
89.3793646953987
89.6169763381611
89.7784750754117
89.8211866050148
89.9079300119517
89.820303085667
89.7917406810233
89.7508049238675
89.8313308091988
90.0062288307651
90.0934052465727
89.918056072817
89.8701692893854
89.6215577528295
89.5883311462402
89.6964476241022
89.7428054200643
89.6761405066591
89.8486386079833
89.851678845081
89.4912162439272
89.0877077292554
89.3680796496975
89.6362968942749
89.605601500989
89.4690651559428
89.3304156902673
89.1821068479236
89.155945839351
88.9577302313186
88.7047081266972
88.7279617260846
88.7581818899767
88.5856871534405
88.5654967149545
88.4878953182117
88.2960213759672
88.1986088707597
88.2832949916975
88.2428584562733
88.3663195908774
88.3717332854008
88.393292779953
88.4434921450618
88.3029446559985
88.1312271246208
88.0509864159846
87.83675228033
87.7279228908021
87.7099889875566
87.6693441141248
87.6278682935749
87.7070116325773
87.6721944144648
87.6334658668534
87.5919178564848
87.7301173987713
87.8147318972586
87.8972714999785
88.1298996057452
88.3797579906964
88.3459447105515
88.3498563451749
88.4177013090024
88.5532348541636
88.6731129659373
88.817009151149
88.9100273982741
89.012783208126
88.9881191141289
89.0291495792848
89.0976675650556
89.1986672415552
89.2414408329925
89.2549611540762
89.2562263697733
89.3602111220528
89.3809947736659
89.3253902025696
89.2660706756726
89.3347638551723
89.3202506025418
89.3566660362434
89.4230984255296
89.3924850521702
89.3155373004159
89.4529938947075
89.6108832215793
89.7113792156782
89.7085634425936
89.6983441798706
89.628942368812
89.6831507099614
89.7873851358972
89.9837013873892
90.0855611860876
90.1328347112874
90.2124693037694
90.3823390492755
90.4401789653981
90.5604821653415
90.6867103782671
90.7802329552913
90.7545166468982
90.7855646474967
90.811523380409
90.8874150911
90.9402681416446
91.0485727526997
91.1818362272032
91.3423435144766
91.3481222899863
91.2920878632796
91.2324911101258
91.3130130581252
91.4239444859274
91.5150153251447
91.5540810626477
91.5998725075844
91.5373940274661
91.5536861306884
91.5957450241483
91.6696289117257
91.7531048789682
91.8092883862392
91.754963814833
91.8209012179377
91.8606286149898
91.9591837396415
91.9943521683063
92.012443298597
92.0342714029943
92.0784632718311
92.00241322194
91.9827192428144
92.0451460974332
92.1620697930829
92.186516460772
92.2109865241889
92.2802641751919
92.2946156009346
92.1757518519386
92.1695042221514
92.2510576849508
92.4083573916618
92.3845477728322
92.3097404072711
92.285730924147
92.3277734089742
92.3081090696997
92.3692825925077
92.4351896707511
92.5797068032389
92.6113697673365
92.5085301280553
92.4199524736226
92.4333158242242
92.5176682483433
92.6280550688817
92.5981335252656
92.6587095734502
92.7466125021438
92.7245829445651
92.6382351585953
92.6860465234313
92.7111344131616
92.6966204697412
92.6683316378345
92.7392875547744
92.7453708261884
92.7509347325147
92.7635479427357
92.8508752999377
92.8991670661999
92.8941030957905
92.7715902445686
92.764890166112
92.857713200806
92.9066039136008
92.9040971716117
92.9340013048344
92.9547558904675
92.9986836623841
92.9655520064754
92.9193099140031
92.9215976834548
93.0529560672228
93.0655245974142
93.0105564356502
92.9919562547992
93.018009054541
93.0292996787234
93.0872991359947
93.1083280959251
93.1938997335251
93.2546035745832
93.2663657531758
93.1967086215184
93.1124047794711
93.0834654533597
93.1947181071239
93.2906915210344
93.3434943971405
93.3603078492191
93.3440499055087
93.2727514456387
93.2486409182209
93.2389052845043
93.2998514781547
93.3240274824577
93.4338493938099
93.5055460899521
93.4784869956763
93.4580007113371
93.5511853578275
93.5793300795974
93.5355911981033
93.425388444616
93.4950504740744
93.5348530404318
93.5532578150348
93.581696277031
93.6497021458186
93.7134632613716
93.7609414629666
93.6572655573996
93.568065108737
93.5864988915436
93.7410889927842
93.8027575379056
93.8077104355947
93.816678859732
93.8964294206196
93.7805963256509
93.6131589618112
93.5529825778899
93.6636002495822
93.7509691464841
93.842926538461
93.9072264786101
93.9513331385763
93.8198952902311
93.6851896110796
93.6250281559296
93.7766258609409
93.9708928450109
93.9734327728307
93.8441887949827
93.7800290859256
93.6748934733921
93.6615083470567
93.7290274797351
94.0044155100223
94.1526126469727
93.940682016275
93.6969699101371
93.7768278472635
93.8850572685037
93.9253609466532
93.9534665232966
93.9424708298527
93.8528338666518
93.8816637034307
93.9935191563303
94.0683196297706
93.9696114739437
93.9369456511461
93.8456326061134
93.8370304125822
93.8613930119263
93.8276161563237
93.7698541767973
93.9179266437178
93.9579409578075
94.0030591369843
93.9825211377785
93.7894590944452
93.6596664561956
93.7978289252749
93.9862771790244
94.1320261222272
94.1357262132279
94.0168246401255
93.9263488360989
93.9743873592416
93.9868310452921
93.9319667336544
93.9268931657204
94.005562400154
93.9520738986714
93.9701237689331
94.0339933176026
93.9989455504347
93.8491733148362
93.947975024719
94.1296709591468
94.2136214617212
94.1107046106174
93.9323085144596
93.8199583676379
93.879436417434
94.0644940888985
94.1687078142771
94.2006488775146
94.2162506938903
94.084280465072
94.0808313579428
94.1070030912958
94.0847695813372
94.2191507134013
94.3684337138597
94.1930404608768
94.0641978431668
94.1483595972836
94.236059710273
94.1281692772131
94.1789801595868
94.2514336590853
94.1744528880951
94.2293813819092
94.3999086247312
94.3764971495849
94.2267741981903
94.2491371058041
94.3722555950092
94.3222858941963
94.1966776572564
94.1377167831296
94.1611823851625
94.2358225247999
94.3385698992265
94.3610769824621
94.336301627271
94.212040168974
94.0816402639411
94.1335448833589
94.3108580612357
94.3762546015935
94.3660981483878
94.2603735284157
94.2152983261781
94.2320681888565
94.2392068993611
94.2728688360167
94.3093297132263
94.3388448666233
94.2693353182969
94.2364649516118
94.4017057904386
94.3837374197314
94.2902177926745
94.515534965802
94.8166565290433
94.7579050282025
94.6096772315904
94.5486529456839
94.4927609438829
94.3225704453686
94.3594746954787
94.4289131458989
94.445024563996
94.6624115109134
94.7838869854433
94.4972984579139
94.3570818005236
94.4528654144568
94.5331055023666
94.5077627771928
94.5514763786469
94.5645416439849
94.4893295703601
94.443585128064
94.5413711573028
94.6457424460549
94.5886468774404
94.4195711964614
94.4247805521334
94.4140738965792
94.3993585884236
94.4333472121402
94.6278363387254
94.738814108215
94.7495130138809
94.6638710209703
94.5095239075978
94.4901159994186
94.6486245134606
94.820907094472
94.858797150472
94.7835336114512
94.7691608436972
94.6977182651226
94.570392780279
94.7432962525757
95.0765046518545
95.1767008559429
95.0312822930684
94.9108823032149
95.0208348401131
95.094280994016
95.1878970782329
95.2375819059381
95.1803874847907
95.1957002973979
95.4791652884097
95.6254861747748
95.4496414597108
95.3298054836896
95.3790955672728
95.6492249830938
95.8201840895105
95.5431674176064
95.2691340081054
95.2576780984122
95.7209827842524
96.2881008903246
96.2966494304149
95.9354022481066
95.7700029499432
95.4193304057132
95.5651944220355
96.3315206827064
96.6102666656435
96.2836532012176
95.9608006012733
95.8624024919656
96.1582520124316
96.0448838998722
96.1798383366368
96.6458853923435
96.4259832698733
96.2506127753081
96.8265158444372
97.0319553305347
96.448330737954
96.1905969194281
96.6742880931472
96.9755249720685
97.293075471576
97.2561570443146
96.4546193111085
95.8326321294403
96.228723834221
97.3160935094464
97.8817213321012
97.6292557922826
97.5496565714406
97.2650313728451
96.8535357299867
97.3238993874311
97.9788765976145
97.9892344566733
98.1018849247469
98.3412826039262
98.0443348922772
97.6444467120759
97.5954542316303
97.7176037710726
97.8847150509657
97.8731491058895
98.630509262689
99.361370787023
98.6106594000087
98.1509260282538
99.2247498592021
99.8822610453609
99.0790018900596
97.8936330548327
97.3684845867877
96.6414985576522
96.6885352050347
97.5169314676554
98.1272555404589
98.2161555647391
97.940510571834
97.3160414198517
96.5370287416086
96.2465292485994
96.5641316710883
96.5631732867603
96.4247709446159
96.5462501057732
96.8167174107305
96.6498213063515
96.2244015638628
96.2924332148228
96.4683263107375
96.2783590790726
96.2695423595162
96.2991297270676
96.1682296394196
96.0583990878161
96.1819105894202
96.5740803747879
96.8900358111181
96.9224173032037
96.7504144571836
96.4687100283344
96.2111366901003
96.4010283155742
96.6013350923826
96.461777725357
96.6164250396778
96.5870819164728
96.4813710525126
96.6260661332213
96.6758386193697
96.63284413708
96.5170901309721
96.3618385608045
96.6266280087844
96.9732653814698
96.9311513677967
96.8466056904559
97.0251593335166
97.3031980727502
97.4607847163301
97.3592491051693
97.1664402852357
96.7044105819182
96.6779158705245
97.493744517463
98.4409591913662
98.8417633657594
98.7860809519045
98.2284821010482
97.6919914078831
97.8482616008142
98.2117637442247
98.7778688588598
99.1291031210038
98.9683374167409
99.0477194288908
98.6490852787837
98.0325716043824
98.2593703339051
98.7161063841749
98.2633036243366
98.5500411735667
98.9920360686579
98.5397274680973
97.9469286120235
97.6744855738408
97.8372173534403
98.4296929227395
98.5887986398038
98.7059925736636
98.5295203169623
98.0455214555369
97.867821889111
97.8822834542107
97.8166556051559
97.9433522359428
98.1714644129281
97.8472152870159
97.4201562142589
98.2481682725212
98.5075056065325
98.8554258093736
99.1811620946366
98.8539772016155
98.5789116877826
98.2093091502719
98.1326210781592
98.5364326109128
98.9922680246937
98.7646643762654
98.6063920070808
98.1715148456023
97.6512494456608
97.5381420762116
97.1968029537101
97.3136179341715
97.8025892374488
97.7737339057648
97.1490030421675
96.804964360132
96.7562875393378
97.1227107028984
97.3029504270149
97.5644984492214
97.4025661583117
96.9547566642512
96.7853029296681
96.611098574774
96.7838493559951
97.0281305853775
97.1899487588363
96.9568834872344
96.8617581880596
96.8452604627452
96.7064571737023
96.3913615869085
96.237552910055
96.5385457222566
96.762217777114
96.8261386072872
96.5336895234578
96.3625275138255
96.3138108472422
96.3242500526859
96.3381684638188
96.5990104546529
96.6667021498957
96.4744561734589
96.4222447370605
96.5386144240605
96.656598780676
96.6533932149164
96.5392819125944
96.3461617915006
96.1865733626701
96.1971017257451
96.316921198338
96.3819077168999
96.432592305002
96.676496995547
96.6616127480875
96.2668267447084
96.0069191088375
96.1817652978791
96.2423824358303
96.3897469041063
96.5097669123213
96.6127044809529
96.4376232870993
96.3055373092728
96.2517830784425
96.2266428583989
96.3141773854461
96.3680711857653
96.3550310807983
96.1083724830408
96.1306582910033
96.2455996107109
96.2762945890622
96.3385609481597
96.4084418590673
96.4224703996363
96.2060598810349
96.0062403132326
96.2273892283086
96.1061106659703
96.1221582432712
96.2808452961441
96.456249305507
96.4288219706237
96.2442191737247
96.2112154563514
96.1997403604701
96.1467991171526
96.2036422405804
96.3268023623093
96.3760254931073
96.2808376690938
96.1707449445266
96.1114900434977
96.0935514008632
96.303869491488
96.3391528399146
95.890579697661
95.8822419330377
96.1203074949953
96.2187383127996
96.2033033747388
96.3732210669688
96.2940263573092
96.2007368251274
96.0243342879483
96.1383347509832
96.0136284085315
95.7538108282418
95.7915129415945
95.7910785057896
96.0107300343306
96.0070031754682
95.7338521639063
95.466899972377
95.5067119489935
95.4477136548702
95.6219086845604
95.5660579177354
95.3764731745674
95.0315750954068
94.8851773916952
94.9442300175917
94.9960791781272
95.0416403019517
94.7119718028826
94.6886763411819
94.8233344945194
94.3995073355119
94.208602725661
94.1538171454755
94.3401437561408
94.2603974031859
94.1989434772658
93.9562391447353
93.9930397790856
93.7217007561407
93.2639710566791
92.7847426184708
92.7366667965472
92.7359913108705
92.5228424455012
92.2999778637249
91.8366474861126
91.4876690273738
91.4556736845801
90.7225812573003
90.2908256308956
89.6839780303494
89.3406661877022
89.1129376801846
89.0154680480336
88.6449897828014
88.1572736979321
87.6119207003235
86.6284817342139
86.1440166037586
85.9644554719537
85.9783313057632
85.4700963414337
84.928329515956
84.5051614116432
84.1882589503868
83.5634047608454
83.1297491267352
83.0926879501817
82.8017133378939
82.2699647126343
81.972892973234
81.823622055747
81.6684438593003
80.8831875605072
79.8832475187193
80.1698742342856
80.5338349964505
80.1128584443978
79.5753983548055
79.6926142595517
79.7076809458039
79.574756793321
79.2068288895078
78.5584368816015
78.3969123941966
78.7193843361856
78.8000557812839
78.4400836044757
78.2585743037478
77.9949399826206
77.7525724159262
77.7658201498929
77.8525539187919
77.4325148838575
77.1112850655674
77.1996078377859
77.3202432407897
77.0613910883311
76.736099036871
76.5230058673865
76.380768860617
76.1472704117641
75.9212704764335
75.8511730377229
75.7390655449448
75.507654357618
75.2920336102063
75.112876874583
74.8733647795366
74.7221916126905
74.577674736718
74.3775351917798
74.0834874246542
73.9568745845988
73.5967652560048
73.0165504111178
72.8466784411587
73.0412994777626
72.7609330742474
72.3638863199455
72.265084853888
72.3310000437409
72.2798352155449
71.8672799289283
70.9717157177079
71.3174307805818
72.3337699213715
73.0031974931556
73.1386771700179
73.2923201302651
73.6790771574539
73.9409211479975
74.1408954139237
74.1666309444913
74.1343462741941
74.8220947515708
76.2987661369718
76.8088829684064
76.9729325548616
77.3022911579323
77.8386431875635
78.0166880200561
78.2031886648538
78.5331784240338
78.5581197595762
79.0257303153008
79.4818013461136
79.9331285668446
80.2268678090422
80.5684685930935
80.7583027707186
80.6518627790958
80.3464548354831
81.0493094574988
82.2612774926193
82.8440143489836
82.8208861924187
82.5756285429424
82.6604081024436
83.2662643535766
83.5376226388484
83.4207030819311
83.3364205055496
83.7417312183593
84.1282994334862
84.2249952750885
84.2998821370822
84.338049258302
84.2267831128185
84.0522089145421
83.7145287811458
83.5934959566443
83.6071280035941
83.7757994930546
83.4189324914675
82.9887411396566
82.8365299593399
82.7467694984425
82.154535227863
81.4224752302601
81.5030124006685
81.8865496842562
82.0143794655685
81.7154288286555
81.5534075146853
81.4696528278317
81.5808619780294
81.5928539058128
81.6433111895175
81.3812159322624
81.105838019986
81.1290115576109
81.3968941430057
81.2170967880001
80.9479639928319
80.8815641314564
80.65589163895
80.3416626023034
79.9709216857401
79.432714297685
78.7524834465384
78.5335273601437
78.3803032230234
77.8459979381372
77.3191431650255
76.7953979847624
76.2353152409776
75.6025997605857
75.2699462168587
75.0504998889804
74.8585473631509
74.6345733666876
74.6031044051187
74.6387789449929
74.8069015806489
74.9147545738686
74.8005774677277
74.8186235091896
74.9832389393329
75.1285347346801
75.1332579349607
75.213616618157
75.253704353199
75.2678662104824
75.3460148589131
75.5611628358509
75.711432385872
75.7808519165497
75.8507300057761
75.840490970028
75.8815869356971
76.1366182691434
76.4302198838224
76.546319006438
76.6207089604995
76.6789491669279
76.7789795872097
76.9611286260232
77.1610136365689
77.299291408383
77.4402210399941
77.5171708670229
77.5525372042021
77.7149251658309
78.0524883715098
78.2986412611295
78.4407449048724
78.5049242407739
78.599541919921
78.6503727725065
78.6254241477913
78.675019567694
78.7513309404232
78.7324410001337
78.7215390334447
78.7413155492348
78.7003898782235
78.6267658905161
78.6274927168905
78.7175147531712
78.8513941583357
78.969653375257
79.0464547718753
79.113945439889
79.224353711239
79.3739825706476
79.5592124039382
79.7186331512092
79.8609528985775
80.0254874645992
80.1744057552714
80.2923153458944
80.4710140222866
80.6166824694909
80.680858943995
80.7626184121897
80.882240439337
80.9449724982534
80.9845918042304
81.045716734005
81.1048137007813
81.1435532930082
81.2080158515206
81.2807338523587
81.2981754093096
81.2945949966212
81.3135661234545
81.4084552611992
81.5072090035432
81.5416892252533
81.6092471065417
81.6231741131573
81.6129907392186
81.6396647774703
81.6964782979815
81.7948281755597
81.8782119292022
81.9013183558365
81.8887558494565
81.8743080430361
81.9118710118148
81.9914150447914
82.0663952271152
82.163912672805
82.3073319288853
82.4476169132369
82.5102269911777
82.5591858364665
82.664266254478
82.8208413121959
83.0042187069813
83.1449791537627
83.2784748055307
83.4020731684535
83.5320595191002
83.6563114860316
83.8187502834595
84.007011395058
84.1582036367341
84.2421224154536
84.2846184748235
84.388241972085
84.5535047018243
84.684606812321
84.7586941656224
84.7730877457486
84.7908000940356
84.8144616159825
84.78171854131
84.7389061114167
84.6596461026807
84.5293011274202
84.45929958137
84.3846978322396
84.2444728932055
84.0550839357762
83.880535810366
83.7756501008928
83.6880637698924
83.5447177479376
83.3556129401156
83.1372494403226
82.9098377432214
82.6968483392593
82.5093492984302
82.3606536829311
82.1874480541242
81.9819944239833
81.7186892879108
81.4375851108462
81.1617073510397
80.8934782829346
80.6657096345009
80.4862981689742
80.3552888566486
80.1402791077588
79.8581032077698
79.6067723860124
79.3824820303624
79.2028557333972
79.0999609754882
78.9757872816491
78.8406857422604
78.7634992673682
78.6672894844067
78.5111047289672
78.3516203720529
78.1816230360204
77.9290409188706
77.6605066357927
77.391942435235
77.1476254485675
76.9260874616528
76.6897708945901
76.4649670923312
76.2369278818921
75.9395959368256
75.6217642537223
75.3581324930356
75.124928213337
74.9001080128231
74.6454807103017
74.3705258550565
74.1259219944549
73.8891680916195
73.6307034062717
73.3761943005425
73.1266706809696
72.9135021598215
72.7178102916026
72.4941239056848
72.284678236723
72.0336477124337
71.7840608678005
71.6678534826357
71.6344855181239
71.5911572563206
71.5380302897785
71.4482195869518
71.2994405656792
71.2249665597803
71.2292614505727
71.2535131086614
71.2356200254291
71.2143495815248
71.2118874269119
71.1988827939447
71.2192876243876
71.2664644749699
71.3094696829146
71.3927192467343
71.5166565174999
71.6693074449516
71.8605939702818
72.0811204104277
72.3315495125907
72.6339347174463
72.9588833581376
73.2521844219817
73.4725752222122
73.6625850657834
73.9438979658783
74.2563541252633
74.4735908922042
74.6676397596984
74.8442186304602
74.916313616959
74.9701876231064
75.0359202109008
75.1089294607654
75.1616225251719
75.1365353584503
75.0854031677855
75.0837706672199
75.1083793156867
75.1647705503104
75.2894954019411
75.4710600764252
75.7111159636551
75.9809330172073
76.2211242260912
76.4661221051578
76.7569314544884
77.01047791775
77.2803395267907
77.6429659804171
78.0408207872587
78.3721292897456
78.5773472772467
78.7325709541904
78.9210585588598
79.1616117892388
79.4572353491183
79.713770616756
79.9031577373621
80.0836719460188
80.2276285526137
80.3591248640153
80.547788404937
80.7380248817308
80.8242832258383
80.8593740063916
80.8953234308621
81.0050198290134
81.1134574150676
81.1574731805112
81.2502245325991
81.3357020105809
81.3742474525376
81.4132310890946
81.4353897641059
81.5096185430616
81.6527324429926
81.7714263847433
81.8911631307188
82.0664647101761
82.1593523815184
82.0902344647317
82.0854499234642
82.2593740193069
82.4246855753739
82.4617995470323
82.4146847979423
82.4024558619037
82.4132549114586
82.4178242980831
82.4832114147959
82.5529525617582
82.558283469274
82.5104965425663
82.4919593011181
82.462977062771
82.3976400433521
82.3862653207975
82.3680776467556
82.4006300165568
82.5087399241455
82.5920041195121
82.5374623155133
82.3720872603275
82.2277691219108
82.192951627145
82.2004440987233
82.1759908758319
82.0442958004452
81.7860778509567
81.5673232691148
81.4091596038956
81.2413688861275
81.0405867815426
80.79534668407
80.5284920497552
80.2966810966559
80.2473529195689
80.3171433739432
80.370304244127
80.5021062988319
80.6758930524273
80.6628186320058
80.5654814535779
80.5008006360491
80.4860924159731
80.5272233566444
80.5168484011718
80.4652694182754
80.4393924490076
80.3097970863891
80.0839752679244
79.9770460736515
80.0522995653341
80.1693755670316
80.1626445999422
80.113732598486
80.0595679248045
79.9593819875769
79.9013039548829
79.8930970357694
79.9777992550104
79.9900158970328
79.9124858052181
79.7821606880268
79.6701976445324
79.6522178245236
79.5879903072768
79.483937768946
79.5324296628295
79.6006282656437
79.4900811102144
79.322395238528
79.2220643249269
79.1733841980676
79.1199391907715
79.102004679265
79.091878919202
79.0068777646232
78.9070426451027
78.8436881273757
78.8068886415076
78.7858426136387
78.817316785558
78.744218325418
78.5438248854512
78.3286136902104
78.2460904714696
78.3796389129442
78.5222141811613
78.5008731885815
78.4370602802719
78.2170097664802
77.9203503224918
77.8425157521599
77.8930613104248
77.8244965888696
77.7450738168206
77.6798070686331
77.5369666964207
77.4209099915285
77.2048693188157
77.0278003385417
77.0389145451951
77.0144909275704
76.8736122767444
76.6998198334818
76.5871473397072
76.3237589576288
76.0412796734447
75.9939681669285
76.1291549195429
76.1522768943754
76.037367392238
75.8489689981161
75.6603126499994
75.5821383872011
75.5117120878067
75.3062861183294
75.2373920508826
75.276008883464
75.1280284273483
74.8306754685037
74.5461621662478
74.4470284560543
74.4093363871578
74.3393404468441
74.5618964696628
74.8784979067423
74.5446415957013
74.2787925476337
74.147200207925
74.0947861208678
74.1197284214678
74.1481070920178
73.9691697791164
73.6598871476375
