1798
3999.43349933624
650.420452594757
1
128
4
97.6703200737857
97.675775013908
97.6824091492693
97.6921850531922
97.7147905573079
97.738263510656
97.7647723494704
97.7378816548649
97.7322738992976
97.7414358270651
97.7720535721514
97.814979773258
97.8437187017008
97.7632547211857
97.6945150790757
97.7842166929035
97.9166688423986
97.8793443421017
97.818188451132
97.7910798129262
97.7958852566181
97.7237261277716
97.7451819745967
97.7667708499472
97.7165235796954
97.6647418708678
97.7110553651385
97.7651676045169
97.8002336737479
97.7834382837038
97.7550331973332
97.7368073310066
97.8054040016152
97.8183976614327
97.7784589160227
97.8073630281468
97.7918411226684
97.7168074718785
97.7387775432134
97.7250533093841
97.7375423435583
97.8318432864011
97.8434319990757
97.7578192321093
97.7951974510692
97.8504509119121
97.794013743942
97.7437235437014
97.8621930352193
97.867639262658
97.8128831522478
97.8239276618705
97.7857055487174
97.6270044225901
97.6462461388363
97.7463413854818
97.79623184203
97.8274044031623
97.8398577401935
97.8110776499634
97.8521675973275
97.82944817863
97.7987902859816
97.8057803645752
97.7776707620404
97.7127804708767
97.7970211313655
97.9599116252956
97.9171699153873
97.6947075333383
97.6934365118633
97.7869892289122
97.77545602541
97.6937405006415
97.7059186437818
97.7452614004946
97.8375116876338
97.9722163138792
97.8631744141933
97.6295222290564
97.7273723451159
97.8658610974642
97.8570119363738
97.8284905326646
97.8947016961844
97.8650781590842
97.8571040924743
97.8663568561327
97.8700934418201
97.8812213041803
97.7943514090836
97.8245796727333
97.9244443409898
97.8594620007788
97.7745594367479
97.7554240190907
97.8141114320098
97.7362395540042
97.7258024306702
97.7682557838037
97.8756337449526
98.0412232106143
98.1165825092894
98.0196006889576
97.8998786223657
97.8327592521283
97.7865099618568
97.7531694320313
97.7828506759176
97.8789102063589
97.8759580081765
97.826746893513
97.8935878122151
98.0266595470381
98.0943681654549
98.0415688234707
97.946366295071
97.8463264468027
97.8473207685912
97.9217342347506
97.9570464172444
97.8173716372715
97.6472077950779
97.6485964165734
97.9020533547842
97.9877604176851
98.1023950206974
98.3641522602491
98.1432996782726
97.9908229401192
98.0677552043806
98.0568485847866
97.8381323052133
97.7145500691311
98.2652956960462
98.4687611945258
97.9746957745651
97.9558995986712
98.2017624529837
98.1300711715878
98.4704766100402
98.2309167129316
97.5319507869352
97.3806399492753
97.6047969772798
97.9434268232044
97.9767588540634
97.6458567203515
97.3843032837153
98.0261986869726
98.6118776373064
98.1527128188666
97.9417334924008
98.0134114239481
98.0795850444363
97.6963941141069
97.4148660895413
97.6970871887767
97.7981781122257
97.8179734698073
97.7874227188498
97.8191878073146
97.7067902420756
97.8906085628946
97.8836007295104
98.0210029323044
98.1848433516206
97.6763058350186
97.6510884768789
97.9924037657436
97.9633901319388
98.0199851524794
98.0345115861948
97.7870898792497
97.6022242291756
97.3994961025894
97.4688445846441
97.6625768229781
97.7395726536617
97.7095385088546
97.9194749868266
98.0403157104403
97.8620490614221
97.6618147795277
97.7389168937551
97.6727364636493
97.6239131302474
97.6616126367386
97.5230235613104
97.2575592338882
97.230857755849
97.2410549307447
97.1647222080372
97.1900840132524
97.2649992201749
97.144728621225
97.1439413009743
97.2123624147231
97.0188184166797
96.6325101074304
96.6173115140524
96.6211867827674
96.5603923400284
96.549009531556
96.5265502232074
96.4016418036454
96.3719259905626
96.3711305300798
96.3948979201055
96.3338439550161
96.2366073361993
96.1668154976985
96.1092954853347
96.0910801258703
96.115828775183
96.0548829913872
95.9684394149069
95.8820529786468
95.7604505825831
95.7628974733531
95.8653157646643
95.6892545482672
95.4955435287671
95.3819153705083
95.3812906515019
95.3983357263596
95.206702654477
95.0713752442493
95.119411722533
95.1623604043422
95.2361616882802
95.0974787959382
94.8109309219284
94.7530223861208
94.8406891469879
94.7657988909629
94.6847750487618
94.537668777981
94.4622617063565
94.4714893956705
94.5033215080627
94.5068733968481
94.3806638382944
94.1530882850659
94.1559641313244
94.0941834352652
94.0036490161
93.9882896765663
93.9473339629723
93.8346544566819
93.8084251317825
93.7418514303998
93.6898013541051
93.6325289648285
93.5432038702496
93.5658775869414
93.6092980562699
93.4788734111011
93.359471723832
93.3444996960132
93.2485581232356
93.1663328649457
93.1928432771202
93.2318811329279
93.1760834006559
93.036041093042
92.9568239716864
92.825290610969
92.7077537437063
92.7184731947127
92.7284974968655
92.6090976346791
92.4675851301039
92.3689999528035
92.3611134249442
92.2110977402286
92.111074229328
92.0332203524925
91.9341965543947
91.8629667982419
91.8238308360471
91.7740493095724
91.7921909132834
91.6781663429702
91.4349564407542
91.2812454922294
91.2174555992101
91.1103884899959
91.0595678228094
91.0031600903842
90.9033340770384
90.7550375006393
90.7205613978803
90.6351683708193
90.4574174485916
90.3254398000427
90.2383316143465
90.0805393487775
90.0338920227887
89.8637044500739
89.7995070742384
89.7206979555648
89.6240042364403
89.4587264365893
89.284013848939
89.1207542070512
89.0353263655165
88.9587029664149
88.9199448037847
88.7878740873293
88.6106454773991
88.394363661628
88.2277634691986
88.1861952743032
88.1285657985612
87.924227237659
87.8122847572414
87.6834088797309
87.6021407486083
87.4666427195453
87.3089800014188
87.171868521957
87.0488550912028
87.0267964353537
87.0210821228264
86.9192285833882
86.8301497200692
86.7387398940911
86.7862872076623
86.7798027637041
86.7436566910927
86.6757616363032
86.7498576173822
86.7693308944531
86.7123766781477
86.7301766937508
86.7698885623521
86.8189967513105
86.8593067703262
86.8269840100034
86.8575098423136
86.9258823836811
87.001060324232
86.9595424216635
87.0229041037563
87.114463667751
87.1430202228655
87.2043141413559
87.2246741924833
87.2346814725415
87.346933391903
87.2924221803656
87.277781767038
87.3142742953965
87.344499447543
87.3806401430374
87.3931311370525
87.4479097436076
87.4487147167946
87.4765969090572
87.605469141985
87.598176034772
87.536000177626
87.5573081975596
87.6677333355601
87.7170711072456
87.7293969867655
87.6180518319828
87.5947636480135
87.6838941405015
87.683993611424
87.6497915897214
87.7633605251779
87.8480191946663
87.8520507269538
87.8388602619674
87.9125883562726
87.8858044160291
87.8886728247371
88.0081525477854
88.174557272887
88.2174168790142
88.27489523945
88.2770891720133
88.297083024107
88.3544887015784
88.4340566102052
88.4608967947196
88.4621900489285
88.5817437213851
88.678277153883
88.7066437601653
88.8077639727245
88.745327645024
88.7670249449733
88.8269287653752
88.8692974851296
88.8738460294432
88.8395634169623
88.8802371100969
88.9094813236464
88.8945857467312
88.8968066453711
88.8292468070156
88.8098803956793
88.8030344296457
88.8603924613487
88.9628947207477
89.1317629763901
89.1751185881419
89.0562035187268
89.0819597844448
89.2724104388487
89.3467102402417
89.3923370627851
89.4126521724431
89.5077262682783
89.6018188376638
89.6381785453599
89.7438924815054
89.9414042528531
89.9695726877362
89.9793164960861
90.0894678547482
90.2060832591133
90.1571326704382
90.148653811761
90.2665181163802
90.4104816413107
90.4824525874289
90.5724736865443
90.5746504638334
90.5633201070825
90.6560323913936
90.7882520815391
90.8680095387747
90.8876346102794
91.0026655312089
91.1346397939851
91.1401678753236
91.1951263815707
91.192569972829
91.2586168124098
91.3141860749916
91.4091710022496
91.4347368688344
91.4361619187654
91.526590783857
91.6275491275521
91.7271559491125
91.8047884287765
91.8263222652529
91.9106527036055
91.9590742974293
92.0002877478618
92.0244767234585
92.0337260999716
92.1144945525062
92.1900640363131
92.3047596637478
92.3807680112821
92.4765381478894
92.5672556437663
92.5970757463618
92.6081650316705
92.6246672909211
92.590044240329
92.5694055279069
92.6934817513649
92.7497747122651
92.8127979711377
92.8582477627621
92.903895459801
92.9262771603521
92.9683726494888
93.0525465321706
93.1595115794129
93.267111336364
93.3249339604098
93.2869883656173
93.316225024164
93.3850737684313
93.3469601484238
93.3536106532914
93.4985646062032
93.56386837796
93.5428819182653
93.5921343555569
93.6994973776099
93.6716331496917
93.686146567536
93.7891367203391
93.8272501852967
93.8427647962444
93.9185475449346
93.9979344283206
94.0185725524563
94.0488708712914
94.1089497524465
94.1225913054316
94.1504266411957
94.1046798755718
94.1726244691855
94.2709172939012
94.2803724320503
94.2793935995897
94.3542800415062
94.4447625164571
94.4580546789161
94.4454741075629
94.5299506949326
94.6557254518562
94.6841354533228
94.627881683313
94.5088950458405
94.5247988835081
94.6361554594933
94.7490496874995
94.828511050907
94.813622650068
94.8125374129432
94.8561066069166
94.962260681065
94.9730837470326
94.9730790620095
95.0399071221629
95.1206499343622
95.1571503146718
95.1223054315672
95.0961172054938
95.1455845833203
95.2288986363202
95.2400210776061
95.2595575712778
95.2577579339176
95.235790226791
95.2833796370116
95.3149187799996
95.3013139446529
95.3483860445664
95.3748239745215
95.4111826482201
95.4693187552603
95.451941955321
95.4400375992149
95.460210792188
95.4981177009067
95.5779648632008
95.6235154192873
95.6390731553476
95.6995713606482
95.7522003269544
95.656936521942
95.614157506284
95.714405239382
95.7679685652921
95.7404330479403
95.6986958410351
95.702019141429
95.8185093111445
95.9066956608947
95.8837047900867
95.9111116140916
95.8707274814154
95.8587195481923
95.9451443209059
95.9724222572682
95.9136266518485
95.9114594560343
96.0310517716532
96.0855089415712
96.0962159103216
96.144040555279
96.2188529726404
96.2241300821974
96.1646005479494
96.188381012741
96.2253074549991
96.2822468004461
96.2796541320595
96.2480655555123
96.3311730073081
96.3578200279806
96.341249674427
96.3631954474144
96.2787595843818
96.2567008941444
96.3165823536749
96.39200646869
96.4486624403101
96.4172669362542
96.3987182580256
96.4254739469265
96.4029175430313
96.4194749078534
96.4453340572692
96.4475914352268
96.4783225919653
96.5150582986422
96.5078303765182
96.4382889852585
96.4031191984178
96.4582028746635
96.5125078517722
96.5211486884869
96.5236504430913
96.5710930355276
96.5762469561267
96.5246538750932
96.5431402127356
96.5764518040865
96.6038712938966
96.6613450044938
96.6919667153842
96.6779214196667
96.6892589154759
96.6929472066667
96.718103875252
96.6923358896302
96.6540131949463
96.6686489916666
96.6474811477234
96.6842044871817
96.8040641384166
96.7990834909392
96.7774575054403
96.791374290773
96.7622974997054
96.7559569790513
96.7798415356923
96.7502588494085
96.7236091700232
96.7610220669578
96.7506751910802
96.6941822615043
96.6932508276797
96.74636516876
96.7998735203729
96.814911767176
96.7596891485059
96.7425372453924
96.7684925172138
96.7887359721891
96.8111487541098
96.8231306808877
96.7871066395594
96.7238336257898
96.6981708862926
96.7439115311851
96.7633870471365
96.7319177200571
96.7067391622958
96.6761749346201
96.6770793846723
96.7011806689537
96.6725091861796
96.6128457474098
96.5959103110486
96.6196613055595
96.6680575268738
96.7244562817325
96.7649036660299
96.7774141137631
96.7498202445862
96.6973870857901
96.6763816960536
96.6803275790583
96.7246676345354
96.7580155810966
96.7359613662902
96.7030278044456
96.7186927920757
96.775104696889
96.7937373469342
96.7201159694668
96.6817770628413
96.680820241129
96.662308062644
96.6439227416905
96.6412857527023
96.6103854584001
96.6154610250772
96.6757564814794
96.7429234733529
96.8229557145137
96.8842261202584
96.8621385800514
96.8461615841056
96.8860565256206
96.9263976895444
96.9031552631562
96.9334007895945
97.0041435422326
96.9985326053546
96.9976810965071
97.0520131922748
97.0870768200847
97.1119319075059
97.1255771709109
97.1339437107756
97.1537585480312
97.186059262762
97.1388562612972
97.1177554015276
97.121587514084
97.1301325931347
97.1669229469629
97.1762306662481
97.1961351818843
97.2389573142506
97.2426116173529
97.2333400436031
97.2529943681916
97.2319796083206
97.2362798085962
97.2640200176592
97.279533532347
97.2863901105353
97.2847092428474
97.2346584306975
97.2011765514392
97.2316088190626
97.2464818314649
97.2343617828847
97.2371639494076
97.2757983906937
97.2810057190959
97.2496566351366
97.2389502643553
97.2739335095123
97.2857985383067
97.3100827132922
97.315211076623
97.3251351933287
97.3490679845876
97.3457209540809
97.3726369016442
97.3926508688369
97.3482210711766
97.3305744475192
97.3647339336017
97.4036461950317
97.4787380316803
97.5249272552095
97.5098408433555
97.5095977851361
97.5251307769694
97.5383030933304
97.4929128080443
97.494713959659
97.5836857525605
97.6023348046417
97.5243415784294
97.5439824141725
97.5773591703556
97.5261383190344
97.5901561108573
97.6289884155238
97.5738690119172
97.5780297188551
97.6175025007952
97.6237156574418
97.5848276296204
97.6328611408592
97.7365056673008
97.7952289229837
97.7793707196906
97.7878077971228
97.7612879320012
97.7035169128135
97.6549372849337
97.6523441586796
97.7069670893731
97.7458399929589
97.7722282006926
97.7433571895577
97.6634841370083
97.6378833561988
97.7375595160475
97.8428122981055
97.8740696400419
97.8258853423305
97.8303402676312
97.8196559074012
97.8006140100456
97.7368974196161
97.728466117527
97.8160999652131
97.804825468728
97.7231804017131
97.7294738333704
97.8135074568716
97.7983759619661
97.7754405278894
97.7274273561495
97.748366026985
97.7949032202318
97.6942705514586
97.6832359812498
97.7814953601496
97.7817634950109
97.7770274576012
97.863559889755
97.8189556826165
97.8290103444365
97.9053347096562
97.8263172881552
97.7223470367824
97.6448350240778
97.6461394490036
97.6667245479458
97.6373559717812
97.565008809153
97.563280415104
97.5933078865085
97.5846097798316
97.5861767236428
97.6042415189444
97.5498569515057
97.5315404256444
97.61624273055
97.6260193579161
97.5685282703798
97.5498445589299
97.5884248802612
97.6348954958068
97.5928759843973
97.6230818460197
97.6047236900673
97.5553648273961
97.5596785135131
97.5405148831672
97.4888340193727
97.5115126043895
97.5159948374132
97.4989337539198
97.5232337829449
97.550683238627
97.5382235541509
97.4830134061163
97.3949362857751
97.3626398908023
97.36427146576
97.3273920506642
97.2726642916288
97.2036316646827
97.2180045979018
97.2749403581186
97.2290194353606
97.165127760562
97.1406834917338
97.1588431217438
97.2404335233599
97.2464209245347
97.1515404478376
97.0805149416954
96.9381307137182
96.8425477070209
96.7139092158296
96.4402053383683
96.1679200451349
96.0401472411783
96.051022754141
96.1412636319054
96.2369553110855
96.3804700736307
96.5728993549382
96.7300256044542
96.8528063387525
96.990740976352
97.1011320808584
97.1741173853563
97.3108704606943
97.4291257517663
97.4440537973545
97.5072728077287
97.5998901823095
97.633298598437
97.7323801527399
97.8036408549206
97.7164910209086
97.6743831464681
97.6647298905605
97.5963936450508
97.5325145082297
97.5082896886213
97.5214754709869
97.5583889475425
97.5999082334255
97.6022870565842
97.6153188755855
97.640242912784
97.6610198256409
97.6286148526946
97.5399532622294
97.5453992940331
97.5189808483142
97.5100587690032
97.4468730953293
97.3677799886334
97.3663122181408
97.4733403668734
97.5181004162012
97.4139667627104
97.3353387023704
97.3967612488757
97.4652345481857
97.4569017788884
97.4288716840616
97.3870069488597
97.4108297464718
97.4981685520977
97.5294059918476
97.5355604733104
97.5525167056596
97.5387934763025
97.485690656198
97.5046438056896
97.4969878378855
97.5707078263702
97.6097201139173
97.4899000439359
97.4436656932455
97.5695224402011
97.6426678702718
97.6934391559867
97.7755221249975
97.8522558237954
97.8709805577411
97.9145750032235
97.9690733505188
97.852808842997
97.7923080375026
98.0290994839038
98.2271938367964
98.2237038642372
98.1274928217562
98.0520944078694
98.0384849370637
98.1659576990699
98.3047274680359
98.3199110501035
98.4000877291175
98.3649400154119
98.2560444255057
98.3778858290162
98.40314103114
98.4221412873255
98.5553162860542
98.4021412426592
98.2305818337858
98.5088529438462
98.7647609677001
98.6112234400784
98.3562795375627
98.3737875331942
98.4036461418307
98.6910065574628
98.9173001783977
98.8859350180514
98.7951544896964
98.8375823089766
99.0681626800522
99.2265396870444
99.1638286400953
99.1062045884764
98.9502462600731
98.8974713383475
99.1468324718963
99.5362004556441
99.5315040649664
99.0811785068408
98.9659588141006
99.2190361926499
99.4287588751022
99.4403357609916
99.2818509718896
99.2903892644726
99.4520053296305
99.7671688883629
100.096552166192
100.086516167918
99.874423453143
99.7498789154872
99.8599179163899
100.208592770201
100.147076238471
100.301883233077
100.392456649792
99.8778939398677
99.4822836702051
99.6873923003663
99.6964910794045
99.2560998084636
99.0137059610015
99.2081911317197
99.2733161267029
99.1208952704079
99.0531054069914
99.1631305320914
99.0134830632957
98.7517989340058
98.6642801636436
98.7037525809775
98.6084331949948
98.4636308498947
98.4629474622883
98.391150286684
98.3883764072575
98.4744065663466
98.4108535710338
98.3593924369356
98.3212650088724
98.1996840590285
98.0568474383015
98.0471125967703
98.2616244177164
98.3159383064353
98.1627954679835
98.2056535402291
98.1951966132445
98.2153116389948
98.4328316426681
98.5099145948854
98.4088241289291
98.2909341792243
98.2186097664862
98.255236686954
98.237581694112
98.0921094962105
98.1118856544599
98.2965539036855
98.2419529571622
98.2135635313687
98.3800765002568
98.3523772176246
98.3944974504096
98.5536395346344
98.3695131939852
98.4379413276703
98.7440828237562
98.671714956236
98.4481030970117
98.4737298489231
98.679359363374
98.7218622224672
98.7618976227612
99.0066969753755
99.2278265555569
99.3341991817245
99.2533106669034
99.3049824844247
99.2463441350325
99.505573700592
99.9579733487338
99.7314823404473
99.3644004731031
99.6024692403989
100.003798857623
100.21192281312
100.07048327687
99.9679216357858
99.8410131985208
99.5328632402848
99.3967310171585
99.5726018183341
99.4157745851677
99.2327373577806
99.5081195051774
99.9241604060188
99.768710190218
99.4224827433378
99.2895449689939
99.4097912122402
99.6748464142948
99.6660260409465
99.2965488737802
99.2057068083591
99.3313864700545
99.4886094649007
99.3008610032401
99.0515957297602
99.0918419233499
99.4419789931687
99.6584645456799
99.7891291763557
99.8363121659966
99.8560838733674
99.9256384368707
99.716201683038
99.4883235330446
99.7490770641948
99.9457181621099
99.9377882469116
99.7411255508515
99.5172316929129
99.4464297161893
99.3745019767309
99.2319550126395
99.1994454750529
99.1550855159823
99.1746375039855
99.1958460473606
99.107833672495
98.8579663795114
98.7105878374597
98.7694232812626
98.8643163415753
98.9068359454836
98.8392061465297
98.8113822181066
98.8675351447897
98.8029599905845
98.6456325142986
98.5843983704242
98.5172180518376
98.5829564341992
98.7427123345422
98.7346924231097
98.7251343374083
98.6788755678309
98.5942668831078
98.5614210763417
98.5632770037155
98.5914313370215
98.6168562550173
98.6108560258733
98.6388590901623
98.6305745342854
98.6424840449139
98.6407373112206
98.577213283111
98.4620222585573
98.4460387047265
98.4770977455047
98.4364083402326
98.4273115815232
98.4505401144524
98.4439055141457
98.4148083604194
98.423096082234
98.469593442121
98.4807176699453
98.5213665099045
98.4827815564874
98.4549586186978
98.4962770617175
98.5147280694361
98.4960714114613
98.5047666293539
98.469487907938
98.3954663635239
98.3632642188643
98.4132786212044
98.400917382021
98.3484710562685
98.3539076498832
98.3546890242928
98.3660212616817
98.3823604367194
98.4158937013851
98.4001255382897
98.3540837265864
98.3596347584395
98.3732577164597
98.3579057372243
98.375066745457
98.3672832895184
98.4335367891237
98.4542780130143
98.4316782826006
98.4259697938132
98.4300153609611
98.4249224223243
98.4050488644226
98.3637504309978
98.3159828251037
98.3450461581109
98.3774643365047
98.3173002912681
98.2320274314907
98.2828389384358
98.3544581419439
98.3026348773584
98.2322743110381
98.2127490349115
98.2552060446647
98.2663273983048
98.2837561071858
98.2496289013133
98.1884959888954
98.1484604513136
98.1849609853134
98.1655987279971
98.1306413576143
98.0820962215221
98.0503905204722
98.0375040522309
97.6732218204487
96.6575795398155
95.5238826387753
95.5871424075585
96.3544301341288
96.9524309223105
97.3629153369719
97.5845165388914
97.6333373977017
97.6699608243757
97.7223421381831
97.7576268681031
97.7972548441566
97.8077075942815
97.8295488255397
97.832125447754
97.8316997461
97.8168816088715
97.6645643912381
97.6634022783268
97.6875065142722
97.7149498176223
97.639586238467
97.6059345971267
97.6217284228934
97.6155326341148
97.489651739845
97.3707445854963
97.3362192295116
97.3333410968839
97.3252112411353
97.2049266960822
97.0757449704471
97.0266653379794
96.9933108111163
96.96259690978
96.7139983754767
96.6424802757231
96.5437141777966
96.4398412163198
96.3722740389775
96.2193088864299
96.1011580229191
95.9860625571894
95.7699252842567
95.4992139268143
95.501341985941
95.3959522180316
95.3188106675593
95.1809044436503
95.0686426150948
94.9463592162183
94.823112768409
94.8039493767614
94.7877996474063
94.7059973636369
94.5568318677537
94.4448325986764
94.3909866015292
94.2939110463134
94.1165174135701
93.7326800613906
93.5502101976798
93.386317699477
93.0196459211887
92.5855449389329
92.220988071086
91.8244204173468
91.3908878469017
90.9737775528598
90.6686591199307
90.8452470524935
91.2511361119156
91.5008248345857
91.7494640381284
91.9942284387024
92.1729802286335
92.3314229417452
92.6019358128314
92.7420696377585
92.7632053471164
92.9347972058111
93.1706411926675
93.2690684275447
93.3505171348763
93.442197677571
93.5254863267479
93.6379361858373
93.7524845265836
93.8570612206264
93.9310556617296
93.9867322937532
93.9976188728429
94.0538798421085
94.1244241712128
94.193457529826
94.263638830053
94.3239795448562
94.3674235748837
94.4399151840581
94.5024286647404
94.5370441764025
94.5169157439395
94.665619903465
94.8170553919158
94.8322507630405
94.8388993719701
94.9331261309093
95.0406950590391
95.1720096482383
95.2483115877204
95.1221287660578
95.1260487631591
95.4017298241619
95.5413775171267
95.6463551505045
95.7105334110781
95.7411143089612
95.8623094612877
95.9115044432941
95.9493794402888
95.9111884440882
95.9866183401999
96.1810682944602
96.2751673517054
96.2271125774107
96.2762134685812
96.3443994229165
96.313217701004
96.3122494888976
96.3361119038418
96.3726475235068
96.3220200896874
96.3808759541918
96.3224763930836
96.3065336591886
96.3659019150287
96.3674788403747
96.3458784445607
96.186121040615
96.0822219654368
96.2074247943373
96.287219485383
96.2987390807961
96.2093625176478
96.104283551929
96.1322812530266
96.1801148301542
96.0872038124973
95.9647241934158
95.9400985679568
95.9529145324172
95.9692651692762
95.9160990494828
95.8518555347493
95.7864686771544
95.6305003063206
95.4679659228866
95.3047789789812
95.2865375733679
95.2195754917786
95.0183457997601
94.7951123958026
94.6483355373707
94.5291854434379
94.3095077081151
94.0141092115404
93.7822581132947
93.6840797518149
93.3415243234177
92.8347500208322
92.1412161121395
91.4729440754925
90.9056095458598
90.3807715380501
89.876123780129
89.4285499326149
88.8063133447004
88.0774618656773
87.4338517139908
87.0550035525794
87.1932227554919
87.2972810062019
87.0504934280164
86.5897566885961
86.1399153052981
85.6212625644375
84.9861601313695
84.5097641294472
83.9925757778919
83.4556364338184
82.9301614338144
82.3978750963439
81.8172519050818
81.2314539513355
80.6859546091938
80.1758800522718
79.5673179646905
78.9622402644204
78.3691033497969
77.6931235573298
77.0604185449721
76.3705233286954
75.5507614956364
74.6519008613238
73.7979539928813
72.8748318802888
71.9143593739517
71.0354435057764
70.2206156661968
69.5246108361233
69.1214746183309
69.08368144351
69.1366522119235
69.2798701013786
69.475569125761
69.6347819676463
69.8670717215869
70.2029232848808
70.4385244629106
70.6022134422643
70.7590478373279
70.947175897855
71.1292624155319
71.3325173912051
71.5734240784423
71.8504154829005
72.1319693482399
72.3959422246211
72.6561324680702
73.0105896172029
73.388452261278
73.7203619955343
74.0090191853906
74.2984801794417
74.5811822516338
74.8822584333705
75.1822684049378
75.4878248542807
75.8002153431047
76.104445822924
76.4106686965476
76.7173154039682
77.0014919876105
77.2835792211432
77.5441874185341
77.8250199730879
78.1019285742602
78.3495893451877
78.595433373291
78.8365488494611
79.0700272207694
79.3268455981607
79.5752453332188
79.8137758014894
80.0511295873066
80.2864830851419
80.5118729535906
80.7373544165409
80.9474226933966
81.1638653683965
81.3737851306488
81.5844925395966
81.7896073771539
81.9836323845065
82.1691266029632
82.3576849920319
82.530502461243
82.6827584682297
82.8373475915772
83.0191523841139
83.1722941562537
83.3130949739025
83.4816440288685
83.6363431838308
83.7684873074646
83.9244766726945
84.0698826994561
84.1938066342166
84.3265807264978
84.4691811628832
84.599241935516
84.7514850156682
84.9123546603386
85.0534360365491
85.1749993145495
85.2716259578647
85.3563774002763
85.4526815867376
85.5423564716889
85.6353147334615
85.7258774184546
85.773704441332
85.7723463865734
85.755844279056
85.7223241979449
85.6589074014936
85.5497072889077
85.3784432058184
85.1505438440839
84.9153924661784
84.6320614346017
84.2691510049261
83.8356115642016
83.3752916599089
82.9059210070545
82.4329195113529
81.9910392682752
81.6272938403384
81.3897504169197
81.3274731589152
81.445048885394
81.7156290048088
82.0402464296431
82.3360838435295
82.5777726701116
82.7112121908577
82.6803031595269
82.5677106734491
82.376863914893
82.0995421223459
81.7488116333324
81.3630772466582
80.9637161251211
80.5352739667941
80.0585745386928
79.5919730377319
79.1314346188257
78.6726652209158
78.2456761120987
77.8366370906102
77.4109453558659
76.9819224168794
76.5229556721548
76.0252020565879
75.5078211561387
75.0180833822124
74.5978603998178
74.3194738224705
74.1715097120801
74.1306988308392
74.1167591117099
73.9927013680699
73.6546309320996
73.1677016532043
72.6649416307689
72.3042814743167
72.126431365864
72.0635852649211
72.0643061373488
72.1052885894892
72.127699804842
72.1220333190288
72.077145172894
72.0224913575365
71.9567796527269
71.858587309158
71.7010808487949
71.5325929196306
71.3875141963565
71.2622099981782
71.1667818313942
71.1567522867506
71.2176208318877
71.372471617472
71.6145976699453
71.8852074041285
72.1549449230284
72.5184312475415
72.9349638507785
73.3685543105141
73.8243102542955
74.3030811587263
74.7885656628971
75.3110794337329
75.8476496151649
76.3973969175275
76.9042516879734
77.3843612383395
77.8719330511776
78.3810929483941
78.8675150238503
79.3063615802492
79.6620514408063
79.859966899801
80.1102421934394
80.5911707101208
81.0719155079058
81.4799265163739
81.8494026754039
82.2115272450954
82.5428018495986
82.8767051459822
83.1853313821809
83.4770880917869
83.7822821060797
84.0526610117381
84.2885496559026
84.5288713960634
84.7819741137771
85.0332875172309
85.2446307403035
85.4586633169563
85.6374399427378
85.8003392486754
85.9636747196445
86.0976265056286
86.1914890473691
86.2618599359291
86.277000599226
86.2550390614933
86.3094297964946
86.4718578013106
86.6711412391577
86.8672194185537
87.0633012061646
87.2579078843732
87.4251625037067
87.5701239916497
87.6932164098165
87.7245401555642
87.6469421434806
87.6672189493493
87.8587174694681
88.1012453567891
88.3019378176282
88.4535296694313
88.5967196711717
88.7257812746815
88.8438893531916
88.9612533705214
89.0470755713307
89.1714019932916
89.2845480326704
89.3496417546502
89.4170159060188
89.5131379138617
89.603973912366
89.6911785588277
89.7486134163395
89.8052649658976
89.8808141184518
89.9917643109633
90.0659759522726
90.1071294976291
90.1559122843851
90.2243981452218
90.287307860919
90.321237719921
90.3612295687529
90.4448903683783
90.5181304564799
90.5675420530641
90.6047744131893
90.6630406710844
90.7402946581615
90.7917062585286
90.814075392069
90.8476835546946
90.8806301201175
90.9275770661952
90.9890488298283
91.0459689267649
91.0863962453725
91.1340952020765
91.1456643883702
91.1432814003527
91.1801213674655
91.2263509199405
91.2270689596855
91.2682540683413
91.3326926780604
91.3494340466831
91.3682862557715
91.3940501799247
91.358069959467
91.3338005010218
91.346724567723
91.3941956873978
91.4265103961022
91.4260199947335
91.4038028734358
91.4007874680275
91.3998105809973
91.4202699156547
91.4066123261661
91.3377462634766
91.3450167175629
91.387708902439
91.343002897897
91.3028917420561
91.2976507229739
91.284564893672
91.2156226728004
91.1421757250507
91.130755367953
91.1165982056517
91.0423639577846
90.9916156756786
90.9208907565067
90.7491685666312
90.4792899297148
89.9750663913665
88.4827338967689
84.702627352155
79.1694280514355
76.0983542312595
77.973925355245
81.9732799800264
85.0961897763108
86.9705498845825
88.0265683722216
88.5124137621914
88.6352667405254
88.875329775254
89.1893939349484
89.3553157464473
89.4068839067783
89.4357042890443
89.4339386526037
89.3899620667466
89.3413404862949
89.3245450893217
89.2679349991749
89.2223808833375
89.194594719607
89.1305892338292
89.0688189484661
88.9790178917279
88.8913086870678
88.8008775245866
88.676634647116
88.5316559588732
88.3772546059138
88.2592856243516
88.1085458698506
87.9209558386469
87.7105824786882
87.4773672179926
87.2201747520893
86.9378045056532
86.7041931267881
86.5340212762778
86.2947676927889
86.1323707347101
86.0644982162713
85.96026170263
85.8739820202012
85.8931001185291
85.9709406472887
86.0687751818414
86.1075937969457
86.1718264426627
86.2750664016347
86.3483591312922
86.4228561124076
86.5186134847231
86.6001904837352
86.6721443226064
86.7001129418108
86.7920247333592
86.8454609769985
86.866999779353
86.8706713869557
86.7614577427823
86.6782105560949
86.7798407401076
86.8963190280898
86.9250081046278
86.9195135488183
86.9312981720956
86.9320906291665
86.9707691332062
86.9926248199862
86.9340878254007
86.8687246472413
86.8942690473518
86.8771993251152
86.8988096345541
86.8774491911848
86.8177690835072
86.7677073947966
86.7079530213632
86.6247014196754
86.5237312413899
86.396661612393
86.247465735007
86.0469135196629
85.7468671807854
85.3846929291306
85.3559472133878
85.1051420913965
84.4462073360838
83.446580174206
81.9819165918945
80.4273802651497
79.6882397608188
80.2589546430129
81.4126425953975
82.3595571523198
