1798
3999.43349933624
650.420452594757
1
128
4
94.4110894111303
94.3739805325148
94.4519725904821
94.5776981622753
94.536241414146
94.5016757356197
94.4090643501531
94.315729267637
94.3554637951956
94.519274570211
94.7185267267104
94.7050607366156
94.4287388845905
94.4315182452551
94.6510278197619
94.6527358065431
94.5821508233155
94.5442404979655
94.5809871968474
94.6165074020972
94.6376831045473
94.4238834911717
94.3396968106457
94.4496478964217
94.5535571135648
94.6612088412034
94.9116157751884
94.7231061686125
94.4740956315755
94.4100140141036
94.3333394124241
94.5431463855432
94.6846804831575
94.5856978430782
94.5291452899731
94.3708671885797
94.2461639414131
94.5143407779324
94.5527357542918
94.458831112878
94.6919628593381
94.9375646129414
94.6387306627413
94.5109059339623
94.545115374032
94.4525446236506
94.5660187231562
94.7334448336348
94.6070170688834
94.750456400244
94.8355601941812
94.4248320537697
94.4042129626021
94.76408140011
94.7815723853714
94.6459626018947
94.7018536426311
94.6735348831556
94.5605221495038
94.7720682230596
94.9271511182363
94.8629771033757
94.6164552069895
94.4425629891411
94.5215550339568
94.7342907446454
94.6970102246938
94.5481408931882
94.5573479347655
94.713485325095
94.626199722509
94.5869890424157
94.6440023119022
94.5813324799149
94.5119801021257
94.4770558043641
94.3458557331103
94.2064304897744
94.0591845304454
94.0682405103843
94.4509869641306
94.7063283310327
94.8349267283007
94.9651209441025
94.845253285081
94.6846452726715
94.4345711466223
94.4072113195528
94.7402409875459
94.8894494465671
94.7831531903644
94.6759418015468
94.819806113197
94.9729608175887
94.9003098503475
94.8007196081012
94.7142954678099
94.6410243583001
94.5313655288987
94.5528199466992
94.7358168923882
94.8319277653398
94.826536319071
94.7939020090891
94.7631567738901
94.8557192400415
94.8664161860072
94.7048737042065
94.6798035592613
94.7909814600326
94.7545804796573
94.7203921199629
94.7324305979231
94.8623916922609
95.0054446621862
94.9922298011565
94.8964295171945
94.888910755355
94.8911552071862
94.7817844290427
94.8341023679578
94.9205241909981
94.8848178787413
94.8357275385439
94.8468031856811
94.9107137988574
94.9287643268816
94.9750686030819
94.9586976697053
94.9195286423139
95.0005959915692
95.0281156210577
95.0651981544558
95.0300630055803
94.8681291993257
94.7932898833244
94.8214404335194
94.7572066893761
94.6988731659629
94.8066388873731
94.8947070066862
94.9768789866736
94.9196317276715
94.8719000418469
94.9684501894706
95.0835139275954
95.1028378161498
95.0105280009932
94.9314203170741
94.9377914250849
95.0233732951451
95.1336138360091
95.1247886225376
95.0233363666057
94.9563068887649
94.9392811557253
95.0057437127099
95.0465603473807
95.0296400972984
95.0355584034226
94.9841382945906
94.9780991928262
95.094826217716
95.159887978792
95.2532494809634
95.2611444348412
94.9187636014001
94.7353467368176
94.9046636626086
95.0629118173019
95.1585256290754
95.2657144884731
95.2815091557917
95.0008170998408
94.7535182752714
94.7034108698556
94.7087304801964
94.5801512469108
94.5712205142679
94.7086210976426
94.7578655069299
94.7611697759501
94.8768939804205
94.9252315243882
94.8534942538684
94.8305829767361
94.7723911704331
94.5785389583249
94.3325984649655
94.0871972325904
93.9913299408766
94.2360660555858
94.3709219646426
94.2653052559436
94.2869395958749
94.3171106727399
94.2186160604939
94.1551949765883
94.0932805210711
93.8296883535197
93.7630050691237
93.9482121537102
93.9532128452904
93.7926675145691
93.668900297289
93.6047685738404
93.5264711782116
93.3602773561517
93.2227292477674
93.1956472906063
93.052026826529
92.9847641646717
93.0426633903904
93.0708603986426
93.1021862472711
93.0536059071498
92.8795195029887
92.7596709655473
92.6286362985419
92.5876037485504
92.628263723353
92.553785676772
92.4096334160352
92.2982140579651
92.2116639950889
92.1516159754778
92.175437512053
92.0705773591097
91.9318041030905
92.007387862817
92.0157017725847
91.7793782127143
91.51536736551
91.5084968412912
91.6091131195891
91.4968651896253
91.3481946775272
91.2949845864428
91.2705071230057
91.2059685430753
91.0807046492763
90.9947875980384
90.9114656330301
90.834663513411
90.7549264544696
90.6136062069081
90.5297367798077
90.4795025829085
90.3901114928285
90.2990302869421
90.2943699424462
90.2324190364216
90.105198888343
90.059317697113
89.921379426299
89.7595576687442
89.644432301838
89.6004649429713
89.6068961609553
89.6215031637773
89.5986388895651
89.4786596089313
89.3316355211408
89.262721609345
89.2108342013594
89.0659871123392
88.8990395311595
88.8704317276567
88.8351549052789
88.694969501952
88.6723640226832
88.7954854876751
88.7461000000126
88.4988754723393
88.3383006148256
88.3187760323075
88.2690148614258
88.2405855845735
88.1458973716758
88.0600915678929
88.0649133870707
88.0087524143759
87.9367134080179
87.871186771012
87.6941164197195
87.566258238111
87.5372136228078
87.468581577427
87.3496588059163
87.212043998685
87.1860402152895
87.1957162637574
87.1352258257658
87.1325629592773
87.1359772192909
87.0888668978486
87.0289123102911
86.9348167598021
86.911306564982
86.8942015971042
86.6826731918288
86.5249208822142
86.4961551752661
86.4354197146603
86.4199931393469
86.4547680962142
86.363186258942
86.2624659498162
86.2719315159449
86.2057588416776
86.1076826019131
85.9512994802301
85.9175561961085
85.9291259692628
85.8623207782072
85.8438678682875
85.8045075359382
85.7330086847931
85.6561609577663
85.5304400682094
85.4153587104836
85.4455775902634
85.4368311916152
85.3787294802231
85.3232566268103
85.2716049931584
85.2592597512252
85.2467593201919
85.2002382895262
85.1843623922495
85.1791138764509
85.020620183197
84.8781207670335
84.8823783509407
84.848596600147
84.7945974150786
84.7808997198016
84.73302187555
84.7037122640217
84.7043345956126
84.7382967959898
84.7628047621056
84.618319169665
84.4737094593423
84.4781975274201
84.4891243983064
84.475875343975
84.3693497646097
84.323902455744
84.3237861945675
84.2921226050826
84.3250973530742
84.3824795386897
84.3696708018172
84.3125216751928
84.1410419786073
84.0778136603564
84.1312643031064
84.0751158562205
84.0731046352654
84.1190862819226
84.0773839247908
84.0221721848819
83.9788386700764
83.9381825052057
83.8953619194844
83.937042395554
83.974888331293
83.8709024091049
83.8259189253748
83.8866280334383
83.9332180064656
83.8877080824804
83.7973911214678
83.7173190244758
83.7234521053205
83.7480881087073
83.697433369666
83.6780475423198
83.6505169165225
83.5597994247694
83.5050763094821
83.4339692699123
83.4018856374307
83.4087338710665
83.4230834369911
83.4581620422478
83.4532816232435
83.388562858013
83.4606108644468
83.4786946546041
83.436265589097
83.4656301482931
83.3870989106114
83.2975106581881
83.3051476270617
83.3512266499385
83.3978639356155
83.4123656802952
83.4018832119211
83.3561066813692
83.2819079193086
83.3125057717554
83.4378449525277
83.4450610410415
83.4256715061683
83.4545572349041
83.4506765589379
83.4032060651845
83.4034822479122
83.4984902813939
83.4920436443717
83.423302069807
83.4148615329315
83.42119471625
83.4643425537225
83.4994535955094
83.4696245332952
83.442374149999
83.4968090866105
83.5012833505059
83.4563051436176
83.4724744673946
83.5277522576444
83.504567822785
83.5084817318259
83.540960063174
83.5896119808702
83.6242690822846
83.6035748160845
83.6522127416238
83.7160967777645
83.6682069751586
83.6290966404581
83.6737877768579
83.7429094667314
83.8263396920681
83.8530046368884
83.828029933309
83.8554368019121
83.957067819265
83.9955740763387
83.9086581286709
83.8737761025193
83.9595471636492
84.0260525713279
84.0211490034758
84.071347500421
84.0790072411697
84.0473895203696
84.0461066122949
84.1174109975264
84.2808717653525
84.3707764242775
84.4288641512568
84.4761164939204
84.4825742987206
84.5238747384449
84.5173508804527
84.5157987689838
84.5662484090529
84.6273506672341
84.6634023384178
84.6604613222154
84.6572530727755
84.703692581774
84.7823478407829
84.796183281043
84.7568350531464
84.7958932212821
84.8559920622733
84.9448539683882
85.0903972746832
85.2008397479678
85.2105134320537
85.1403963883771
85.1128810687166
85.2069635434749
85.2574628796875
85.2504491952027
85.2116244259874
85.1936969030518
85.2020665376634
85.2318154441569
85.309395483661
85.3318461013633
85.3624976411163
85.4584213688037
85.4496360307432
85.4363256732021
85.528767027425
85.5983100245566
85.6088288183004
85.670963634882
85.7543265931881
85.7622319189495
85.743066522206
85.7064970259325
85.6244878913768
85.7009094407208
85.887330011925
85.9316174620441
85.9535036098884
85.9709194254529
85.9241651838116
85.9320255386184
86.0100097102192
86.1155973771033
86.1764290354215
86.20710798826
86.2388169909786
86.2738742511819
86.2805609634542
86.360807648082
86.4323097769911
86.4282905641339
86.4410121831428
86.5220745904288
86.6131518753952
86.6674194188651
86.6251612152561
86.5938129697185
86.6571658759448
86.7919464909235
86.8919290494458
86.9000581110132
86.8912949271166
86.9365932303921
86.984471904204
87.0530211568361
87.0395690813969
86.9978196327959
87.009834046116
86.9763538954911
86.9871762728628
87.1089242441438
87.136474036249
87.1110631360715
87.1452227684946
87.1927801380045
87.1566119069711
87.0924825811349
87.0660452731457
87.0397714970777
86.9720593848683
86.9538884927867
86.8670911284936
86.7722034256093
86.8134430357045
86.795753792838
86.657803942419
86.5558117783088
86.4369646239703
86.3618677088006
86.3578497467153
86.3437465589364
86.2447998628875
86.1623369019046
86.0761877542785
86.0110952284844
86.0086188768376
85.9963377127651
85.9407037193446
85.8945635506341
85.8435441276857
85.8210156588182
85.8111420535981
85.7373880446214
85.6156820510124
85.534239051121
85.3986995379673
85.3051571615663
85.3029159963381
85.261895651953
85.2077783358234
85.2240409518759
85.2256560136861
85.2292594361923
85.2387511621524
85.2582216977638
85.3131110118796
85.4434967433102
85.5862555907532
85.6689437810714
85.6819166448527
85.7859695831477
85.9739299759282
86.0560820565345
86.0874484431145
86.1297399861918
86.1791205324487
86.285081346511
86.3810263785844
86.4439528377403
86.4701809248725
86.4815827918079
86.5105484605401
86.5541636862074
86.6130028627144
86.6773602502045
86.6778462206227
86.6319258753504
86.577002746473
86.6115681657719
86.6731549304764
86.6670105186603
86.6758859022017
86.7649184342333
86.8021017954294
86.8174987005788
86.8602440903259
86.9118974184302
86.9559738886735
87.0034993877832
86.9782785997822
86.958605778119
87.0345429353773
87.1246068592165
87.1914328086812
87.3113310468644
87.4198559261432
87.5289835623622
87.6345394489825
87.6952215871103
87.812742114851
87.9639616513083
87.9961359642241
88.0291703098846
88.0986423722468
88.116316245226
88.1242377990683
88.2039677712754
88.2788786998437
88.3276648272889
88.3335969414352
88.3401886479605
88.4073525513399
88.5075805873764
88.5917153696048
88.6433997543127
88.6246028034421
88.6528911517822
88.6952326674171
88.7195617650265
88.7672056907761
88.8186924341213
88.862357040154
88.91174716952
88.9470170310872
88.983385036141
89.0114532131757
89.0350587742659
89.042955081327
89.0886044606873
89.1100262523458
89.1015616084445
89.1514209032974
89.2131518700928
89.2306664161528
89.2723650309941
89.2945719406326
89.3093473975906
89.3181461813112
89.3305755004907
89.3696276136205
89.3989843054475
89.4377856387225
89.4796771015047
89.4765510190967
89.5141700629347
89.5455563102313
89.5526375557899
89.5318026776666
89.5415086493754
89.6167323936025
89.675589322334
89.6639408346413
89.6644232165781
89.6739188308898
89.6995765714152
89.7234191993136
89.7270368098636
89.7281317330633
89.8150480383113
89.8773192586849
89.8527530719535
89.833012846459
89.8272800014935
89.8232160174115
89.8900296522561
89.9274313366636
89.9309272145067
89.9611477460359
89.955810211344
89.9216861017622
89.9577198299827
90.0101671278227
90.0261880628162
90.0408500581481
90.0827549786007
90.077336870023
90.0723041660061
90.1031885134932
90.1478002679003
90.1649577682664
90.1846816486128
90.197270851082
90.2182186087649
90.2721188691765
90.3166382512687
90.3138382070813
90.2777810780623
90.2604496363932
90.3034762832556
90.3474880361253
90.3784411429974
90.3643574366295
90.3569881515043
90.3544727205006
90.3453786649882
90.3769506366704
90.4448320656119
90.4498489192584
90.4470611010194
90.4929426673484
90.5318608074209
90.5168256455746
90.5094951468353
90.5155535518445
90.5539743119607
90.6049414063317
90.6401029779575
90.6754985328867
90.7459222354647
90.7995966094082
90.8056627880305
90.7923989461021
90.8300110763635
90.8400415450552
90.8482840348929
90.9033050253655
90.9441144917085
90.9333340770196
90.9341131442476
90.968494502241
91.0404078036852
91.0853812283382
91.0936967434109
91.0930706451467
91.0880683702665
91.0965243369615
91.1562528409782
91.1453263862764
91.1384466274876
91.2384710449028
91.3531243597443
91.3015437899728
91.2678985260042
91.2953371438115
91.2975837171638
91.3404619146098
91.4186694562367
91.4332013092833
91.4477495999879
91.4115378900682
91.382643771262
91.4408072975079
91.5322762144785
91.5453357118061
91.5397600866517
91.5611253416547
91.5658668785508
91.5529730539488
91.5873409768926
91.6115634740182
91.6080357313493
91.5218831318594
91.5271041818998
91.6168978025242
91.6517594555019
91.631863161517
91.6601245846897
91.7256998823999
91.7768876908156
91.7256444803268
91.6851140757363
91.7379562853395
91.7800238161177
91.800447213058
91.8136729116961
91.8014050043942
91.8378808040147
91.8400833290773
91.7715748692417
91.7492050651599
91.820187619323
91.7952588917095
91.7616335365579
91.8336788892977
91.9034584404651
91.9204838956538
91.9537673500552
91.8822802523633
91.8547132596937
91.9197000319383
91.91370259992
91.8813993013889
91.942855086529
92.0007185252482
91.9729994892103
91.903800044293
91.8802236871836
91.9059447234164
91.9344990086108
91.9210911436962
91.9346180650019
91.9315148841702
91.9238803897192
91.948263273932
91.9741385806595
91.9988990750913
92.0380492066004
92.0070776038823
92.0047789626018
92.0352157696482
92.0655951025733
92.0491786089006
92.0436967703503
92.0597550434337
92.0485033369838
92.0495831745346
92.0926791354493
92.1121659154608
92.2268046509323
92.2541880933659
92.139716532908
92.1435936331692
92.2375221695809
92.2197944325101
92.199647474835
92.2458857912261
92.2539765473031
92.2195915280107
92.2259256148857
92.2397110591839
92.2063274047484
92.185990468309
92.2056451551435
92.1710848217268
92.2038432722163
92.2598684730238
92.2636311224048
92.245527985427
92.2760204269768
92.3078829632053
92.2997892405968
92.3141868232005
92.3110206944732
92.3039864101915
92.2949485740494
92.2234420928112
92.2141627969773
92.2299449700594
92.2440033755226
92.2736843779261
92.3030400682009
92.2750260680093
92.2563691091975
92.3056038390627
92.3962521298076
92.4140684007399
92.3531341267114
92.3656443141225
92.4768274555508
92.5543871289234
92.5601193674559
92.5521512320041
92.5388431261614
92.5114233132354
92.4984961257558
92.5153097221928
92.5372437494817
92.4808125458961
92.456216817724
92.3976641560342
92.3472276416136
92.3791291601268
92.3898497387241
92.3398147347077
92.4045979159663
92.4780100733855
92.4383628218525
92.405387641958
92.4151304424598
92.3527119880673
92.3011063242005
92.34934332926
92.3830512366606
92.3130580068378
92.2027095481446
92.1855866838387
92.2687613479041
92.3118064486704
92.3673293948085
92.4184714362859
92.4452909717669
92.4943330434139
92.5238278091667
92.5094345918307
92.5050196557842
92.5151260919674
92.5435487928114
92.5804700111277
92.611242286868
92.6489206086828
92.6350333155724
92.5839685062595
92.6995490406466
92.7886907400385
92.759305498262
92.7559934545658
92.8543506675126
92.9186896132308
93.0121259361234
93.1333828537144
93.1846739286942
93.3338206809128
93.4946442776904
93.4948946461174
93.5459263336059
93.566369744361
93.5734662422016
93.5942100476561
93.6203714827041
93.640091941839
93.5901115456135
93.7337580307082
93.9648805571509
93.9320334458868
93.9326387737914
94.0129495808042
94.0254892752755
94.0436848105025
94.0437841238034
94.143379753247
94.3243045072076
94.2696649764001
94.2449304111011
94.2950109612931
94.3925308274485
94.5546854683928
94.5733774993599
94.4803967919686
94.6263192075008
94.7226978536862
94.5780071652298
94.5955912808691
94.7556451860663
94.7141898962998
94.7868850455012
95.0170143191693
95.0812169431253
95.0008369888544
95.1187810284544
95.3399072944258
95.3460864779023
95.1412476470985
95.3165400585012
95.817190199868
95.8432921109695
95.4335692097306
95.6847566001291
96.2204345275961
96.2088593698217
96.0689697786713
96.1826577493758
96.0957633457486
95.7705399760884
95.8502200052087
96.4137497963776
96.5752709541791
96.306236921559
96.3739226963187
96.8525386152733
97.2381631363938
97.3926575403284
97.4734850066882
97.8061129548445
97.7000029186344
97.1844043583463
97.0448191905916
97.0123132771644
96.7754909805013
96.7301515131232
96.6074600051959
96.1743461585236
95.8225041894668
95.6650970661214
95.416309403965
95.3659428985684
95.5003998529433
95.3271348517718
94.9569081869211
94.8910625171379
94.926118446104
94.8216191953994
94.6753702441657
94.6486357173667
94.5094108895523
94.2945256774269
94.3339234617006
94.4562046458645
94.4210427011297
94.3406544684583
94.363392855945
94.4764601061067
94.5649257913938
94.5990974883377
94.5339133639557
94.4916911651763
94.5723298065604
94.7403999165668
94.8103341463167
94.9095099205554
94.9619719811939
94.7212139225172
94.5900355732148
94.6905742967047
94.7151915698703
94.7448867597927
94.8589918854077
94.9680930245378
94.9698273803358
94.980864516003
95.0127821291494
95.078418311531
95.0988054429721
95.2427523772048
95.4455990959169
95.4396120336497
95.4468492375987
95.6409666689166
95.9591953579364
96.2566425592734
96.134827514848
95.8108206678815
95.9791332853705
96.445754481421
96.7864051139949
97.0899858130563
97.1515896991303
97.325509261323
97.6724420420292
97.775615142838
97.738666312553
97.3410100883011
97.1603002460429
97.5183001138239
97.8269852249829
97.5947721832495
97.4408579485451
97.8308464260896
97.9834590975399
97.7816157612955
97.4446129958777
97.2373516734305
97.3304334582861
97.4133056611316
97.5038324280469
97.5911797710802
97.241501747104
97.0093162689879
96.9482887855954
96.6758555634281
96.5393093905525
96.750070561723
96.9514279519655
96.8310657390148
96.7620921412559
96.8059465955996
96.877828356641
97.144286467468
97.1694744681799
97.2654271673055
97.6252258180075
97.81075661512
97.8184751877242
97.6675825555364
97.3454387917734
97.0991225924809
96.9915520165547
97.0431121441993
97.0463653765322
96.9084059201225
96.7643737908147
96.5568156625923
96.346744380343
96.3127458336351
96.2648770704961
95.9998549306474
95.7438702425585
95.8744306026657
96.0101712243858
95.96540369526
95.8035348023409
95.6447011968425
95.5648114088888
95.5411330867344
95.4525076147309
95.3510456882984
95.3090410024365
95.2429702090781
95.1975699731608
95.2990768515039
95.1688075838369
95.0656726689765
95.1512407603102
95.1147317432433
95.0984272983047
95.0723358963724
95.0083448562936
94.9982772090486
94.9526040499336
94.8899587556137
94.8728653227455
94.8507489348091
94.8618604030392
94.8895499280113
94.8023184221352
94.7383478566526
94.7441933745292
94.7631321694564
94.6797831239448
94.6528421117411
94.6599184559555
94.6577136338364
94.6602748945348
94.6076448223478
94.5135832437754
94.5470087138991
94.6677558478366
94.7148244899526
94.6238313325264
94.5534088714534
94.5589509339835
94.611818166379
94.6329727393466
94.5907322187286
94.532125261791
94.4965925465015
94.5113003943354
94.6240489626548
94.6661816498395
94.633416711911
94.558556404936
94.6171410774726
94.6353000753884
94.5396491228867
94.5320215823652
94.5327749467611
94.5209527956007
94.5188289193757
94.5373569198916
94.5868801480156
94.5201773959264
94.4958838930119
94.5310459300774
94.4925960173759
94.5420927443119
94.5514857161646
94.5335805185417
94.5762927438792
94.6381224272043
94.624597460252
94.5601022202588
94.5491762610014
94.5510138015308
94.5568572262391
94.5866013447969
94.5589688138092
94.5198965249159
94.5339854513445
94.5606340708354
94.5778627243037
94.526634915548
94.4598733177395
94.4715774820891
94.4954867189853
94.4842617323619
94.4512384520993
94.4480271495221
94.4362714371477
94.5019685028974
94.4312817840014
94.3710829655262
94.2177497804
94.2541839273711
94.2599606061375
94.194939887086
94.1741799632045
94.0836212893498
93.998682145563
94.0385317186053
93.9527713434923
93.8510748596466
93.8204540265652
93.6474848634715
93.5096391600387
93.4128563525206
93.3151653135519
93.2080982895323
93.1466790790674
93.0997178949341
92.9836332918254
93.0092391802216
92.7913770581839
92.5839132482798
92.634336336061
92.5317268952989
92.4656628392183
92.4059481291015
92.3261602266819
92.1952720054554
92.0160194924066
91.6211368410584
91.3287933105672
91.1446887675731
91.0184100575842
90.8179303813891
90.5616287729501
90.3121561178304
89.9588232354218
89.7559074567154
89.4052415805964
88.7088098630218
88.4952467924137
87.9208782151931
87.6109513269925
87.406468026759
87.0138203035664
86.5886473920333
86.2594087783357
85.5563865676417
84.9916554804931
84.7692166139395
84.3916914897046
84.1048495917036
83.5607506535829
83.1551846196974
82.7822492384131
82.2603628794579
81.8695676699033
81.6380091154116
81.2723064566069
80.8587282748824
80.6409983110591
80.3637120355858
80.0072867642054
79.6013261716146
78.9879321171841
78.998020237396
78.868696056296
78.4131684013446
78.2021243635354
78.2106502897236
78.0873674768914
77.8893036144894
77.6419723598286
77.2487651612633
77.1270996814358
77.2047450238315
77.0692346941834
76.8421576690597
76.6408677315556
76.4994600836072
76.2695236546581
76.2191610132558
76.0937276638228
75.7817235771968
75.5632439356266
75.5703304814781
75.3886353979411
75.1586347833783
74.9289700989137
74.7692551912153
74.5845105142782
74.3307165876168
74.0698009256369
73.8909268264148
73.7012107979623
73.4937951927225
73.2989955007732
73.1056892483828
72.8805897154614
72.659812455343
72.4244440105501
72.2068137092493
71.996748420541
71.7371058489214
71.4142929789595
70.9568618282071
70.8324079823277
70.7956668186989
70.4509147315215
70.1400662376273
70.1577925555819
70.0690494029596
69.9942600219948
69.8230303160522
69.2608733127579
69.5536916062286
70.2232010905021
70.3915073304635
70.6911507844228
70.9427405995997
71.3025276352892
71.6450770192262
71.7885522827552
72.0017730928543
72.185251242374
73.0153304700514
74.0168852480092
74.3010889046142
74.375852153063
74.9859418526993
75.4407439793114
75.6641749233039
75.9440150368151
76.2907739492273
76.4345451765726
76.8210164830923
77.4137608747484
77.5806410516973
78.0076980521032
78.3354140390233
78.5179663777251
78.579369710116
78.4319603645349
79.2010622203488
80.1501984496333
80.3547182401352
80.35167478569
80.3932713583472
80.6745974371098
81.1236022427346
81.2932240959463
81.1798781483902
81.3561258431825
81.6895479087443
81.9414446711021
82.0628216810256
82.0788777300427
82.1427433783935
82.0844051089037
81.8793065869562
81.672149261859
81.4520404498979
81.5592671071206
81.4361210166937
81.1023861478683
80.7452413578681
80.6508310107147
80.461988264467
80.0299811556346
79.5149612602756
79.6091725029767
79.7597498731891
79.6218783332265
79.4977942461087
79.3519005250409
79.3752469743522
79.4014890510404
79.3873038740552
79.35641820196
79.2575752441638
79.0388459853606
79.1608197433897
79.2056805686692
79.0240978883258
78.8559339856302
78.7408071401978
78.4804190302075
78.0740704830456
77.7369526229986
77.1879479557271
76.6604476795409
76.388021544138
75.9683668499502
75.4369225937811
74.8220432145829
74.2488184751033
73.679607115466
73.1407733812668
72.7812926583999
72.52610901899
72.2097300662127
72.0994248398702
72.0351548826391
72.0716302788038
72.2167857341085
72.2192044218911
72.1475954817651
72.221394963558
72.4262148458732
72.5210856487285
72.6071467264638
72.7161028500979
72.8187045460118
72.8708726728195
73.0474644532106
73.3086777945681
73.4303283625468
73.5806972578602
73.7849395033475
73.8852857537561
74.0280097327114
74.3299325550282
74.5465136862348
74.6950536671054
74.8566755145147
75.0175130843707
75.1583180023842
75.3122955100967
75.4793536715571
75.6475564670009
75.8135925073214
75.9347679273781
76.0196059020557
76.2377642180949
76.4838693667766
76.6515133154333
76.7575256252071
76.8588370807077
76.9305932683979
76.9826366169047
77.0038081306149
77.0129510886632
76.9949559476735
76.9723366348909
76.9782835536545
76.9756285137285
76.9436309902901
76.9621267968676
76.9953155205366
77.022622629817
77.0912352305591
77.1707586611849
77.2379704419951
77.3564643590444
77.519971067718
77.6838783322986
77.847898814084
78.0050181200093
78.1455755444931
78.2942161465214
78.4431463562341
78.584763463892
78.7107345069627
78.8067630676308
78.8865537352535
78.9808192493116
79.0620753171452
79.1253806257205
79.1744949618318
79.22171921947
79.2654243145072
79.3142292125452
79.3612281123998
79.3840188689357
79.4002336262825
79.4341294772334
79.4720961531863
79.5153123076927
79.5469878352494
79.5983862940696
79.6524852594409
79.6713612323359
79.6920369993226
79.7111772761766
79.7206478711806
79.7425335398991
79.7702189073445
79.8011976211376
79.8346031442609
79.8605115287595
79.9085322079358
79.9800278590201
80.0365452294284
80.0938214383457
80.1767431151828
80.2685245554928
80.3494707353218
80.4594372983685
80.5799155017586
80.6983334797926
80.8277721745283
80.9740880442835
81.1160361423827
81.264758511484
81.395511845936
81.5255256709436
81.6772599765756
81.8493853940439
81.9974188881476
82.1074054982875
82.2040896317059
82.3033456593367
82.4060010791759
82.5190704196141
82.5840256537898
82.6137244794842
82.64812741355
82.6623147256415
82.6299727410158
82.567418010811
82.4821227391665
82.3678948237724
82.2530671841999
82.1506234475842
82.0240596548108
81.8904013938904
81.7593371510567
81.6208266712536
81.4557318615273
81.2822220854351
81.1031567081887
80.9021483699695
80.7072656285409
80.5036626630961
80.280036662078
80.0585858134015
79.8716203284029
79.6587121437901
79.4104663349674
79.212128637339
78.9907070096433
78.7142054504514
78.4422740248579
78.1905116969042
77.9350104467884
77.679061199754
77.4536749863422
77.2481091106197
77.0790307855171
76.9273839246451
76.7571853467351
76.6076720843767
76.4693962862271
76.3514092297232
76.2373550475201
76.1002433572155
75.9196122357053
75.6975953789537
75.4554970341485
75.1840841041846
74.9076609955924
74.636110477221
74.3414184568383
74.0525257813825
73.7645243427126
73.4704324286251
73.2007745012241
72.9436100143006
72.6837882130576
72.4223144473696
72.1656627327292
71.8988050645385
71.6079099871902
71.3259467706299
71.0601974870609
70.8090977559068
70.5517474490032
70.3047212018114
70.044673330389
69.7965531877897
69.5789577936962
69.3764699535281
69.1823083127129
68.9906393351882
68.8266114210567
68.7204687770374
68.6615611468722
68.6326298663929
68.5794679737706
68.504882006393
68.4273813081426
68.3624610277532
68.3124785760235
68.2928647994145
68.2813776753795
68.2873017263489
68.3130474922477
68.3452030910554
68.392406341375
68.4644715192443
68.5634916342102
68.7335500707229
68.917156091908
69.1067104594298
69.3555214224644
69.6447872053314
69.9400053112892
70.2729467176132
70.596209536905
70.8971465414023
71.2071325594225
71.5212627627175
71.792070941064
72.0105614198304
72.1973752058708
72.3827068736283
72.535989816455
72.6469597230608
72.7292885400321
72.7834134832692
72.7878020157753
72.7798823672121
72.7841153505361
72.7916353716991
72.8097438717449
72.8810240245277
73.0090437013299
73.1957680107592
73.4236109498894
73.6954241267487
74.009714262343
74.3396546819941
74.6487497523286
74.9627680235575
75.2876027742827
75.5830168653819
75.8402789256538
76.1150059316666
76.40365762991
76.6802602898387
76.9172618096573
77.1604186963689
77.3964124414981
77.6218793315539
77.8243543526752
78.0240033148625
78.1953242538119
78.3495732271595
78.5164068498385
78.6689058218204
78.7900869728862
78.908560902646
78.9800187322276
79.0310180696606
79.0982756771655
79.1587402547226
79.1980963964363
79.255869895311
79.3228254718538
79.3831421371874
79.442567918675
79.5518655188882
79.6757666426422
79.7839938272567
79.8774796506756
80.0054950298972
80.125725314651
80.2013037482068
80.2692445860504
80.3473774777116
80.4063542874215
80.4063062641161
80.396694171684
80.4084553153926
80.4042309994636
80.394621600666
80.4373668520635
80.4895278633354
80.5000341964693
80.4730109800774
80.4692771363074
80.4526946322628
80.4286162200081
80.4128968797522
80.4113485545202
80.4664355731339
80.4526943621256
80.3937122694272
80.3664055451806
80.366083805847
80.3626117098869
80.3131115408837
80.2141252100057
80.1049621900548
79.9571816814373
79.7937571552489
79.6552815939765
79.474177711652
79.2733486120914
79.0922328324593
78.8508615455532
78.6402429543229
78.5228797786895
78.485934222039
78.4941008512493
78.5571778615055
78.6591906130339
78.7143833867561
78.7460989475482
78.7514896810741
78.6970073795976
78.6645172252539
78.614078274291
78.5397921556803
78.423730938749
78.3022281816856
78.2121007506145
78.1625339132991
78.1218169022518
78.0736906371504
78.0113098370793
78.0128581830526
78.0429168504854
78.0486149240753
78.0101622166394
77.9484747127627
77.8661446587375
77.8055071445177
77.7509251442096
77.6460655646336
77.5887265870078
77.5600505132727
77.5145039921182
77.4716074985071
77.3741131749506
77.2890577829098
77.2634118749968
77.2035865043251
77.1183375341024
77.0852695158974
77.0062922233245
76.931854835162
76.8292421347854
76.7375648113288
76.6658378685867
76.6006035060516
76.5427891140333
76.5072711333931
76.4390182643497
76.3260518960988
76.2895204461638
76.2755232650092
76.1556432088617
76.0832155984896
76.0061041876398
75.9382949009935
75.8973385186571
75.808444089251
75.7170609649572
75.6247466394116
75.5037863397093
75.4449350206674
75.3540289404337
75.2028253902544
75.0640228781422
74.9747916536964
74.8473641298271
74.7371699366625
74.5924351844999
74.4625414426406
74.2941732280828
74.0641081689954
73.85629787221
73.6881569766177
73.4638305983967
73.2824143669843
73.1538063119433
73.0809750750429
73.0592348252821
73.0290646140842
72.9780999206774
72.9178296649577
72.7771067264627
72.6252160412714
72.4803556599604
72.3573905412641
72.2337025578759
72.1473755928925
72.0263596907308
71.9481223171438
71.8464725267288
71.7551323890602
71.5950238360233
71.622040020424
71.5882981863155
71.470638572678
71.4226017184154
71.312684103467
71.1828015480179
71.0671197497084
70.9786940414341
70.9350799271352
70.8784437806999
