1798
3999.43349933624
650.420452594757
1
128
4
96.7653646647839
96.7329717510559
96.8268445497462
96.8197347314623
96.8073410882472
96.7169725376152
96.6992449101882
96.731466344038
96.7916773228363
96.8125583077868
96.8209453225056
96.8174139334636
96.8579591969825
96.8740627498271
96.7874198034649
96.7020683901032
96.7852042581136
96.8167427361989
96.7707418289259
96.7223117429591
96.762716009539
96.6958250242597
96.6702750252282
96.8091510875971
96.9444816596638
96.8616161049882
96.7690942777737
96.7001188236522
96.7833111046252
96.8532315329899
96.8205605128692
96.7903714107877
96.8299192388685
96.8060381557835
96.7466074835097
96.770438665808
96.8847666099773
96.8349902661637
96.7081561056348
96.7154190054561
96.8682114896023
96.8295268059788
96.8011779431521
96.7772828572329
96.7503306083672
96.7644179166764
96.8280708483695
96.8609365843377
96.8325400989041
96.7687470368031
96.6640138928279
96.5341544808104
96.6283943000639
96.7700364264294
96.8850385984498
96.9444555701672
96.8982241336707
96.7930195390473
96.8416686429135
96.7891271140573
96.6832797256021
96.8019359206438
96.8419834392487
96.7478667501003
96.867192614278
96.8957936715619
96.7823634215902
96.6751559874765
96.5408528059018
96.5750588756394
96.7469568597439
96.7414767213308
96.8568554178009
96.8872709158689
96.9704543929398
96.9607001966084
96.7474916168612
96.3595942488453
96.4799372322722
96.9089688630827
97.0909485815234
97.0922987024711
97.039721569407
96.917167568712
96.794218490734
96.5799019786269
96.5649621933926
96.8000449318632
97.0948831900513
97.0165383662262
96.9640497265459
96.9262813104828
96.8689034228999
96.8435611100593
96.6190115846
96.4974730429478
96.8162276777276
96.848707342495
96.9395473143966
97.1764820731494
97.1112723040387
96.9016465944377
96.7912690480729
96.8547693902394
96.9081499970706
96.8345618023693
96.9626569347828
97.0329580338197
96.9626057149471
97.0353863690764
97.0444231949167
96.9610321711893
96.9397144381763
96.9535502661777
96.9413063709281
96.9555918402563
96.9855710534492
96.9105875552947
96.9780806547376
97.0164793793292
97.0317871202662
97.0018964087521
96.8387106076884
96.8084029022446
96.8861081434526
96.9676623412685
97.0409994856696
97.0185239972319
96.9997500653139
96.9808222562771
96.9573329026383
96.7374678827751
96.6790338433642
96.8317341352165
97.0855396395541
96.9303610496095
96.7879240889967
97.0221076927463
97.1993907624976
97.1885790581969
96.9440857195994
96.7110431598495
96.8136869220677
97.0459002106143
97.1314460939045
97.1029197250332
97.0814193888793
97.0447212708483
97.0162011197578
96.9727152072794
97.0222878805924
97.063852611832
97.0142715354659
96.9490963400153
96.9270161235976
96.9623170019567
97.1332646669716
97.105365650453
97.0567192095312
97.0327642278846
97.0481506586812
97.0812236209597
97.0820122331643
96.9152342638699
96.8651602445699
96.9029181782504
96.9127360025648
96.9609244487413
97.0933252345838
97.1925297157677
97.1228640283157
96.8922648008666
96.7249816201043
96.7089423086641
96.9367671496499
96.8568049287643
96.6552778671113
96.6106741531372
96.6938873230459
96.703091018357
96.6775092241686
96.6036298655234
96.5029865963174
96.3702020531264
96.3915319758992
96.3581542297985
96.1908896937233
95.9068682342048
95.8741340321879
96.017011089364
96.1333036112938
96.1040330823484
95.9625010888564
95.8147743107831
95.7048666130807
95.5639326908329
95.468521386959
95.2575537549597
95.2177211920726
95.2185133952402
95.0683507251998
94.9903299688441
94.9462622803848
94.772892782651
94.7449590826178
94.6728678725607
94.4506253281589
94.2980651300004
94.3349306791508
94.293351577681
94.2486349518793
94.1986817016232
94.1690287392887
93.9880758637087
93.7827453671491
93.6053397914495
93.4720412613754
93.4086089088534
93.4429985039739
93.2885162776915
93.0571798505463
92.9415594945593
92.9021862215269
92.8404559574391
92.6815698566037
92.4508004200135
92.4691411706566
92.4650703126024
92.3546589923114
92.0788289293635
91.6277649784374
91.3364973798877
91.5142656748637
91.580102608131
91.5175087088993
91.3728738485635
91.2047998537263
91.0803448864665
90.9281028846945
90.7435300588246
90.6709488292879
90.5585225955429
90.3832468941259
90.2308358244092
90.0969367441131
89.9097593828764
89.8106427460832
89.6565465892177
89.5547181274086
89.554103070607
89.5754626887736
89.4447078781757
89.1733464104766
88.8757197491435
88.804219792207
88.7397475284749
88.6941622289916
88.7037999176615
88.5630443590028
88.2963822195756
88.185986896489
88.0128483925653
87.9301824051165
87.9740276496705
87.8327531390117
87.4320543217608
87.1539563440228
87.0372479490783
87.11819698926
87.3997669487301
87.4581531029991
87.1090195807476
86.7455719528567
86.3537252646085
86.3674538209829
86.4553904871492
86.0634929656905
85.983973851847
86.3600385041773
86.237154994334
85.7109112317605
85.5114167764811
85.7370764855131
85.6504503738796
85.429256942819
85.3798846261059
85.2410408859864
84.6820735777358
84.5122306917136
84.8620980479159
84.8990736768335
84.6793239565647
84.6798809676373
84.6093241642759
84.1619751861948
84.0791840328378
84.3145784549007
84.2838959883897
84.2956316122726
84.0979095280246
83.6021661999352
83.6009692238503
83.8371913944171
83.8461401159345
83.8762293394737
83.6243765812586
83.4661702928869
83.3337791302965
83.1861860342774
83.2871898209563
83.3474980450678
83.0572125920909
82.7814872939272
82.6906283707417
82.702927718141
82.4225741245997
82.1657343832649
82.3067713297564
82.3661002812214
82.3353398041196
82.2498543169985
82.0547442743204
82.0468567300945
81.9517153993187
81.7306890009995
81.7489899308112
81.8653964132235
81.838678999955
81.8542172270907
81.612168081511
81.3352960202107
81.388276141459
81.5224804879902
81.3510840480498
81.1299695659963
81.03888410735
81.0287266160978
81.0112298098182
80.9906614203269
81.0334924390968
81.0229057127889
80.9308054162797
80.8733721878547
80.6598562709178
80.6463187599758
80.8430896408433
80.8222909884523
80.7010799100309
80.6783939324131
80.5077967343726
80.4102235389904
80.502111148788
80.6382840408571
80.6072928964536
80.4898919695591
80.406877352559
80.4223590969811
80.3099895876578
80.2053456021557
80.233373682354
80.2400545360264
80.1721944727009
80.1841326659545
80.2220900224547
80.2657358813195
80.1656328241374
80.019723045081
79.9340576612163
80.0249770383737
80.1274078802914
80.116738287443
80.0605741734556
80.1107364349135
80.042533429024
79.8846565823582
79.8359683369026
79.8971254138076
79.8202889896694
79.7666073285349
79.7931570203565
79.781702497058
79.7599510240948
79.7975372275342
79.7099332752605
79.6313447449764
79.6019021009641
79.6258127821
79.5985141087799
79.5725157274471
79.6176149023088
79.6525567256721
79.5502176834603
79.4878606354353
79.4788987067882
79.5448137009487
79.5011339651478
79.3802090788395
79.3816146517522
79.4880588926442
79.5326647138625
79.5812666326657
79.5479976037831
79.5757245972997
79.5810703048077
79.5421061425489
79.5518903854082
79.6384058610728
79.5870184373908
79.530904496954
79.5919877251313
79.6893022906486
79.7059581751161
79.7150731636492
79.6696237728093
79.6859459693509
79.6678521418452
79.6944943210727
79.7356803536527
79.7125128562965
79.6638275319876
79.7295247760561
79.792153134742
79.8740376373308
79.8723747031732
79.8750844797707
79.8882559673416
79.9149931693231
79.8617889207087
79.9080294454715
80.0020866478925
80.058523075647
80.071228666729
80.1447354256869
80.2374579991547
80.3387646801499
80.3608345415081
80.3364171075003
80.2961978127814
80.3611726121169
80.4267331782208
80.4815384450941
80.4776248785126
80.5584086263474
80.6503535816721
80.6738586268536
80.6883142210382
80.7495862194169
80.8258036459433
80.937302883433
80.9927265503915
81.0684919069304
81.119207632682
81.1807546105991
81.2441811765606
81.330939383821
81.3673629724849
81.4399417465057
81.4549136829294
81.4156512892271
81.4040591590869
81.5478156279358
81.7407765780056
81.885893612117
81.8103297573197
81.7093369995277
81.766505070313
81.9720363122715
82.0188570325261
82.0049433930829
82.0498731251512
82.1603548579756
82.219244199485
82.2753041726095
82.3970194958362
82.5245405262476
82.4710514955751
82.4250345816559
82.4337122762924
82.5057799403101
82.5884102911668
82.6486052197397
82.6703497869813
82.7434105956065
82.7601827729635
82.7731018449267
82.7750661325824
82.8739529371991
82.9607107031142
83.0109815413363
83.0704181813989
83.1162884176593
83.1321346132348
83.1895124193308
83.2779047933201
83.3832002178829
83.3593175904115
83.3609400180952
83.3878127190402
83.3872527407277
83.4507611520832
83.6006489237423
83.5945494622577
83.6322013166166
83.6757311541015
83.6675942927172
83.6896351841795
83.7983119906148
83.8902792695765
83.9640570444741
83.9947233040217
84.0493614673509
84.1130403546417
84.2149339021894
84.3102576151172
84.3754427112135
84.3711729758491
84.4305266205923
84.5322005014062
84.5815492927113
84.5301010684362
84.6171576630814
84.7297956754077
84.7621218359697
84.7762609504296
84.8476733351809
84.8480611991086
84.8899830028259
84.9846889513035
85.1223072028859
85.2069776516689
85.2641787983405
85.2863822095025
85.2553672667711
85.1952644219792
85.2329850461666
85.2674509074695
85.2917939616164
85.3202810480196
85.4212189228763
85.4329201121414
85.3972609629191
85.3783956035918
85.3543498525052
85.2842323447389
85.2348636731779
85.1984756825628
85.1845214435536
85.1297037348894
85.0653701088101
84.9269637159143
84.8149710902278
84.6914454394739
84.5497623844483
84.4379807698196
84.3789509360792
84.3191215933466
84.2571138475431
84.129747868928
84.0806877004258
84.0196000254124
83.9435854386177
83.9187356687245
83.9409969714568
83.91424378492
83.8496947905971
83.7649502660279
83.7136203260019
83.6075872820696
83.5469949700208
83.4455526291935
83.3001636737663
83.1904461457678
83.0777187694535
82.9540631967447
82.9481098005214
82.9490298198935
82.9322139171428
82.9337646383462
82.9557866375027
83.0087569467483
83.1692079427059
83.2946425807567
83.3993650594742
83.5298463914899
83.6668351302382
83.7642224545247
83.8989220489215
84.0257271863146
84.1397288658153
84.1985174882052
84.2881184112198
84.4018979957474
84.4997583418702
84.5695264724707
84.6562431226086
84.7210239976652
84.7849426554025
84.863608140635
84.930840754292
84.9594335068877
85.0012242140198
85.0141816427674
84.9745686784662
84.9417755016824
84.9528096884455
85.0021107170316
85.0767485662899
85.0812273799302
85.0927769117548
85.1015038013055
85.1169175205874
85.2069789440522
85.3066643007195
85.3220135930049
85.3830239355709
85.4321957839067
85.4572512957101
85.5128894897921
85.6404742329412
85.7962726865469
85.9585318553003
86.0732747247355
86.2438066687144
86.3904528753822
86.4698674136429
86.5671559438773
86.7094066054597
86.7948590934814
86.8330244197448
86.8601523219847
86.9559637021691
87.0237128867042
87.1129430576074
87.2189361069322
87.2986628456281
87.3360709897429
87.3678322179092
87.3935691908315
87.4303668194905
87.4843041237538
87.5855234378529
87.6413456664519
87.6848725534028
87.7587753879948
87.8166082100714
87.8528939055155
87.9087527824442
87.9761844518405
88.0307765006854
88.0602244607044
88.0742536314973
88.0790019665137
88.1249271462157
88.1808737779165
88.2144470024796
88.2375044255545
88.3030174596904
88.3488961659737
88.3858598954172
88.4410611382159
88.4524989005176
88.4790002572985
88.5366883508172
88.5405544248521
88.5699127620457
88.6212321762355
88.6512771801564
88.6591454495399
88.675894450128
88.6892799554873
88.7434956000057
88.8022464431193
88.8311992540327
88.803480084647
88.8035417290919
88.84129171042
88.8673270094056
88.8858699537348
88.9237966665403
88.920516099833
88.9337739394061
88.9937766854234
89.0486396638777
89.0989797295246
89.146273142911
89.1485627046232
89.1418486287494
89.1896496023857
89.2126150936349
89.182012394414
89.1655847180867
89.2422215348791
89.299439732836
89.3124328141054
89.3328499285678
89.3571267841496
89.3864217364023
89.4016256657122
89.4412128596919
89.4972005637468
89.4766105820831
89.4482720050217
89.4815186306031
89.4857849851254
89.4765426671753
89.4997761400307
89.56806733546
89.6096528410707
89.6497072729152
89.6598011840183
89.6580694848538
89.715588174902
89.7496679727431
89.7224072330942
89.7333587999891
89.7177604970256
89.6946901639723
89.7436412251213
89.8113373765173
89.8159010779016
89.7801878221469
89.7489303357565
89.7862791497006
89.8233220849777
89.8642610494473
89.915851891642
89.9296308790678
89.9433522197547
89.9682836308517
89.9881085721469
89.9941950335107
90.0251505171361
90.052199875325
90.0878617644756
90.1277018896687
90.14091863906
90.1641767390412
90.1883091813389
90.2202897268676
90.2283675387531
90.2254442263484
90.2794277615556
90.3194619894568
90.3489160591857
90.3970642149174
90.3832384804658
90.402166861674
90.4360041993364
90.4485663678064
90.5187984175016
90.6235120887845
90.649520000046
90.6432612785764
90.6154393091061
90.5915041985178
90.6616685069832
90.7030502227398
90.6637081038981
90.6322197141238
90.7103871158549
90.7346839355249
90.7269416454021
90.8232362828477
90.8500903286907
90.8555486613331
90.8653510446721
90.8570030974516
90.8903977088173
90.8829150106751
90.8741484092877
90.9405393877148
90.8997439648848
90.9136138273077
90.9755628826839
90.9318163294165
90.8682322471346
90.8570379523802
90.9186583141209
90.9643929009753
90.9980734468137
91.0398070388787
90.9926385945361
90.9318656554188
90.9635118587848
91.0144268835142
91.0233626325921
91.0750327903569
91.1046975295891
91.0340811306118
91.0089506554369
91.1027718385194
91.138136327173
90.9947652642581
90.9988840602911
91.1182021930481
91.1517014626297
91.2400176078806
91.2167464421581
91.0906755581501
91.0257714597513
90.9885813492759
91.0270522998849
91.1535693523042
91.1538685662726
91.1051607593616
91.1120763440256
91.1629468086046
91.2478671077311
91.2027690418965
91.1715010901583
91.1533262700071
91.1510485456695
91.2240066540822
91.2938106119743
91.2472851937427
91.1736116655471
91.132072258114
91.1846451019622
91.2215613610872
91.3048921073539
91.4030697888753
91.3353030502826
91.2957273594383
91.3179770389948
91.2860169028407
91.2635783614457
91.253055813913
91.2519246946896
91.2864337652225
91.3135598462757
91.3546139744493
91.3198824173884
91.256534930644
91.3542067320662
91.3633671715719
91.335109969402
91.3822522092253
91.4627531513101
91.4510658300775
91.400227270961
91.4435156518599
91.534566682168
91.5672345153087
91.4748163787952
91.4731086387604
91.5626047855926
91.5904291271425
91.5714061339977
91.5608329375272
91.5100162931337
91.4918339788744
91.5140235796881
91.512311577055
91.5217538321483
91.5456686536404
91.5677948420647
91.6175839602525
91.6267602163527
91.6720806524382
91.6239619575029
91.5631825315266
91.5931343200371
91.5970833257503
91.6523060581624
91.639263704171
91.5923960279004
91.5652667678294
91.5368514018456
91.554946738011
91.6062740751642
91.5797275376741
91.5150125390055
91.4696732920161
91.5179329698873
91.5712369304682
91.6446582011522
91.6781066646597
91.7855262929042
91.9246394660432
91.8886072800737
91.8481646233165
91.8356979636411
91.9184908586734
92.0033359613826
91.9636484295809
91.937303017268
91.7926402124094
91.5994917120279
91.5418283338679
91.5932547081675
91.6930955892531
91.7137432620009
91.7256348436719
91.8052800066906
91.8093992204412
91.8149897252678
91.8397336028759
91.7979828240129
91.632646527256
91.5214602127869
91.5332640092795
91.6101862181067
91.7081280996572
91.7972897334264
91.8174917212031
91.7989962620301
91.8419323052127
91.9359758403389
91.8987840182772
91.8912749063057
91.9247692755596
91.9776445733955
92.0753604552648
92.0828438291737
92.0237627042292
92.0166913883205
92.0575269975715
92.1528478435768
92.2195622806984
92.2339103125889
92.3677355214184
92.469468036755
92.4978855234807
92.4338667371582
92.4421398669763
92.6447318481005
92.8716553879556
92.9426854887089
92.9082392356229
93.0263437852397
93.0074819734727
92.8793269619384
92.8604374492724
93.0277091050156
93.2407979610173
93.3706746478419
93.3235011961267
93.523440008725
93.714048212072
93.6183574735803
93.4625585136257
93.5931842889394
93.7133407095704
93.7585400580999
93.9099227143885
94.024232825795
94.0540562043024
93.9780639551754
93.922029908567
93.9530732931744
94.0183638485269
94.1703033249341
94.2110239415976
94.2023205921997
94.451876603606
94.5588091766609
94.3959841401228
94.5607407737562
94.7010879491458
94.6987732160072
94.6853696576305
94.7657497859561
94.7933236746322
95.0172774279285
95.1728649729227
95.1721090377718
95.1415474564202
95.1763355929275
95.2967975528651
95.6979148398202
95.7700889230228
95.6094265476893
95.7131222114667
96.0521976287904
96.5626829502542
96.5107337233054
95.9145281830282
95.8112991974159
96.0551730095945
96.1054597741399
96.3368531693929
96.8921142330759
96.7147896441218
96.7489723995091
96.9011844703376
97.0388335910039
97.5555076020787
98.0911960131853
98.1755673955798
97.9971986573268
97.2054154161864
96.585482614695
96.1855169236392
95.954112148989
96.1312563060404
95.953065153211
95.6164338196948
95.6366493061324
95.4689860231205
95.2199074498894
95.2021435220259
95.1856763466695
94.9285844551987
94.605053114325
94.4019791501003
94.3702536159461
94.4192455404717
94.3494698948254
94.0727391479226
93.9023366982035
93.9128516660517
93.9217001763143
93.9189401705177
94.0065317901689
94.0454971523825
94.0503298982348
94.0450029015842
94.1988017653011
94.2590029675684
94.1842522964771
94.2544708365713
94.298963272343
94.2865311410003
94.2790001355531
94.2361597860299
94.2528557299028
94.1913553973923
94.1354480927599
94.3047229341144
94.3422664338641
94.3053770863659
94.541395217844
94.8147154700508
94.7984656745707
94.8303952360709
94.8772512300535
94.88258285461
94.9764700229285
95.1322858228012
95.2032677458035
95.1663055759876
95.1650834243248
95.2187334388748
95.3604553500324
95.4384042136475
95.5751186547113
95.8383325638953
96.3863128981166
96.5564239313563
96.5004475464495
96.6639752272139
97.0099653469337
97.3452593379306
97.5226118134565
97.557917513198
97.5239197361363
97.358087331447
97.8088215197377
97.8887180997303
97.5955094573861
97.4897399257669
97.4547356870352
97.6036832347096
97.8554611763584
97.8600134987017
97.8197480160255
97.5485784781455
97.4177517490283
97.3993677912933
97.4424138381021
97.2062258851944
97.0981956901394
96.9552875158559
96.8397664060431
96.7500701063497
96.7547897469479
96.8741127860501
96.9890934033821
96.9244156687379
96.8648582746197
96.8918495206517
97.1913088827139
97.2779261597452
97.1244233426097
97.1412587040315
97.4224394568224
97.6741047625512
97.456681012837
97.0377929817905
96.944006891881
97.0345159565404
97.2855684614575
97.1459350414189
97.1114146445154
96.9586179070728
96.5069051189458
96.2321851425967
96.2742693925575
96.1516813223656
95.9951654520324
95.7540710497686
95.5828312888587
95.6840543767955
95.8544040258719
95.6183380506361
95.3930722673978
95.2581208620943
95.0224798227408
94.909490460002
94.9843770537693
95.0399787551284
95.0188159660118
95.0659947369663
95.0183450644007
94.8537390435796
94.7339004982085
94.5692717544394
94.5446693014155
94.7377169141739
94.796403343628
94.6843711106955
94.5725975111133
94.543233278023
94.4938455542597
94.4922242074428
94.5041474224112
94.4454920000368
94.4826953455859
94.4918806012105
94.405032053889
94.4004210836839
94.3361773418768
94.2702617469991
94.3913947307325
94.4524727498678
94.3730389354427
94.3523298923144
94.3541088304652
94.3398263814455
94.3731831728051
94.2964999189098
94.1889454928334
94.1910295914752
94.2354175064472
94.2050725703784
94.207826509929
94.2642464552769
94.2363591668987
94.2652835891586
94.2975013630477
94.3021367568051
94.3251892855587
94.3365778451007
94.2833560515146
94.2220815205924
94.163459367267
94.1005195236663
94.1314905686936
94.2196869067548
94.2613544517025
94.150184836473
94.1098962356012
94.1833349296238
94.1675813678313
94.1838285724138
94.205705717592
94.1778273411285
94.179701132713
94.1720888665682
94.2396853566292
94.2380513189779
94.2046171229883
94.2107486096816
94.1956172054303
94.1492674834793
94.1383693123709
94.1508361440868
94.1977816688024
94.2133043214799
94.1395316227741
94.1173943586851
94.1898374949867
94.2392759506185
94.160731930674
94.0942603202888
94.1607384096897
94.212197794541
94.2067221708385
94.1411946789343
94.0875688605041
94.0535274193459
94.0646554132393
94.0286221671047
93.9927306102417
93.8633723403287
93.8865632832938
93.9087893635079
93.9265697515449
93.8850656444808
93.7370853159913
93.6046193767076
93.6183904181807
93.5731171786322
93.5232776008536
93.4635172958189
93.3008818508109
93.1119835453761
92.9878743486267
92.9953372425496
92.9210919688029
92.8292089577493
92.7107071607394
92.5320839387927
92.4778475196331
92.2535092427801
92.0214881665761
92.0393913210067
92.0862275894875
92.0139639578932
91.8214433213145
91.6290851169033
91.4305092685016
91.2302716585825
90.9420819269348
90.6737208385601
90.4450990280571
90.2932928622001
90.0078474319724
89.6644411214744
89.2674315879481
88.8062168054522
88.429240078428
88.0056456843323
87.4864862568008
87.0633945006423
86.5871957097889
86.1482395969624
85.6580147497761
85.1893716409639
84.5375362050513
83.9241465232605
83.2857441865051
82.6433765207315
82.1872759566405
81.8318832325096
81.2772268124892
80.5943499777175
79.9831407626678
79.4857947504036
79.006777146196
78.4672461110289
78.0899827877928
77.6844439227777
77.1312318389834
76.6438860314987
76.2801990606387
75.9185612674512
75.3649799457113
74.5222405560335
74.15040505762
74.54875829333
74.3175385021432
73.731263880298
73.554606056517
73.4753048319012
73.1555595691354
72.752651903864
72.2581094092176
71.869023473378
72.0584431288148
72.1762446138158
71.8883543718578
71.4961961441688
71.3079751748149
71.1122912058417
70.9824059301505
71.0082867053046
70.7878196644282
70.3832163114852
70.4022223970526
70.4567280916481
70.2356771535357
69.8953738580234
69.6542931978042
69.4728081163746
69.2707747864172
69.0250682052641
68.8249763041907
68.6232999096481
68.3880136972526
68.1648449659679
67.9999474347517
67.7956069829071
67.5419152046585
67.3249860114492
67.1054452702738
66.8284238922073
66.5496696210565
66.2751938006107
65.7800929956277
65.3565276193723
65.4462173385855
65.3150883251252
64.769564360787
64.5016942783229
64.453783506434
64.2765225358847
64.0477795136336
63.4329075865581
62.5956284932373
63.6414124113695
64.5917381684804
64.7898233974292
64.8651691626981
65.0158850496943
65.36542660752
65.6032355071825
65.7405913458895
65.9394574309068
66.1731199642289
67.6041317136401
69.0711102623185
69.205920041405
69.2682726991897
70.0100038865269
70.5529895659303
70.7080862629659
71.05834941517
71.4778282574559
71.6227443965817
72.3625215747291
73.0656606304057
73.4293482587878
73.8789022341155
74.183342866579
74.3519023687361
74.2894328966868
74.1074116369472
75.4081743111368
76.6941858709265
76.8815390875901
76.7233966911588
76.6973301502507
77.0989632290086
77.7111620986705
77.8377670755585
77.7011705227031
77.9104053667634
78.4259043543798
78.7780469020229
78.8579798483055
78.8432463761658
78.8574873500335
78.7648162899337
78.5793881604761
78.3585512233663
78.3435517431797
78.4516428310025
78.2410714556331
77.7154261760208
77.3179092575739
77.1731616013751
76.8808864610499
76.1694815779307
75.7029036556961
76.1138502826038
76.2407829657743
75.9530119657515
75.640483635215
75.5089748686262
75.6015968886356
75.6578236808413
75.5843222309457
75.5060576567184
75.2628937879791
75.1553951329642
75.4411414951038
75.5049303115069
75.2280147491974
75.0318549515429
74.8369190488477
74.4511801099556
74.0171944827765
73.5843610853432
73.02204233325
72.6008978799695
72.3078084733564
71.741087352943
70.9852326807714
70.2332528545739
69.5395563225884
68.8828744073857
68.2898696396431
67.8976344424962
67.5100526057081
67.1765636343255
67.0361120931833
66.9721119923487
67.060722647372
67.2362864802556
67.184598075632
67.055018008934
67.1853214765463
67.416195252532
67.5223418159776
67.5630012650447
67.6246757638419
67.6628658594145
67.6895244587641
67.8986495420547
68.1542015450405
68.2348728935887
68.3434144558127
68.4582132178719
68.4907147460292
68.6833921466913
69.0256151279089
69.2372168706847
69.3314100319281
69.4423661745725
69.5952020159094
69.7535816019076
69.9273076775797
70.1268063177075
70.3254089709443
70.5109594847947
70.636240608817
70.7890761764498
71.0810010316442
71.3928428392158
71.602257506895
71.7313892056451
71.840250996167
71.941243567468
72.0037183323894
72.0659694435317
72.1172446712359
72.1237858051461
72.1132002776701
72.1127465827616
72.0978524873649
72.0822250251846
72.1077737295158
72.1496396434318
72.1961902952987
72.2670744144677
72.351654905276
72.4607526090461
72.5957720961031
72.7408117216253
72.9259846300189
73.1475822757129
73.3526489196386
73.5516620395416
73.7473511665778
73.9316754876802
74.1277985739941
74.3051119617862
74.4383091316525
74.5794435147572
74.7084863061452
74.7996077003913
74.8876111015931
74.9691909937138
75.0391513665158
75.119570887987
75.1919308999608
75.2367583080576
75.2771445146845
75.3148778023834
75.3597161293713
75.4213779195607
75.487597271654
75.570053703002
75.6400652901749
75.6985335133849
75.7661520752222
75.8235958917156
75.8605689620447
75.8989713186096
75.9335893242695
75.958701258245
76.0091611107679
76.0840082733108
76.1494670101865
76.2047639788151
76.2624509082745
76.3260033456635
76.4217478501628
76.5385666288831
76.6503213137555
76.7690020338219
76.9122387217402
77.073236853919
77.243716869045
77.4137250667417
77.571111671505
77.7403712657582
77.932604084086
78.1054020192108
78.270110696161
78.4653269741656
78.6456082850279
78.7933937855867
78.9532237581705
79.1181784517192
79.2717790971548
79.4056863841361
79.5081189379853
79.5977958037014
79.6701779718342
79.7062277638153
79.7189226064446
79.7076598489702
79.6556367068997
79.5859427410792
79.4920483087088
79.3404193865859
79.1981479636394
79.0657583133717
78.9102782308574
78.7633431912714
78.5993178124148
78.4086986601323
78.2404688508372
78.0589015928409
77.8234165664152
77.5851144312943
77.3658404532567
77.1384477960737
76.8862338571064
76.618073452626
76.3699281270849
76.1350667297483
75.8736248226192
75.5923403810975
75.3047720387804
75.0067644166542
74.6882771134623
74.3515839902547
74.0662313576849
73.8379401207764
73.5999848402985
73.3592533715262
73.1467585630723
72.961035484495
72.7988646132268
72.6479351941636
72.5148635646161
72.4024894131215
72.2546746295365
72.0452861635518
71.7945832129528
71.5100501185164
71.2143331820975
70.8948534725398
70.5566462991996
70.2416320120334
69.9459667427989
69.6198053087943
69.2853946351742
68.9560163648219
68.6210880565807
68.3030914830853
68.0125283257663
67.7164424042537
67.4015935782269
67.0901847731225
66.7803038463328
66.4572995930075
66.1314862293118
65.8055467575095
65.505928467258
65.2123376278969
64.9253306358799
64.6740574093019
64.4215837060694
64.1655866098888
63.9403368168257
63.7659393558434
63.6531072931038
63.5768236873775
63.5289269407864
63.4830432734078
63.4204012425133
63.3775061825583
63.3516848841997
63.2920558001013
63.2330352018677
63.2023377684746
63.1956449605644
63.2138684968051
63.2599713395005
63.3293262727137
63.4245036146295
63.5359922998957
63.6878598411403
63.8718506070885
64.1191670932336
64.4242681135982
64.7379166651059
65.0673000294301
65.4187757237673
65.7981188380928
66.1953469880139
66.5511188293921
66.8554599867889
67.1488031673718
67.426894572268
67.6659189985713
67.8808868189514
68.0520166216568
68.1704983030862
68.2451517844692
68.2805916676128
68.2713026501036
68.2540191173944
68.2346553764527
68.1963593475977
68.1967221944722
68.2939239337325
68.4537589991568
68.6608317013336
68.9292101215895
69.2455156561447
69.5843475028705
69.9627920539749
70.3585336577413
70.7391409354765
71.1009080714437
71.4566051402429
71.7968350564923
72.1370117795706
72.4769624862484
72.8117700659035
73.1099631177235
73.3956379771538
73.6944296192669
73.9722228617633
74.2056989285011
74.4271292626493
74.640096295321
74.8265869304556
75.0144921868139
75.2258982138899
75.3686222239284
75.4577251714748
75.5826573976351
75.7056712572743
75.7645615197458
75.8102094056632
75.8717182794096
75.9485774953289
76.0376684378111
76.1210302323075
76.196146829494
76.3024465722354
76.4358010758422
76.5756276164723
76.7087762142107
76.835503316902
76.9646284485712
77.0897980612385
77.1600970662262
77.182744924935
77.1995753626401
77.2272738064528
77.2676121583897
77.3388682095742
77.3747779854944
77.393344516192
77.3997149679726
77.3567992512117
77.320630197511
77.3392166756009
77.3548503086206
77.3472850014376
77.2931885201171
77.2610043926447
77.2787557419867
77.2925213389948
77.2739100077285
77.2592983540198
77.2677948508635
77.2221105168698
77.1293384772857
77.0651475756834
77.0108189346861
76.9311425345262
76.7933051367978
76.5977330597252
76.3366572009826
76.0644683512013
75.7671202809967
75.4496166986175
75.1690353310006
74.9426952356808
74.7887394982508
74.7646419490816
74.802484754083
74.858676930251
74.9408060986202
74.9986455486021
75.0239883185405
75.0251743400075
75.0362446316974
75.0347711501969
74.9516218445916
74.8664977517533
74.7507995776071
74.601645340088
74.5170608380055
74.4816339687784
74.4041376479413
74.320587596876
74.2770143773833
74.3047728340058
74.2850159848033
74.2239595524108
74.185733374755
74.1479606056684
74.1021118172802
74.0539227724856
73.9503685361069
73.8555977797755
73.8019383863173
73.7211627545346
73.6142769432146
73.5253823193766
73.4593500928325
73.4146538673618
73.3346695993554
73.2608762272919
73.1930481187539
73.1242951113748
73.0324360871802
72.94377376031
72.8757874668132
72.7846778960593
72.6352992571148
72.549914534111
72.5215397854637
72.4439012862249
72.3039466887038
72.2056653461731
72.1591352816662
72.0956819584034
72.005999466324
71.8897984373167
71.7818783857189
71.741638781052
71.684249920131
71.6189727117583
71.5058694630236
71.3594962892244
71.2362358025932
71.1121198172332
70.9697266645539
70.8299322308645
70.6701302089104
70.5974926190655
70.5192694879169
70.3979322095104
70.2213495724151
70.0345293107327
69.8867498706875
69.7343717985514
69.4933162605878
69.3079453824355
69.1296722247623
68.9184898694899
68.7349833809501
68.665637208643
68.6099371107766
68.5249158340885
68.3582275659275
68.2219217343252
68.0923438763001
67.967842829947
67.8443975734202
67.6817984646143
67.4143772813869
67.231838898168
67.151258350871
67.0708797972654
66.9601690242693
66.8110706588555
66.5762236499451
66.8096860659159
66.9311202849943
66.611287009402
66.4731169112014
66.4227572374064
66.3153085749328
66.203736828015
66.1196210001891
66.0445129121383
65.9774643733996
