1798
3999.43349933624
650.420452594757
1
128
4
96.1826023155613
96.1340624129255
96.0909246134574
96.2117720480428
96.1596326532545
96.1075150557861
96.1433806690806
96.1253814085258
96.1315788411332
96.1364125633236
96.1411997885445
96.2760201969364
96.2880448951257
96.2215353518708
96.155203530706
96.1112836917001
96.1300911828541
96.1560628442454
96.1288616897934
96.0866228914251
96.1727966028422
96.2296989602833
96.1514613119381
96.1104256604944
96.182878288377
96.2583660678493
96.2240136693508
96.1947423827336
96.2039648466357
96.2239593527564
96.1368430898475
96.0358351074741
96.0459981655956
96.1639475592353
96.1871471150765
96.1207319816873
96.2011177947268
96.2574448368097
96.1553554448337
96.179422275997
96.2021950955611
96.1821918468582
96.1998225888136
96.1926117216854
96.0428224944114
96.0605270296125
96.1594753999585
96.1809721305185
96.2874515079382
96.4596668081483
96.4398422034347
96.3376626394513
96.2194451545334
96.1308071165584
96.0667737934578
96.0730564113017
96.1688097197594
96.2139058425672
96.1363569624344
96.2934984863744
96.483568626922
96.3848267155961
96.2124531374054
96.163470261538
96.1449156038394
96.216394318496
96.2375487879937
96.3297678977267
96.3370732035313
96.1508089157877
96.0120715925037
96.0819119453956
96.1201325851375
96.1727059476288
96.2210132252735
96.2968754238254
96.3938224637253
96.3804276413679
96.0681173734353
95.9159250681697
96.0455866253326
96.1769753552553
96.2112605213503
96.2914509403252
96.3822064839586
96.3687590426704
96.2600798279312
96.2103285080792
96.0988268761629
96.0996418688908
96.1366018210898
96.2173546125722
96.2243061651903
96.2555116662648
96.3594403470933
96.3192467243847
96.1761639207756
96.1498130467708
95.9745668080707
95.9192611354004
96.1546187288758
96.3360698728224
96.3318472907523
96.3298115050977
96.3895061979041
96.3436056908701
96.1687347477968
96.0975158850823
96.1400000044745
96.0965555595828
96.1131027506301
96.2148439304081
96.160154057178
96.2554860897574
96.2924743967173
96.2734650214689
96.3121614167821
96.3072879026273
96.2882638111922
96.1868085049727
96.2308395293211
96.3947547662212
96.3317300370299
96.2277701381256
96.305961596755
96.3033885109518
96.1656717275038
96.2598371826882
96.3767288828566
96.4436140356667
96.4174123368447
96.4214641707598
96.5233580730063
96.3807610491291
96.2729980202613
96.219187353547
96.161797153532
96.1613397773342
96.2109759211299
96.240094086626
96.2022186661424
96.1585179488614
96.1559537737724
95.9786183378024
95.9621544071331
96.1437840363035
96.1433020369397
96.0940847967556
96.1891766764084
96.3336290820101
96.4134722940832
96.4625718453776
96.524412714703
96.5006450278254
96.3707182526841
96.327804268433
96.2446560019427
96.2515270831256
96.2506345007313
96.2137939698101
96.2034716109451
96.2294012208032
96.3844549020935
96.4751265874791
96.4030727634918
96.3525590327538
96.254337137293
96.1056170734167
96.1494051098747
96.2807840189493
96.3488159583116
96.3210625460161
96.4143601918966
96.5616798234915
96.21950476855
95.9625678802639
95.9969004685603
95.8992936784983
95.9333882273909
95.9896913118007
95.9449114765123
96.0678159224058
96.2217315797267
96.3077735712781
96.2194734011671
96.2093694794925
96.3573795855039
96.2079398808536
95.7553742089899
95.5003300590822
95.3833262597797
95.4853069777769
95.6134279454061
95.683416522068
95.6831008431962
95.6936859596384
95.7643825945251
95.8362629702129
95.6171106513466
95.2270295848179
95.154626537009
95.2527718759384
95.2894889162713
95.2877439077147
95.1578007143921
94.837147028093
94.7355130513863
94.8139145745326
94.826190787647
94.6745472315168
94.5333803960299
94.516805641736
94.5149122277124
94.4936372096324
94.4314458385767
94.4673284405202
94.4635275711339
94.3528131357596
94.2458066380733
94.2412188346146
94.0613487070678
93.8424578247176
93.9383304365403
94.0304840628973
93.8400647259386
93.7797492845092
93.7965067500797
93.7379031817652
93.7481528449793
93.7864901704742
93.7802388614507
93.7245222265845
93.4469165304642
93.2445159474118
93.2058020893664
93.0968243867076
92.9595770274508
92.9376986181968
92.9457181629638
92.9209692865108
92.910238641544
92.8768878412158
92.7867777052008
92.688537971714
92.5413135749089
92.4634025804246
92.4584534119681
92.3254960819368
92.1048358620068
92.1038811056116
92.1590402907456
92.1185119763642
92.0795526530737
91.9518729986908
91.7867295835984
91.8227592128346
91.8215988428418
91.7664733017654
91.630485888411
91.6278696118309
91.5739409068961
91.4546471401818
91.3297005037217
91.3322825428595
91.3424753671065
91.3334061797721
91.1434039211843
91.0633736377626
91.0100921632199
90.8825503672496
90.8468526242586
90.8055020078101
90.74304498737
90.6125370611383
90.3357528531477
90.2580617768973
90.3080601715658
90.284746822595
90.0733947948346
89.8782628637404
89.7906955190706
89.769047336883
89.5923889538569
89.4391040602532
89.3192310175396
89.3193199020739
89.2646361510896
89.0399837188941
88.8870824874078
88.8427835688908
88.7342380816305
88.4859119324236
88.3657184455853
88.3126142531721
88.262441282035
88.243697646383
87.9741780299109
87.7639962255008
87.7237214310948
87.6243710595752
87.3497933462531
87.0734048792573
86.9983346606264
86.9184716029561
86.6513370848911
86.4734783559191
86.3125114917536
86.1945779171421
86.0712714422508
85.8969697864479
85.6805807615337
85.5193775908908
85.3880154359602
85.2813510058045
85.065245274139
84.9190932483935
84.7255711442581
84.5832481422425
84.5474097587258
84.3761667553587
84.0967264124178
84.0705377757148
83.9833672144657
83.9403552786431
83.8955763137072
83.732608989325
83.6256916219825
83.5932229664218
83.5609007780403
83.6246667276143
83.6186476547455
83.4534610635551
83.3851791844767
83.5044694840653
83.598084936787
83.6313393781013
83.5350660836717
83.6058130078142
83.6912005238281
83.7593641004461
83.8958864693344
83.9764093563321
83.9800788041469
84.0185049641218
84.0376191269063
84.1641691249049
84.2159230519211
84.20011455415
84.2813959531383
84.4012797657088
84.4988434698926
84.5200822542494
84.5546546671401
84.680017578867
84.7965764236292
84.8345997780513
84.8029989121242
84.9445336957592
85.0285572901625
84.9483580349952
84.9392832429921
85.0231261436973
85.0476214160554
85.1713246749689
85.3116403808185
85.3170585646861
85.384209830293
85.550166198455
85.5990522545243
85.6060456958766
85.5159289770368
85.5823308416219
85.6779604473836
85.6880779988413
85.8197673185107
85.9275896415096
86.0162451413504
86.117778643359
86.1059440087675
86.1823061944587
86.2078837667112
86.2350030085765
86.3720229047958
86.5928788034965
86.6332942177324
86.5893338996556
86.5547795260587
86.6490644970374
86.7928478573211
86.8539274254053
86.90925676359
86.9546571575891
86.9458527704803
87.0429007584678
87.100622790326
87.1694472386038
87.1931619457208
87.2241535896712
87.2220335260532
87.1394507179312
87.1363897062856
87.1715508893673
87.1149202161185
87.1402544213211
87.1623862139512
87.1208715740315
87.1889288731747
87.2728137619491
87.1835899954822
87.2169881823216
87.3620387432562
87.5038589198026
87.6323034957553
87.6719760460291
87.6388769175102
87.7735861256237
87.9771990972421
88.0803136018194
88.1627763557943
88.2540495883906
88.3520778001195
88.4165374102088
88.5229251500285
88.5440687458267
88.5842670384925
88.791206407644
88.9119613412601
88.9729140886735
88.9971511003343
89.088066162776
89.2151291395262
89.2960456533885
89.3579017188273
89.538566515536
89.598648963692
89.6273492019509
89.7302306778373
89.7824475482403
89.7975498740064
89.891983076265
89.9608257029257
89.9497430962482
89.984231920278
90.1699936761479
90.2418447421125
90.2722586336231
90.4146906301267
90.4483312403788
90.4360393739271
90.5039473866286
90.5207467198355
90.5559676947255
90.7421270929156
90.870305789971
90.8657968229055
90.8432439670197
90.8158208693529
90.9135413216776
91.0420421137277
91.0852109151156
91.1510547018606
91.2224407665553
91.2094847076148
91.2126447163939
91.3320346960126
91.4258815196532
91.4452729860658
91.4825318547949
91.4748733900271
91.5748479520938
91.6757689251839
91.6921444980158
91.6928728847316
91.752648346593
91.8010200217928
91.8487623550031
91.9172266754692
92.0093327797812
92.065748693939
92.0853643562571
92.089941419943
92.1066365962841
92.0938748120206
92.158513085888
92.2157867333266
92.2378530277102
92.3009685226665
92.3267389018429
92.3651435620218
92.4820168905263
92.5083779583505
92.5332095808483
92.6059668794102
92.619677363345
92.6274219908708
92.7465585145144
92.8377028312727
92.8265199977335
92.7993659569525
92.8874513006417
92.9611597197112
92.9160585295937
92.9493427625889
92.9165722807099
93.0022935835275
93.1750728228945
93.1959759357088
93.2034547212315
93.1396407111287
93.1466847907203
93.2753251665848
93.3474486311741
93.368206811903
93.39767586866
93.412270872953
93.4540614563185
93.4881701814583
93.495424337541
93.4674226169346
93.4772186219065
93.5153332377144
93.5541829743503
93.6181699520429
93.6772539852348
93.7440110746092
93.7892271060213
93.7307631525176
93.7180368703631
93.7967357820065
93.8222574604448
93.8103849498788
93.8435519005191
93.8754887626136
93.9430096053712
94.0334711072237
94.0395087772875
94.0088547344974
94.0375245623434
94.0092289549193
94.0336200943514
94.0500355781358
94.0290414872694
94.0365668528907
94.1094042605665
94.1200296600369
94.1293018839325
94.1839018093348
94.2600495673032
94.2922785372251
94.2881990580675
94.2506191722307
94.2618299502848
94.3429795774105
94.3258288318512
94.3340898565491
94.39784194022
94.4604923930603
94.4915610188872
94.4893473372579
94.4832994131472
94.4696193823579
94.4757023329551
94.4757750834024
94.5463580762998
94.5993881254698
94.5852539570096
94.5283646705376
94.553263127517
94.6607238331586
94.6352913076535
94.577384206712
94.6454523153892
94.6919300910707
94.744091299428
94.7644229885512
94.7916220072313
94.7492304538841
94.7597273317475
94.8003640039623
94.7842757653162
94.7674159727492
94.8383447145667
94.9507474039301
94.9675820837199
94.944674928181
95.0215064716131
94.9553257392237
94.8857387765498
94.9271214291279
94.9418404971865
94.9275502358923
94.9589852219612
95.0106011604009
94.9851492457541
94.9647941311976
94.9837628533693
95.0074451013518
94.9997814873471
94.9787755222654
95.0578112952814
95.0760528421638
95.0263988750599
95.0623173313527
95.1131527478522
95.1409917614012
95.1817184071913
95.1953380697187
95.169827019273
95.1319095749262
95.1780028505347
95.2230460606915
95.2109076884126
95.2522387479199
95.2594795384309
95.2119057375239
95.240270527746
95.284702707608
95.2465731622642
95.22778705131
95.2284983246728
95.2200231864889
95.2264578567191
95.2537768609287
95.3443730678613
95.4261138051887
95.4341980727987
95.3661369564527
95.3273672547302
95.3314780546974
95.3062387301016
95.2606767807217
95.2748630144164
95.3115452468548
95.3589262273659
95.3960477819949
95.4162018304101
95.3852291662252
95.3080315552583
95.3216067614021
95.414492818298
95.389535357657
95.2976729984493
95.2475478205064
95.2490735176573
95.2978578851043
95.3191198843323
95.2357754194387
95.1727530826065
95.1767796320902
95.2225905319597
95.212558977714
95.0878474110945
95.0611304003762
95.0773772574955
95.0206200561037
94.9781365242555
95.0176049788359
95.0897094200951
95.1166075123018
95.1361352091526
95.1794934360951
95.1922802129674
95.1630000721767
95.1544647794934
95.1416091084745
95.149290416958
95.197198193259
95.1953550307914
95.1461458008986
95.1255273912828
95.120023573298
95.1359563112484
95.1758757394158
95.106411123859
95.0355153560142
95.0481024088122
95.043251233888
95.0134206155409
94.9855733070246
94.9434981291833
94.8805990897178
94.8709301821819
94.968212133627
95.1351595604446
95.250753064331
95.2864898721148
95.3257648042258
95.3649708142411
95.3843988696204
95.4057442204796
95.4424956397706
95.4801168012861
95.5163124914152
95.5780415584326
95.5949821052866
95.5615587547156
95.5776120391315
95.6753346893577
95.754219657858
95.7293080068007
95.6777176459197
95.7197953336252
95.743629101239
95.7326512288801
95.7077551435735
95.7096637376494
95.7462750552749
95.7918735783076
95.8320466158502
95.881435637118
95.8769507950732
95.8525643727904
95.8365917960278
95.8580850473273
95.922472607632
95.8955020823735
95.846836669379
95.8188636835283
95.7877327472605
95.8060711056509
95.8331817156401
95.8443271905399
95.8539588473141
95.8192203293912
95.8078032559655
95.8790332503858
95.911142142168
95.8882770380589
95.8940664640141
95.8961874711095
95.9326389381314
95.9914800876219
96.0325208738984
96.0252722778001
95.9929187700524
96.0223284213091
96.0484470965639
96.1032901403538
96.1352075813238
96.1137290199001
96.057313536405
96.0906789836359
96.1810167404054
96.2164058771668
96.1998277119445
96.212349242964
96.2311467512099
96.183796931695
96.09405211074
96.1476490565745
96.2575990266129
96.2712170448296
96.2814734455876
96.2840629821931
96.317552719098
96.2910564895661
96.2875902269569
96.3788931749146
96.4110978938096
96.4823969737472
96.5353541792535
96.3915204103064
96.3081457736581
96.3752832148023
96.4589693808798
96.5093917877635
96.4687688492424
96.5048523979605
96.5599662552421
96.586626624767
96.5944207409009
96.5271942783986
96.5452023903344
96.6019952446774
96.5394684302682
96.4538910763243
96.4795744711066
96.4884500787166
96.5173926798962
96.6225653004861
96.6077615804953
96.5432644403674
96.5583364071405
96.6465158141121
96.6378476574039
96.5248898218011
96.5180998098085
96.6280066073244
96.6852995763359
96.6044209611578
96.6124057426904
96.6761089467023
96.6958974463348
96.6431139895814
96.6426496951835
96.6767092068024
96.6424244929262
96.6455706855715
96.6181196710097
96.6732415681248
96.7914898765454
96.6923329090516
96.6745474369035
96.7048625963037
96.623425847097
96.579880831901
96.5513930168039
96.4517844415618
96.3428493507119
96.3321004033174
96.3591205049585
96.3964842742695
96.35374334584
96.2751173677023
96.2786202128588
96.1970052998718
96.195882136091
96.2940496270928
96.2918185836736
96.3050499597126
96.366831202538
96.3961375947437
96.3391957705516
96.4148619210393
96.481721255759
96.3831131182192
96.3788097536024
96.407143132678
96.4014958704618
96.3544317730361
96.2462719276249
96.2963864875073
96.383544434751
96.3509547109987
96.307463784797
96.2176375496061
96.1654756327237
96.1250954601542
96.143579548738
96.1132818980821
96.1077043714538
95.9937799990738
95.8906009026036
95.7706674896089
95.6578666555209
95.658184511359
95.6974316258007
95.7196029129549
95.693982746469
95.7216356311263
95.7700378552283
95.7158576438209
95.6903347767984
95.6420042088097
95.5451408881499
95.390285298807
95.0976909228305
94.7766095569088
94.4629824151299
94.0406262703393
93.7427409989787
93.6975112619235
93.8386116452588
94.0648682966714
94.3225818262293
94.5644560788213
94.8938881987743
95.2728816569353
95.5038930003957
95.6664266247302
95.8600679594942
96.0329831214383
96.242245448702
96.3609708372462
96.3899408222288
96.4595929061008
96.5078126271831
96.4984814247926
96.5296130516634
96.6110116563742
96.5111876802429
96.385269508149
96.3514835993541
96.2680152663097
96.2226258579758
96.237033628679
96.404839045495
96.4917253359488
96.4743604190805
96.5071435671761
96.5436701891613
96.5118505880223
96.462593215014
96.39205134285
96.3384901257309
96.3444757690947
96.3725638077617
96.3744544448714
96.2549125077488
96.0671888423362
96.0662392744071
96.1748331829275
96.2673605245763
96.3257363836681
96.2757914629304
96.2344081749924
96.2356130639289
96.2110757531695
96.2241396005912
96.2319634830817
96.2080811251006
96.2141891639976
96.2623441546128
96.2599032271798
96.291658505689
96.3283437040986
96.3311371762458
96.3549436793959
96.4019402934877
96.3795131162321
96.4739275543373
96.5355071987754
96.4865517184648
96.5040512247049
96.6024641741465
96.7613632558389
96.7024165241592
96.5832673681426
96.7992588416303
96.8415979816537
96.8537926450344
97.0664992871548
97.087007844875
96.9422656195792
96.9252306514816
97.0368014662572
97.1887111251711
97.3885201398311
97.3411914422749
97.1952006200573
97.2171078158982
97.4075180265304
97.4822360174861
97.4611450142403
97.5541254666356
97.5629515075501
97.5345752971067
97.5724381105587
97.5869302599606
97.6493617736796
97.6578662175047
97.6872222463131
97.878159268495
97.830445068519
97.8641632892448
97.9029292578745
98.1087497502576
98.2049727740222
98.0239480860021
98.1973629562735
98.2909247032606
98.2706719281383
98.1970770800068
98.1498900689679
98.2893040498535
98.3972646021608
98.3481807950509
98.2458433525465
98.1631646487742
98.3944951913422
98.523753305561
98.4156546151518
98.4769556868273
98.6773068669404
98.8717505187235
98.8998780457915
98.8515766299382
99.1513520129325
99.1947844900835
98.7145633464147
98.6672563285251
98.8020785913425
99.0728615443403
99.3078766309585
99.574630751757
99.5851874198915
99.5018943386048
99.6899620482963
99.9746907745224
100.192500605986
99.903813710058
98.9799281260027
98.3718091824203
98.2783284937676
98.4839403084046
98.2755588611318
98.0998382980866
98.1368245636907
98.4259443330666
98.4736450933569
98.3458116810371
98.1369229622004
97.9461710382601
97.7320753089024
97.5598602472939
97.6155034735406
97.5472457100932
97.4462030730254
97.4902526752082
97.4487677280363
97.3019733125987
97.2826958008922
97.4339731582762
97.477066131531
97.5253687258388
97.526104417758
97.4303826561501
97.4453125780717
97.4765794103656
97.471527664682
97.375889115214
97.4123037225904
97.3101945033923
97.1481089515611
97.3014379579433
97.4687862403703
97.3488685533561
97.3571089482985
97.4356914932695
97.4313625203025
97.4832726870092
97.5333877556623
97.4671050609369
97.5262739254467
97.5881543832944
97.4801042712339
97.4542277483557
97.5907228659931
97.7287057130725
97.7948081961003
97.7582812980417
97.7177818443712
97.7656900434497
97.8202218129542
97.8923409432403
97.8566919324755
97.9516037463668
98.2449655624664
98.6813162201138
98.9981670697575
98.9185609427083
98.6431654559964
98.8602419119396
99.1435950743202
99.1083841290454
99.0491444049894
99.2445102786799
99.1008164407546
99.0516168862633
99.0600906638377
99.4115475413225
99.6370677603189
99.1824315093399
98.7356154755146
99.126249760355
99.1456874056476
98.9196671151821
98.9566561805555
99.1745008090093
99.365579876102
99.1241078404879
98.7275687976837
98.864317340691
98.9112350214857
98.6677442219314
98.5286985066973
98.7199543665908
98.4990651879992
98.3168450237793
98.5433540376866
98.693944631694
98.6136641049979
98.7205086539268
99.0545668966086
99.1834242857766
99.0928392885996
99.1217719456586
99.0086336399111
99.0703643735742
99.1570719169936
99.0277029554223
98.9130774616914
98.6257971741644
98.7258268393703
98.8202057501966
98.7117193209797
98.5369071145106
98.3558267612951
98.4118937785992
98.3065386220475
98.2783334161181
98.3078960855265
98.2549032133942
98.3110283122074
98.4095116803103
98.1391637446639
98.0025668593942
98.0488603227955
98.0672655750208
98.0445903563609
98.1084491628045
98.0809321994684
98.0534218377165
98.0813436221483
98.1371560025046
97.964145636023
97.8313374161573
97.8472795346925
97.9286444863137
97.9300945197826
97.7916265027459
97.6512981687107
97.6747165390088
97.7403278167856
97.8946349883198
97.8360917066569
97.6906553954081
97.70012479266
97.7635242645747
97.7321196800221
97.7012205143271
97.6692418327856
97.6002407069995
97.6236734571938
97.7288114168327
97.6955333683854
97.650731066741
97.6111774563054
97.5870183144397
97.6410938223552
97.686317776936
97.6138513957741
97.5408321657481
97.4985716187605
97.6304101465105
97.6536502094465
97.5598798169186
97.5049344117367
97.5171218273987
97.4971022045455
97.5456495266403
97.5823327467179
97.6312627384174
97.6314251739007
97.6916975611072
97.7447174772991
97.709811820467
97.6616056356249
97.564894425659
97.4990909498555
97.5395287588199
97.5712742384307
97.5860807461335
97.6253353015722
97.6437358464439
97.6335189051115
97.6219198880744
97.6050548923504
97.5946957210381
97.6062072715168
97.6080203630394
97.6368912674351
97.6277169491487
97.6200984211215
97.6431003822219
97.6273657067219
97.5959594135202
97.6073567051586
97.6247561798009
97.5874349238911
97.5998855807344
97.5720451608691
97.5888839798061
97.6203228980918
97.5639017308491
97.4665917034619
97.4570177465227
97.5109577706162
97.5335485510346
97.5006811895777
97.4742516878437
97.4905909473627
97.5457471983818
97.5432995910959
97.4786295314558
97.3695653718037
97.3033023410411
97.0493829428832
96.0597148956051
94.1260722605446
92.6078956669501
93.3998757957433
94.9190262931508
95.8837532098989
96.4691364911335
96.7929282781454
96.9801301476479
97.049070016739
97.039310783113
97.0650119240364
97.1217545605428
97.1612482632652
97.1564462432666
97.1242855378113
97.1867820341481
97.1750433579632
97.0199951099672
96.9394267252546
96.9291405955574
96.9340350152341
96.955814672299
96.9574480461768
96.9785210981094
97.0136330903809
96.9675871223818
96.7622878578472
96.6222967407515
96.5647453925395
96.5708004663631
96.5748272980567
96.5543025161416
96.5076035215713
96.4997519282848
96.4102230543613
96.1594932204363
96.0387575952747
95.8337585279103
95.6339396654789
95.6640999835203
95.618389919536
95.5140251496101
95.4847241872306
95.2699200805471
94.8951491579315
94.7611994848318
94.7288106704179
94.722722931015
94.6316286369866
94.4936381593272
94.4275271253925
94.3091905733157
94.1896445516354
94.186096047031
94.1415516572976
93.974996303922
93.8249039557683
93.732338227886
93.671500143104
93.6099724942344
92.9164446602034
92.1366540994587
91.7991397297033
91.1866674859806
90.3689424530039
89.8878949954619
89.4260968871365
88.961334908592
88.6641415208911
88.3489807643149
88.235706660183
88.6396461403251
89.1438369508098
89.59055458781
90.037485204149
90.3766754020246
90.6518249748853
90.9033340739189
91.1655577864317
91.3410539026407
91.5041374257711
91.7672248938482
91.9938675803992
92.1633236959117
92.3155528964673
92.429681931267
92.5594550520576
92.6695635748416
92.762556145489
92.8511136380378
92.9432287201514
93.0076403601219
93.0875202162467
93.1882855378269
93.2899982810179
93.3335282141327
93.3885621647545
93.485146970076
93.5720693090002
93.6549511562482
93.781849909362
93.8214631833143
93.8065186163395
93.9105996567606
94.008308015575
94.0885480527014
94.207856272595
94.3207919680453
94.444486036859
94.6414272154115
94.7645236644865
94.5426359532578
94.5645863855438
94.6768358329767
94.8067802115128
94.9381445553435
95.0592418234763
95.1984618610674
95.3255769496918
95.3405317529848
95.3421794211481
95.1954953183677
95.209460643251
95.3186481270206
95.3274079837513
95.3143058957325
95.4083694698225
95.4674029566608
95.4546785786483
95.4896335605833
95.4845871237806
95.3783970457289
95.3232255543287
95.2718396247769
95.2304964834917
95.2212231632127
95.212213015601
95.2154681878134
95.1158845934287
94.7851372866558
94.7243798414553
94.7785200430984
94.8009862472654
94.7586888655368
94.6586885736195
94.6010582425632
94.5879242578209
94.5293625779602
94.4074864007032
94.3322699465328
94.2893612222404
94.2243588085642
94.1601728439032
94.0928149318626
94.0070095271155
93.9092864846909
93.7441184226723
93.4050329962827
93.1318100101671
92.9997290566773
92.8667033417448
92.6135373548867
92.3781457384385
92.2179926675979
92.0513692325716
91.6790450174867
91.1388856154447
90.6522521488692
89.961148065233
89.0002801151559
87.8817705495103
86.693482227189
85.6964074298248
84.8171778433795
84.0464264888714
83.3932100514321
82.518858770328
81.2575158096865
80.3583530197409
80.1852542308945
80.5085644783958
80.4714129508386
80.0733904123174
79.4933978835109
78.8370266134824
78.1916534642655
77.3638062503665
76.5592644832795
75.8857465589583
75.2005467228229
74.4745204150527
73.7003517813311
72.9743546617279
72.229274411756
71.3972811292282
70.6584336667548
69.9290137936163
69.0716860940335
68.2337952072061
67.2355601368108
66.1521095741742
65.1088648803452
63.9351202168308
62.4313803587606
60.8220245664203
59.2909982543837
57.7227124605242
56.1451719984584
54.704544426404
53.5837939560278
52.8228075271922
52.4613641482456
52.485324991729
52.6620645089979
52.8626673933472
53.1141498051206
53.4522572492809
53.7454973111735
54.0136675637725
54.2814109228596
54.5442241432726
54.8212971585589
55.1249724176562
55.4821303295229
55.8784733312851
56.2955076144332
56.7213546994431
57.1445691285669
57.634194390957
58.1519956198987
58.5944906469845
59.0036365430035
59.4171600532018
59.8487278956589
60.2672039025276
60.6984068381972
61.1390888911501
61.5854179273623
61.9951254377242
62.4282594331615
62.8660224826886
63.2661544654852
63.6669365728666
64.076594936025
64.4342705867876
64.7874885207635
65.1545976577504
65.5331587636503
65.8897340866675
66.2264896161499
66.5753786490529
66.9152466202955
67.2615067673334
67.6281472491469
67.9784805583827
68.3156235398369
68.6526752506441
68.9814311914182
69.2871851513895
69.5977804826076
69.9163350270005
70.2454420029031
70.5526784182747
70.8490266746043
71.1390736180972
71.4150239072795
71.6995767671969
71.9909197223083
72.2553379938893
72.5251568609256
72.793063488372
73.0756471466467
73.3275049713507
73.5596198048637
73.7822986349919
74.0237188320849
74.2807625290598
74.5185903793746
74.7216208993465
74.9365751344318
75.1510672987339
75.366248011085
75.5874355912994
75.7909461150274
75.9908607082491
76.1971770095823
76.3742164817389
76.524938445864
76.6394570148728
76.7372101185413
76.8351748218034
76.9125453192374
76.9453400019061
76.9423928254261
76.9053281430937
76.8141501975314
76.6631025429884
76.4585388280902
76.1950988026452
75.8698801678192
75.462618797468
74.9902901663645
74.471155661667
73.9487696313554
73.4101221071525
72.8973480797033
72.4371550984798
72.0272728338771
71.7494211976601
71.6795147030257
71.7489189629037
71.9237514349734
72.1720640388427
72.3672953438711
72.4432858505879
72.4183695242575
72.2550266404965
71.9669107869871
71.651177152285
71.339157634145
71.0057362476953
70.6147843439881
70.162137360028
69.6805458656309
69.1999410179294
68.7403082839754
68.2745206403306
67.8483896812355
67.4237888319214
66.9924329538471
66.5283575612075
66.0149064051614
65.4460497098229
64.8271923210252
64.1965812231096
63.5652171145623
62.971946707129
62.5269490167515
62.3162291790233
62.2665602408028
62.1554467437434
61.8758439328712
61.3970488619192
60.8079748176219
60.302104572675
60.0204021353144
59.929866779455
60.0205280943346
60.2016843798561
60.3725464832621
60.5368075684936
60.6575940840626
60.7235466214662
60.7922565053646
60.8060162672041
60.7518677246835
60.7020095708997
60.6685666428653
60.6360740294851
60.6290624983631
60.6960085372244
60.8653836784343
61.1160842272067
61.4548203529623
61.8747230642353
62.3560175082325
62.8700934747993
63.4350398277631
64.034165351845
64.6668508088956
65.3535272750054
66.0786032566221
66.7965088446647
67.5313770418251
68.2843106345673
69.0055227655327
69.6948947877071
70.3935697975295
71.0868528620691
71.7619665149462
72.3760754167264
72.9677922997927
73.4249078968239
73.5758954731796
73.9229976706977
74.6819700680654
75.351278466696
75.8621034602264
76.3453347723318
76.8043299848484
77.2385876973778
77.6854140999691
78.1045353456409
78.4931115160565
78.8427278363145
79.1492611818466
79.411339678925
79.6879339497366
79.9791655767446
80.2965910063756
80.5738917085329
80.82879410554
81.0710458016936
81.2810780529942
81.4344194859342
81.5868448830962
81.7297664567557
81.7998646575883
81.8103699064627
81.8156352379548
81.9219782938898
82.1609311132512
82.4238112154747
82.6997508600141
82.9313849951153
83.130121219069
83.3260587646732
83.525256755604
83.6836538325111
83.7363278677585
83.6868771077205
83.7587081444036
84.0361135880112
84.3301979972727
84.5539714917204
84.7284314137173
84.8988027259406
85.0872807259265
85.228905219456
85.3637381705575
85.5053777879835
85.629794258306
85.7593537846256
85.8698927883655
85.955573524544
86.0752619417766
86.1699576115871
86.2496535041363
86.3387280105616
86.4567866558618
86.5522723057072
86.6281692651544
86.7079185491564
86.7964893904022
86.8856170103693
86.9567918478623
86.9966254948387
87.0589068067847
87.1421247940308
87.2439881669663
87.339267446943
87.4250808413135
87.4744513804222
87.5246590842565
87.6009758752607
87.6630105238875
87.6816511667295
87.726823241974
87.7713164898673
87.8197637967853
87.8883377240016
87.9418303490421
87.9628181498652
88.0098064231737
88.0879071152042
88.1563083535359
88.2015992757905
88.2445414051759
88.2970048813716
88.3484846701691
88.4104614235205
88.4552239899334
88.4643038439681
88.4694022189994
88.5045309107183
88.550656703957
88.5477807625371
88.5541060340807
88.5719844927467
88.5600234835383
88.5575663448089
88.5664264965528
88.5915466919525
88.6104490214914
88.5740010327178
88.5802621392611
88.6193622791467
88.5952498600948
88.5440470822589
88.5156891576504
88.4995686388594
88.4796598967983
88.4262581149994
88.3468920618199
88.2749961053846
88.2061982691294
88.0840459359324
87.9059254187132
87.6706482015652
87.3500013033129
86.7675604124065
85.6425963171198
82.7425788643207
76.2822426785139
67.8241312307809
63.9149085757714
67.6864886030129
74.4584256149305
79.6392651465954
82.66226968561
84.2782867535957
84.9273106680802
85.1373715656618
85.6300760336475
86.1854297500237
86.4392864529229
86.5073685688443
86.5779543315602
86.6307646077384
86.6273243568354
86.6288592932189
86.6274318987586
86.603341394384
86.5780030846441
86.5649619772
86.5199273383195
86.4345479523518
86.3618829068017
86.2668276374512
86.2024100819285
86.0940575105817
85.9147039399012
85.7382675305903
85.5944652784909
85.3986938762291
85.1859442966492
84.9608071976875
84.7203776347943
84.4714216009997
84.2095312099245
83.9426275118714
83.7262276449419
83.5425468393256
83.3635577888511
83.2859765158323
83.2623531568334
83.2116366582343
83.2321416957616
83.3380939222065
83.47287340476
83.5875462828742
83.6934041782749
83.7942209962389
83.92137017103
84.0760192005747
84.2139339312068
84.2791106780128
84.3920288578488
84.4816578682975
84.5460786782331
84.6189257367781
84.6865530179666
84.594421501413
84.4184279758516
84.429047437491
84.5557096513814
84.677493108701
84.7677675388024
84.8008605578385
84.8085646633596
84.8134953367394
84.8018678391909
84.7392432661874
84.6854717844857
84.6732900953171
84.6352777368486
84.5743147723298
84.5668038615422
84.4982729113755
84.4131176429984
84.3226360012912
84.1976994068574
83.9455045181606
83.6530800974404
83.30000525752
82.8826187445172
82.4241455868716
81.9681837931084
81.5110451884581
81.0343116085779
80.5354742240726
79.7923090247846
78.5512158013377
76.8238748336237
75.2281933599668
74.8209209193061
75.7580757823384
77.1587172138694
78.1397833151336
