1798
3999.43349933624
650.420452594757
1
128
4
97.2295207963248
97.2252119467784
97.2486214841651
97.2279511994336
97.1828772716828
97.2559183261741
97.2062399488014
97.1356067447767
97.110443369039
97.0702306663158
97.0970220707305
97.1824492393966
97.1843467418066
97.1810382720229
97.1343639792037
97.238481005578
97.3152039555408
97.2801671839744
97.2086888308253
97.1697680581826
97.1235065911946
97.0063885814349
97.0842743151392
97.1468360883251
97.1121118824767
97.1730506210374
97.1740879405537
97.1588603425361
97.1896487738548
97.1827165031949
97.2340206636168
97.3353658926861
97.3064662227263
97.2763804136345
97.2196890864231
97.2040512619611
97.1944958505889
97.2055719761565
97.2777919590771
97.2612962368034
97.0982114624583
97.0264710682411
97.1337038117115
97.2990743498991
97.4169014946137
97.4293438334066
97.3301928229176
97.2310332945918
97.1343789920665
97.0627218651259
97.0144996021525
97.0566343534437
97.2443130553949
97.4050755299476
97.390627649899
97.2231752196192
97.1121073111665
97.1511755627922
97.1783045316372
97.140836499895
97.2124651796719
97.1957525046817
97.1440911992954
97.3313405819025
97.3691757638181
97.3002593644889
97.3031419736221
97.240665952366
97.1281317264061
97.0909452374164
97.1527780226754
97.1842142591887
97.3646050666411
97.4564703101402
97.2324248513643
97.1076660284278
97.1017393776706
97.078387727247
97.1863674325734
97.3372312126462
97.3641673445923
97.4183422392348
97.4301028722075
97.3142543245636
97.2180405241369
97.2419906941947
97.1455378116926
97.1841225451296
97.302701452665
97.3759828202794
97.2662326433632
97.2164218129993
97.1653328134612
97.1317807164596
97.2190220006154
97.2127313850255
97.1746972591804
97.3381340745591
97.4651943680476
97.3847332697941
97.4028599683818
97.3797352874814
97.1564379910077
97.0452623448466
97.1728594321646
97.3694799103779
97.4678366465943
97.3170650421131
97.3606245107827
97.432811924847
97.350463566633
97.2353658439744
97.2319242014856
97.287401848186
97.2598894200614
97.2437468458943
97.237361158259
97.2439808279531
97.3088164264346
97.3596369007859
97.326377973836
97.2841052930515
97.2628328104594
97.2715289511228
97.2138587008453
97.2924737083747
97.3203438311767
97.2763037345731
97.3053442215389
97.3465753611567
97.2155572602582
97.0932689608394
97.2564508602069
97.2943187716701
97.1302920733746
97.2279528481922
97.4167004173721
97.377284591186
97.2612459117145
97.2141976961
97.0892422509907
97.0612762507363
97.2647579986734
97.2209726718288
97.2723046750969
97.319685205602
97.1792994122195
97.1837394802467
97.3335184049128
97.4142913607178
97.4077415286539
97.3291285388675
97.1105106168024
97.1565310776477
97.2876763576311
97.3375405305191
97.3669654984571
97.381108991819
97.3511195254758
97.3486670013271
97.3422193516479
97.2769257122085
97.2362951469039
97.1717735889589
97.1125417303536
97.1695650631722
97.2882101403733
97.3340997628653
97.3686223950922
97.3007481649803
97.1306715873965
97.0247531876576
96.9204831262389
96.9673544364941
97.061648197656
97.0539616582743
97.1790481024912
97.3163710958465
97.382190665875
97.2894512778108
97.1867482472208
97.1420135760374
96.9789402583681
96.8808513949851
96.8811190334852
96.861049291388
96.8676721648238
96.8867679948717
96.9054176520901
96.8578497134215
96.7723141274301
96.7174734489431
96.5834509600831
96.5095384391399
96.4900090752244
96.5329576415141
96.401210123487
96.2461225436519
96.307142861917
96.3655053752242
96.2517248144486
96.2400059397522
96.1607474846109
95.98284871429
95.9119126232216
95.9089247320703
95.8992938976198
95.8926844862309
95.7644088526137
95.6027499511021
95.527356232251
95.6398533177964
95.5390920013092
95.2884607271008
95.2614993058401
95.2839536993294
95.108019704354
95.001935877842
95.0346970455653
94.9563827984678
94.844382801858
94.7750789335642
94.7307380012055
94.6792866521814
94.7835491008865
94.9756309946201
94.8009790457438
94.6428953614512
94.5537752271926
94.4195046001576
94.2279019606686
94.2218263549596
94.2131268915813
94.0973541936291
94.1165843730464
94.1234360599622
93.8952344282214
93.8184542873
93.8006695195369
93.6854259245981
93.5429011805582
93.4372560189314
93.4542356256262
93.4346891979115
93.2969812757877
93.2555226744809
93.1610125006416
92.9650169128218
92.9504459219118
92.9928577170956
92.846753726062
92.7474208456901
92.6263559828433
92.5479066136822
92.6308656295538
92.7233224967394
92.6101881678743
92.5296010253902
92.4892583474053
92.4454004008479
92.4219257251759
92.3612139175283
92.0645723291665
91.952835505475
92.0359293863955
92.0342854597283
91.9740046970916
92.0061175793136
91.9197403776186
91.7681076264218
91.6835826909181
91.6900119715706
91.5704606342917
91.3929512139893
91.2531668816249
91.1033157295212
91.0261523717638
90.9122635327503
90.7652083600024
90.7530474625695
90.6234126719391
90.5893839445079
90.5858796473988
90.3787444555922
90.145577513231
90.0312222519206
89.9894493072906
89.9001993573983
89.8305441783314
89.7347849759164
89.5267483582948
89.3350166642661
89.2669885774026
89.1198678329434
88.9678781728138
88.9082598002682
88.8159080832096
88.6668065838249
88.4436298143836
88.3812375889186
88.2213341977957
88.0108826121995
87.8701417463906
87.7014023441052
87.5122330155704
87.4895920158843
87.3927421910873
87.1386048386615
86.8295795571906
86.7094943844619
86.6264707921863
86.4701825278387
86.24223830064
86.1199783908439
85.9320898489113
85.7105821300667
85.5652858271457
85.614589413832
85.4419145797222
85.1608799225205
85.0137464861718
84.9549795489956
84.8663281258106
84.7202853391521
84.5498510323483
84.5069131975077
84.4676118532231
84.4762206759063
84.3946543634418
84.3587554662227
84.4502486747182
84.3971707903981
84.3001446804181
84.3319817989171
84.2921843744394
84.3108934416846
84.3941328102559
84.4663345193803
84.5122389725649
84.6169815224485
84.6731324868259
84.7402254945889
84.7288715348509
84.717545255123
84.7925152624322
84.9284043096643
85.0125141803836
85.0336594035126
85.0472398133276
85.1399872576402
85.2018164395914
85.2713403046534
85.3144689402653
85.4110261725711
85.319845692026
85.3901300459291
85.5696110275804
85.7119918293087
85.8167493612942
85.8161235562731
85.7856908661991
85.8136156047868
85.8903349612622
85.9796128275132
85.9971958701284
85.9789258139934
86.0899807288271
86.2639863090587
86.2944110579522
86.3018721399777
86.3796496227104
86.4310669180228
86.460506527413
86.5809435134384
86.6941928263754
86.7540565458637
86.7567649724896
86.808057433488
86.8609507160651
87.0043344148112
87.099397650854
87.2137102407302
87.2937686734814
87.2628047424997
87.2837451741584
87.4815075791672
87.6036669647898
87.7217388094876
87.7739729559884
87.7616994335118
87.8367948401432
87.9260426523266
87.9480725975686
88.0410777873947
88.0820968680088
88.0644549488993
88.1422205930066
88.2081356919639
88.1454301361183
88.1399170700657
88.1655141815894
88.2124286714185
88.2075984007429
88.1603751266807
88.1989212295026
88.2215354716036
88.1795829871086
88.1961334708977
88.2722191798862
88.410699345988
88.4159253393276
88.4428786024343
88.5685777175467
88.635911724317
88.6793441126417
88.788343281196
88.907891228397
89.0319314460779
89.1123001941693
89.2688074333572
89.4472418853015
89.5701776072081
89.6612902410187
89.8290778888138
89.8914163920662
89.9577587021754
90.0663576305902
90.1193669276912
90.1541209500976
90.1973810508358
90.2646810728525
90.3729883342272
90.4438638110265
90.447828604306
90.5330080553525
90.7999023396637
90.9406417596764
90.9475620472408
90.9550405095354
91.0641677303273
91.1605532492047
91.188332755636
91.1680325256512
91.2456144785164
91.3779557083437
91.484813583563
91.435359164965
91.5027655865845
91.6057710702616
91.6364137228811
91.6990438912586
91.7640375214814
91.8309196272899
91.8244019448788
91.9207818835055
92.1143868015888
92.2431239137837
92.3107777393758
92.279556674894
92.215590880938
92.2446635791588
92.3921891762311
92.5350275401738
92.6786933724937
92.725072487945
92.6534726265201
92.6904616993729
92.7833440653283
92.8113963349867
92.7876461868581
92.8410764671048
92.9330674120803
92.9402662732177
92.9555368580953
92.9941148876083
93.0983302140278
93.2026144575438
93.2038152806573
93.1463102919606
93.2151725234049
93.3259909766039
93.3390198807395
93.3883776087668
93.4969483185923
93.4948840451826
93.5385471708851
93.59167363622
93.6472058191519
93.7349971769245
93.8081470050847
93.8237964574629
93.7996305837839
93.8350216436166
93.8947503578128
93.8948048050517
93.9287662489289
94.0147755357275
94.0633638552822
94.0152977851977
94.0250944073501
94.1151322434263
94.2002650140132
94.1999245926869
94.2730195252825
94.341364219509
94.3139319849675
94.3533778561209
94.4522380198059
94.4580989808894
94.5164827017884
94.5809352400024
94.6004940230537
94.6106208270966
94.616465302536
94.6106196257082
94.6391656065681
94.7201189322928
94.8023491283018
94.8656044084699
94.8704324063314
94.9040016992565
94.9392582147731
94.9635403515562
94.9834449156322
94.9934411803609
95.0388050074894
95.1020531723351
95.1109441274468
95.0669132873342
95.0683143146316
95.1473068086304
95.2102793297561
95.1623086395147
95.1801482070145
95.2900834487241
95.3441090054907
95.324582066611
95.2815101083169
95.2764214500293
95.3241507154541
95.3608993192694
95.4415619926222
95.5069268714256
95.5168934774677
95.5394884992339
95.5160289094357
95.4535164388177
95.5089447793183
95.5678689506526
95.5227558320058
95.5514847459698
95.7012105044153
95.7251644014139
95.6582670144202
95.6757268489709
95.6821883729074
95.6751898312168
95.7381491348725
95.837761302919
95.8913989615355
95.8891414827228
95.8539058566921
95.9071944965727
95.9532839680994
95.9236358909633
95.8994529424503
95.9385334160848
95.9357084223221
95.9841954241354
96.0324762096704
96.0417915604284
96.1112884635143
96.0930330555342
96.0552357778638
96.0841132850007
96.125958958825
96.1568345182337
96.1271042452997
96.0925667300126
96.1309791164596
96.2076821616983
96.2762993248135
96.2656639492057
96.2546197640101
96.3197270483624
96.3287855369614
96.3010303786203
96.3223200223085
96.3305191307546
96.3285200321006
96.3452194404894
96.3522880084338
96.3884599292875
96.4515303961659
96.4217153353588
96.4078359820918
96.3614538215058
96.3519280686856
96.4081133386756
96.4189525056143
96.3797587087409
96.3609070930777
96.3899838345886
96.417286452605
96.4317773171693
96.4551896841855
96.48940683519
96.4804307164116
96.4830807327186
96.4654426178178
96.4766276818388
96.522159178776
96.5371750215394
96.5309039469705
96.5506677117071
96.5674994018531
96.5183044120297
96.5087365167354
96.5321405128165
96.5362805664208
96.4859746059598
96.4567191962608
96.5540784554472
96.6443298055895
96.6633459658239
96.6816392844145
96.6989629738235
96.7218886765766
96.7497114785484
96.68305579824
96.6163790076239
96.6161059356494
96.5913699222841
96.5762995042747
96.6146121228108
96.6857378952273
96.6486103004167
96.5935497729332
96.6185492253297
96.6357843252041
96.575676184229
96.5345029132795
96.5806000561493
96.5919587952229
96.5627454031573
96.5420957714155
96.4682184464318
96.4214101709947
96.4328055905173
96.4681428022981
96.4825754510833
96.4389041587476
96.3294434790134
96.2651055056614
96.2518630553037
96.2318604124637
96.2995974472117
96.348454048404
96.3268609762346
96.3692864787781
96.413917454941
96.40373764655
96.4298666703743
96.4124336298681
96.3874485966952
96.4201505939472
96.429824327227
96.3935143566038
96.3569783280781
96.3904919269614
96.4448799133118
96.4168798148186
96.369302561538
96.3595353488128
96.3868367128436
96.3370098245004
96.2298783519557
96.1676494380514
96.1429650657714
96.1107334898503
96.0598799789201
96.0663057991553
96.1468163814361
96.2893941133063
96.4128730149872
96.5041124658882
96.5755202918345
96.6316261696325
96.6631816194312
96.6329910310669
96.6314372331714
96.6994058653345
96.7649462019126
96.8537705297357
96.874232020221
96.8899709504235
96.8758991327955
96.8814504654704
96.9423530518311
96.9918359775376
96.9903530859669
96.9825126286814
96.9980361101016
96.9797983104836
96.9820169095691
96.9793212605484
96.9423739798657
96.9949968456949
97.0550326592449
97.0476097243465
97.1193226247608
97.2119376854111
97.1837476468378
97.17417685441
97.183948490119
97.1274793087182
97.0943575279746
97.0837327871047
97.0762931554807
97.0752944813775
97.0780656087556
97.095803992171
97.0779800178895
97.057815366514
97.1375551874018
97.154013316169
97.1188942966771
97.1836191510399
97.1647313649399
97.0851654876137
97.1463872480298
97.2149949228281
97.2067983847779
97.1996018542742
97.1901454383521
97.1988384594691
97.2544862662102
97.2887256020726
97.3012024316253
97.2774785853399
97.3102517979311
97.3787499801473
97.4051086056504
97.3967881188795
97.3928700206732
97.3749661895244
97.4092601150471
97.4914081563308
97.512528160528
97.4577998847124
97.464056703428
97.4213010408958
97.3891524060315
97.5070764418579
97.550583625858
97.475939379708
97.5340665641538
97.5986615459078
97.5833521554463
97.5670125271451
97.5558962261418
97.5900180262913
97.6267269362314
97.6149329914422
97.5498568355088
97.4831565739996
97.5244675830953
97.6379689551047
97.7108444107688
97.6925702568818
97.6972385793444
97.7350065562793
97.7478186601829
97.6195258006757
97.552216216739
97.713246667623
97.8408278465514
97.7882070214151
97.7071149129598
97.7030107234942
97.6905917986191
97.6813642227683
97.7022079125355
97.6844969168058
97.7166173844458
97.7505179574091
97.716018082758
97.6562984506462
97.6982367895292
97.7148372838712
97.7208628744361
97.7079306128483
97.6546870697388
97.6636355446149
97.7436753775587
97.7237925552687
97.7043254964472
97.727971060697
97.6880864406999
97.7373053224677
97.7523396605197
97.6790721296354
97.6837833738814
97.7664967068475
97.7859905200622
97.5928767238378
97.44657176938
97.5229369013802
97.5576666168134
97.4563265290455
97.4357029446002
97.4111035452675
97.4238969362156
97.4819316489365
97.4216661055435
97.3065318180175
97.3187731905113
97.347760054395
97.3092206533087
97.3017781509046
97.3689478228912
97.3911912466622
97.318403121855
97.3585724253995
97.3929413237746
97.4445620492406
97.476679760975
97.39646196335
97.3238374416768
97.3503126082024
97.3748135549184
97.38605970505
97.3923821334187
97.3096494257037
97.2327302087183
97.2095294930484
97.2704046717146
97.2696318113891
97.2325828039696
97.1518985825317
96.9900945787223
96.8856198207266
96.86831100458
96.8556633276413
96.8289764005814
96.6723849784616
96.5956329795464
96.642194979307
96.6623545891569
96.6129000721999
96.6087028845075
96.6476447386604
96.6189782486544
96.5170817424859
96.4545456937352
96.384600590201
96.2685203550961
96.027380411916
95.6118519571717
95.1287662057774
94.705338085171
94.5141990212267
94.6295520740207
94.8681275321087
95.1291525859151
95.3994960300193
95.7400371410289
96.064085022281
96.387147261537
96.7024991857417
96.9799748446714
97.1039030122976
97.1483313531818
97.2173677281625
97.3772019936724
97.5364562949425
97.5913844807878
97.5566080925014
97.5923111663141
97.6581748728351
97.6771868795836
97.6530604520063
97.6272953353009
97.574883825136
97.5147771690003
97.5276985893618
97.5233339041256
97.443829511344
97.4526432256296
97.498005386055
97.5558503704211
97.5981030078212
97.5771650246543
97.5793142409375
97.5664083981461
97.5790734392492
97.623211510508
97.5504502455509
97.4071645853937
97.3059540604985
97.3152721677413
97.381557589579
97.366385082107
97.3040827183095
97.2872608120826
97.361842353336
97.46356836992
97.5022937781233
97.4794628153009
97.4571602747872
97.4522137864682
97.4702200637775
97.4694934663088
97.4969499384353
97.4612661288646
97.3839495698701
97.4584443163611
97.5215481500716
97.4417925342779
97.4219784074193
97.4509851797855
97.4673061423673
97.5693245654763
97.6083356384698
97.4832002782717
97.5579385959064
97.7517017975533
97.8170240533532
97.8110375061374
97.8546491638864
97.7979117444668
97.8375423970193
98.029139015774
98.0777759428364
97.9324426997521
98.0686681367223
98.2757331630623
98.3426525633869
98.5371433099201
98.3701308980382
98.3945110052158
98.5087950900273
98.4746952485739
98.3372134818245
98.3895117859091
98.5489480204304
98.5805498795764
98.5753312161236
98.6290050414439
98.6250991850048
98.6263036341094
98.6564256091686
98.6731863211212
98.8043253871323
98.9479214313877
99.1290386177331
98.9067184423861
98.6445159599634
98.9174193314603
99.0281831853615
99.0424277337921
99.0798970789424
99.2355641625333
99.2620787712177
99.1482307426161
98.8525731425475
98.6760293926679
99.0513388982005
99.5086370928559
99.5324533622946
99.3080572991544
99.0899273608069
99.1950119817967
99.2534852863504
99.6843280017139
99.909898868214
99.8475941102537
99.6334762366244
99.5173080716496
99.6500328734032
99.6206023963264
99.8348823610941
100.033095794411
100.013900120148
100.07770715642
99.9446030096156
99.9215196523374
100.432700344841
100.611159998288
100.067222487277
99.5247890689719
99.1376501447188
99.374924396451
99.541365292475
99.4806315756896
99.4126336914408
99.2073694955572
99.0950468482987
99.1490937374896
98.9204658290501
98.9119235643004
98.9223564441421
98.6392222347532
98.5747443855673
98.5951010844829
98.4919369738473
98.3462993065531
98.2360351584657
98.307610660923
98.2671151552151
98.1019535999318
98.0629642580141
98.174378227197
98.133577814963
98.0535983347874
98.1231286483533
98.1633267636528
98.1716223043681
98.2649725836172
98.3477832757779
98.3878340350975
98.3605904960071
98.1540089500162
98.0906263062602
98.0943144420884
98.1289357419182
98.3038893176676
98.2744256679944
98.2552138943621
98.1635618733092
98.0933507425453
98.1116828338185
98.1094304606738
98.1626801649255
98.185473551586
98.2107082562647
98.3382456010442
98.3772123735146
98.2615598628896
98.1522176294262
98.2386425709705
98.4671164323637
98.5600516052609
98.5745029864966
98.5338556130962
98.5313280386316
98.748709641847
98.904277945351
99.2041859037181
99.2502583133268
99.4372300768271
99.418503810108
99.2532846160174
99.3544283663841
99.4628954740335
99.4284347874185
99.6457669298565
99.8151617963113
99.9371797012353
100.387192954059
100.165024084819
99.641109351011
99.5656476848937
99.3224625962032
99.5597388037098
99.9099726639188
100.038253688713
99.617581710252
99.1150356226506
99.4068867954987
99.4769533527999
99.4632190353716
99.3115813739605
99.0271230817996
99.1449979245469
99.171160402825
99.1451729279509
99.1297989389484
99.1971009376415
99.2277717968144
99.3570175457681
99.6007676986941
99.9229376422704
99.8022986214259
99.5484689581137
99.4805939176257
99.4648488465915
99.3662139450985
99.5469901455407
99.5089011974186
99.4136235333594
99.2420136606399
99.2313238387661
99.1921127715046
99.1526640424671
99.2547881027325
99.2854640242492
99.107227279298
99.2275688519317
99.1830239693134
98.8328819319955
98.66438239036
98.771362020828
98.6108262625281
98.5835404521973
98.6496275245363
98.738430478258
98.8828872547784
98.9341222463664
98.6880282363944
98.5582153970085
98.655043914866
98.7399020253205
98.6928653531777
98.6456610610289
98.7009059436942
98.6724260842487
98.4814695021869
98.528064369123
98.6096191937543
98.6690879290526
98.571232915965
98.462712038595
98.5150344138672
98.5521847123709
98.4815966169703
98.4253490825656
98.4817413298007
98.4267486760497
98.4168090674041
98.5226771055276
98.6249759691223
98.6073936572219
98.4450938579931
98.4194128184461
98.5027650231368
98.4280028392129
98.2991750697599
98.3381842875701
98.331057618889
98.3148740469434
98.3272557779262
98.3798992349191
98.4014547413022
98.3691179463194
98.3183286208018
98.3154510016953
98.3197810677765
98.3031441372788
98.2862837278669
98.3736852023607
98.4206565426957
98.3601447980196
98.3343052031242
98.3560499058071
98.2883528712811
98.2064869982914
98.3384900176747
98.3958429764389
98.4257020824149
98.4293725780202
98.3131989540709
98.3038542082476
98.3216805882015
98.3165920491905
98.3025675404185
98.3279357547378
98.3576320596348
98.3469918512969
98.4017737436109
98.4205825267363
98.383325311968
98.358096865587
98.2895984491514
98.307563075956
98.3413220065336
98.3243411388207
98.3142692606435
98.3072131827357
98.2795452759982
98.2751324048261
98.2385233920457
98.2822812431224
98.2882471073232
98.258082826442
98.2906819622657
98.2992625274916
98.2376636041709
98.2298595915347
98.2502349702122
98.2163102925919
98.162911328656
98.1121483028446
98.1274450756159
98.175563313645
98.2160727031197
98.2357310229209
98.0484958410909
97.255935644645
95.1941432419113
92.9906922001281
93.5630505883168
95.3139743725052
96.4295212230693
97.1514924459724
97.4392224200564
97.6135017986086
97.7212201988978
97.8119078769579
97.8941543150901
97.9213931852429
97.9105053512316
97.8292721516193
97.8274162769442
97.8529192362418
97.8565934664741
97.9378700095223
97.8437306599331
97.7907197400905
97.7775742271454
97.7390007812729
97.6204404143475
97.5481076650888
97.5166963522786
97.5823596384057
97.6650704018765
97.6961575770798
97.5897546677268
97.4565930556659
97.3577287232123
97.2495615462942
97.1571043751394
97.094848568425
96.9834792949966
97.016965680783
96.8971355268049
96.9140734239984
96.8245209577845
96.5965077558376
96.3506035764094
96.1427223768633
96.0290576659845
96.0653694617139
96.052532554444
95.8357375959146
95.7346495209606
95.5149118799146
95.3895489452752
95.3729386192908
95.3032319662691
95.3152279299173
95.291647139179
95.1532816477453
95.0395693198448
95.0147383053134
94.8510197425471
94.6221371948255
94.4352097894487
94.3197183022386
94.3580032140104
93.8133974846739
93.1940835160061
92.7692442673433
92.2684249668618
91.6520164249662
90.9948235194252
90.3391005591627
89.7865105084724
89.6842143193707
90.1426619719121
90.3309987743872
90.4848983913821
90.728409714699
91.1468787749684
91.4473336362422
91.8462413110727
92.1701919896726
92.2709804084967
92.443352515071
92.8850270381498
93.1249056480392
93.2569521195895
93.3491968415953
93.4791542267911
93.636955087864
93.7488788628325
93.8204042053643
93.9159103306058
94.0062101170165
94.0841868267236
94.1541617002603
94.2250636390526
94.2955085199162
94.3269146533734
94.3798761969504
94.454080039736
94.5404972345088
94.5797405419712
94.6148631182282
94.6344398083461
94.7262330264952
94.900299375628
94.928290833949
94.9535929057036
95.121974148719
95.1760950290414
95.1461825285168
95.1834830761986
95.0773978735247
95.0535209636551
95.5130297265888
95.6569261951863
95.7475243352164
95.7808120422036
95.7117848395657
95.7398774034343
95.6938140458324
95.7444704412788
95.8177542482582
95.8879081040174
96.0917960006859
96.1546178397205
96.0657803721664
96.0675464630953
96.0536121561194
96.0066484315257
95.9682658730557
95.9426520557209
95.9280644946532
95.873176489253
95.9862036109992
95.9692676372015
95.93567610005
95.8552019513196
95.6493725678208
95.5357094409947
95.4413749470994
95.4543577489364
95.6183250464909
95.5148089378701
95.3647427609561
95.2440308452545
95.1259565337916
95.1272885247163
95.1153727397745
94.9984412443703
94.9384380718042
94.9545727563149
94.918290072336
94.8602794460481
94.754592935512
94.6527959227538
94.5299269736081
94.3814074284513
94.3051928013062
94.2119068531587
94.1819245281918
94.034812932196
93.7906588280949
93.5745452786909
93.3661332261584
93.1405142669095
92.8640620349073
92.7070394801565
92.6489299551595
92.4523830325907
91.9599825836908
91.3137447058812
90.3457197045469
89.3052725926296
88.2202240162404
87.1766682683063
86.2605529568839
85.4279399599852
84.6595268089717
84.1385075432877
83.1647738923606
81.9383138954952
81.4971837804385
81.8805833257823
81.9747303930947
81.511985528094
81.0561535469998
80.383213622761
79.8246780198661
79.4656859086952
78.6617370848492
77.8924288323752
77.2053308272202
76.542897806743
75.8617177909605
75.1717086787784
74.5937212755819
73.9238427113045
73.1016806519342
72.5296547824983
71.9230831327444
71.1729919187811
70.5047866775767
69.4531520249969
68.3654471304889
67.3924839056985
66.3566318242209
64.8720970743375
63.3954612787227
61.9149863824522
60.4009322327421
58.8605777037934
57.5642611034386
56.8400501820819
56.16355778248
55.8024043331102
55.8621456975367
55.8361827554758
55.9366661379017
56.5117340261745
56.8639299800446
56.9612544233097
57.1188749309556
57.3645165992764
57.6270368958303
57.8752642101671
58.2130781744343
58.5389181560899
58.875129312035
59.2141010518541
59.4934676409518
60.0383233503055
60.6746810428101
61.0259947800976
61.2999054629194
61.6346818482908
62.0600482430226
62.4422401174754
62.8293149427243
63.2233248718187
63.6218028439311
63.9919461118363
64.4081987906782
64.8283495442916
65.1909385094409
65.5600444755466
65.9591464232166
66.270913956711
66.5884955630338
66.9442807770025
67.2973085375675
67.6283457697229
67.9628693497034
68.2765787999859
68.6046600611324
68.9470309594802
69.2801960512378
69.6221129073755
69.9770301871076
70.3049537775202
70.6273594435778
70.9461988079658
71.261977250337
71.5566658396364
71.869986445097
72.1689088008547
72.4633360034248
72.745019146773
73.0507338116156
73.3391844264203
73.6273970256959
73.9019254491698
74.1948158545158
74.4607355645444
74.7335602323825
74.9996301270236
75.2400480756334
75.4698913899625
75.698312911073
75.940088890467
76.1833471871088
76.3984152830909
76.6201615377652
76.8497152970853
77.0962913163729
77.3154534866943
77.5079260824642
77.6909296889017
77.8981209441475
78.0984379113219
78.2807861340362
78.4337832565257
78.5741894197582
78.6886450076402
78.7727265761284
78.8259032585498
78.8574856938186
78.8460547867205
78.7930466767668
78.6649168258609
78.476442318323
78.2209520747068
77.9302395076258
77.5676028639992
77.1397964999793
76.6624121227982
76.1366038841966
75.6108320226984
75.1252272582863
74.6494884244661
74.2560917646515
73.9884887898559
73.8824776052284
73.9603336217975
74.2027459723228
74.5038744581044
74.760790883479
74.9148832130702
74.973326844956
74.8779994447859
74.6278721794674
74.3075242503225
74.0375847462378
73.77483296737
73.4674849049091
73.0766389615231
72.653552331408
72.2247969249515
71.7948667007702
71.3868885484517
70.9759922822651
70.5489684675041
70.1477063856024
69.7335557305546
69.2604801976266
68.7368184454338
68.1751938068441
67.5700877961832
66.9350539329606
66.3400452071501
65.9358230034281
65.7376692999094
65.6695795971165
65.5880247558632
65.3745579568393
64.9483783027906
64.4168451796979
63.9229820894961
63.6430638604018
63.6041728975307
63.7106491890756
63.8867245788447
64.1115389218804
64.3056611912886
64.4544072678199
64.5638461222079
64.6141884489946
64.6293886013963
64.6148728003761
64.5785381460624
64.5280636413441
64.4648527216315
64.4728331234937
64.5511320901312
64.7007799975687
64.9497587720266
65.2573719912155
65.617066156664
66.0794249557425
66.5697858618524
67.1089325289361
67.668405195159
68.2628855212096
68.9197785304586
69.6096934649064
70.3010623405679
70.9765996204429
71.651115753879
72.3318669005545
73.0044157222594
73.6705580444537
74.2943710044695
74.8899154509178
75.4764946271768
76.0648955020339
76.4957545919047
76.6072684701266
76.8949831516666
77.5943638227
78.2514434615534
78.7695427779055
79.2173788444927
79.6297631950157
80.0274284223885
80.4236413425184
80.7854895409592
81.1353308194462
81.44289042246
81.73449250439
82.0003291931462
82.2814492585251
82.5589370953408
82.81693759
83.0927061080667
83.3762273274459
83.5847694109392
83.7770154627225
83.9380438109326
84.0855480147525
84.2396493817548
84.346710156882
84.3236561907153
84.2812643115587
84.3445029962173
84.5680658404892
84.8532059230106
85.1151818703372
85.3143045433184
85.4683412809074
85.6335452175022
85.8331451875844
85.9932039252682
86.0260399281221
85.9298489675579
85.9802673234281
86.2334009612163
86.5257425665937
86.7446200144739
86.9265490052835
87.1061829043452
87.2810906116257
87.4225159556872
87.5476276018121
87.6729340341103
87.8004520178156
87.9244634701805
88.0272256664371
88.1370592416819
88.227170673028
88.3160012854597
88.4136164176711
88.4746102335087
88.5492911481938
88.6487371375056
88.7257648983128
88.8071020734493
88.9068011308075
88.9637212278386
89.0218578878788
89.0947202358871
89.1479876974377
89.2081652383902
89.2873510456932
89.3462917072446
89.4003600596996
89.4699350411935
89.5417913106984
89.5983152863406
89.665822223943
89.7099112115965
89.7692733930213
89.8354115788197
89.8751199161244
89.8748884178389
89.9075551328128
89.9711171623724
90.0128210493065
90.0272235387127
90.0958624504904
90.1541656633525
90.1834662775889
90.2495566916193
90.3137654189988
90.3290286612628
90.3872431975847
90.4156040288847
90.4122903218537
90.4198708491117
90.4684721899
90.5229193164229
90.5100034309031
90.4932146736863
90.5034860501197
90.5039546443075
90.4842926201409
90.4465185151621
90.4331947192503
90.4138249939107
90.4120004714657
90.4441745054318
90.4216922135748
90.355593547324
90.317614447586
90.2696321113327
90.237404453377
90.2060996211987
90.1246820516222
90.0196845800889
89.9575681367002
89.8743864753116
89.6853324894396
89.4574123122348
89.1781809312035
88.686564904249
87.6617477631186
84.9350889253491
78.707491305122
70.2417216908306
65.8095002134376
69.0075104408082
75.6899097926403
81.0645876185586
84.2727810680001
86.0886512488115
86.8860912813097
87.1375973212857
87.6811269850385
88.1768811623385
88.3984097076084
88.5333505417652
88.579616459451
88.6197230275303
88.6579236840067
88.6087136239611
88.5760509716079
88.5844589701887
88.5332808227318
88.4748235322138
88.4605380159542
88.3855193682085
88.2523091039738
88.1548774328032
88.0959536084802
87.9768855962313
87.8353992946703
87.6807468963664
87.4903825620137
87.2985371784788
87.0912624804852
86.8719732354689
86.6166021067515
86.3446196455076
86.0471199813003
85.7714789236361
85.5386250791238
85.3640131627579
85.2403400012316
85.1322193371323
85.0835877493207
85.0747274707775
85.0582489934866
85.1719343325929
85.3728159093151
85.4878688434397
85.6159778596375
85.7602416311919
85.9021952863065
86.0051045461226
86.1836824672426
86.3698142714212
86.4758688500111
86.5382935250462
86.6116678557685
86.703993724517
86.7441568136509
86.6722704063677
86.5177578830184
86.5498937815549
86.6919971932283
86.8074479092845
86.9256657484455
86.9383241436987
86.9687856038609
86.9330732240525
86.8778269280375
86.8729318593109
86.9217068145
86.8856071985269
86.8178209481024
86.8007723222078
86.7529025554252
86.6842222374369
86.6242114454829
86.5006502869344
86.4139729188377
86.2762026993726
86.0331969694566
85.7152528579681
85.3787889020901
84.944392923748
84.5070419778028
84.0957812716448
83.9302804535306
83.5038049018036
82.7206275437376
81.412632544319
79.5769377114266
78.0030714731036
77.5677218185039
78.4678052033267
79.8675854207427
80.8640922796859
