1798
3999.43349933624
650.420452594757
1
128
4
97.2968487618129
97.2334217638911
97.2129141178011
97.2391879636854
97.2129612615908
97.0911663838995
97.1191037795014
97.1652262950474
97.1390638332413
97.0405813421145
97.0158019554379
97.1190376508582
97.2611854459885
97.2064873207254
97.2032129103509
97.2472951944779
97.2469049288887
97.1448281228731
97.1170588460166
97.0838290232364
97.1275037426255
97.1495490772753
97.1333553899573
97.1051925798805
97.140785248684
97.1020164367007
97.1519652730026
97.1499088584758
97.1076133165688
97.1090896192778
97.143365583798
97.1352879219338
97.1944930927448
97.1634548402625
97.1013287164856
97.0272631769495
97.0580570696868
97.0857747657946
97.0444342712662
97.0182836296587
97.1317361734181
97.227882034177
97.2819442939576
97.1806475166613
97.1126551750678
97.0048385558877
97.0110099046308
97.0636696719453
97.1411423529408
97.1348245126252
97.1059499385395
96.9406315321308
96.8481424974915
96.8239952311681
96.880861384196
96.9844543053978
97.089487221119
97.0769730492435
97.1517543308157
97.2876350676458
97.3542771117089
97.1755006951354
97.1139277571231
97.0860101890282
96.9973594770301
97.001493057022
97.151481661266
97.2182306868567
97.2330294962207
97.1211702928767
97.0004665525047
97.0273249419896
97.0172402966167
96.9447519454486
96.9777697793094
97.1635859452052
97.3485871434641
97.2346425634511
96.9322940950838
96.7911213835425
96.9393900595805
97.0612038088327
97.1904304831595
97.1995766516173
97.1532541329901
97.1403184722902
97.1682056192952
97.0201186605827
96.9817192834051
97.0090323985837
97.0981436311072
97.1852558949884
97.1966482188618
97.1224006372341
97.2160290441458
97.1158029982137
96.9706678821092
97.0413587948313
97.0475161713431
97.0389627724931
97.1566187382241
97.2000282729657
97.2924731909961
97.2459100324664
97.2491249152168
97.2105663569795
97.1170660247437
97.0529782271314
97.170484052317
97.2210956586952
97.2089890242527
97.1121264477292
97.1206928679354
97.2157627681786
97.3194398644018
97.2204512758259
97.2187390202609
97.2884969103848
97.2868101669721
97.2527904583449
97.1855777704548
97.2092088033222
97.3408410037257
97.2968513172273
97.1093300279346
97.0030839427009
97.1954288728902
97.1726856214212
96.9385495676177
96.9604848666834
97.1723345840713
97.2022326387023
97.1859336181222
97.0890463922976
97.0201621252468
97.0323096596865
97.1423880267123
96.9618815376533
96.9240629281047
96.8610203725827
96.927326201234
97.0274534254233
97.1003502623398
96.9197773072597
96.9726969585392
97.1281603608216
97.2612053539637
97.3300748239874
97.2648129477794
97.1828046744807
97.119896613224
97.1868312022347
97.4546326849408
97.3507920000677
97.1579217212678
96.8957533942152
96.8005846750045
97.045836654611
97.268398501426
97.180203158716
97.0611017544014
97.0931128969701
97.2571999060376
97.4609802950598
97.3195826693912
96.860948397075
96.7447012371225
96.6329033861311
96.8654662110064
97.0503011344237
97.4525328055091
97.6374011726732
97.5323189097734
97.3605732603354
96.7683012948492
96.6620352113121
96.8758693471381
96.4791458384586
96.5575693930977
97.1411130991235
97.1516184932078
97.0384421998034
97.3226381843751
97.3768436140107
96.8395168707214
96.6408876924364
97.0434812345541
97.1226579744326
96.817131318179
96.5109065069596
96.4528166761409
96.5845121850492
96.5443291616873
96.7308330767964
96.9292045294013
96.2856568657959
95.8612876478383
95.9170198902063
95.9485547904384
96.187442684571
96.4593144086669
96.4414722166929
96.3537765547948
95.7455546721886
95.6688559798262
95.9519190062206
95.7517329251007
95.4508890065552
95.6088700522539
95.7026965877039
95.5835349531634
95.6057171880767
95.7504116743564
95.876244993976
95.9563358242698
95.8520320973256
95.6035808370355
95.504791337251
95.6297143473506
95.5255941966877
95.3912887863717
95.4562316548276
95.477690025964
95.2118759893437
95.2808529045085
95.41941444166
95.4459434175812
95.2922244369507
95.2003631226817
95.1390401076383
95.0772985753168
94.9972827881803
94.9830411369069
94.7976667131408
94.7024544538601
94.6851858921189
94.7829520196985
94.8028981126062
94.8324616313174
94.6606239898915
94.5221835438282
94.5357013560162
94.4572287016535
94.3687994941014
94.3182269921656
94.2848910335285
94.3208381017684
94.2926840461102
94.3055877235667
94.2297241086283
94.1513096859542
94.0370935156354
94.0511860061236
93.9024167731693
93.7642976025189
93.6875259484093
93.6922779708486
93.6871835163485
93.7689775165492
93.7688728238427
93.6764755438455
93.5187500321788
93.4992474635587
93.4601575438376
93.4192769286186
93.3636965344362
93.3523310724123
93.2326913865279
93.1674652435822
93.0706036230033
92.9689074603597
92.9015771292498
92.9111267232456
92.8648736621426
92.758335434255
92.6263920874661
92.7030017001772
92.6378770628129
92.5327879936421
92.3992653483393
92.2962186497835
92.2953285609713
92.2422927856863
92.097631830901
92.0700248370583
91.9784765291518
91.919923311711
91.8252645337715
91.76739654831
91.5758333577744
91.4805273871741
91.5005213356156
91.4768074884386
91.2372963393414
91.0471144755971
90.9741338840765
90.8800648661661
90.736621902067
90.7221129645318
90.6929483180534
90.6128926199492
90.4352349902753
90.2249391917483
90.1310381297413
90.1572849318247
90.0271917705348
89.8896624418573
89.630686218198
89.5015777673011
89.4032700937659
89.3674132145436
89.3616380072976
89.2395517991467
89.0592379812485
88.9841451492256
88.8697362828872
88.687548068213
88.5337338991186
88.5937397466323
88.4836330505282
88.2833276290371
88.1668180555616
88.1878002871217
88.0720966441561
87.9854666085495
87.9815310481727
87.9687261016988
87.8755375714291
87.8539278455495
87.8555830451158
87.8101065840897
87.7796651541701
87.8335054138902
87.7165146058963
87.7332950355305
87.7823297031032
87.8831790641402
87.914761663546
87.9577216866456
87.9376375512274
87.982864540262
88.0098046003134
88.0520137792577
88.0367179014513
88.1571776865694
88.2247967115715
88.2598137976554
88.2494569309941
88.2818820084816
88.3280918303905
88.361264888987
88.3789084435822
88.4773244171946
88.5214167153353
88.5322301458503
88.4602101212247
88.4771268999337
88.5145182724936
88.582379579781
88.5900699749751
88.6146143577761
88.6304371435103
88.6679782648574
88.6390078661819
88.685045919287
88.6711071114245
88.6795509498372
88.6736417266954
88.6483203607468
88.6813942881669
88.7846007485918
88.7727160483511
88.7826181887426
88.819672415792
88.9084323902452
88.8504562131974
88.9266752060897
89.0875106932024
89.0775439780813
89.0592211936175
89.142589013528
89.1644550007808
89.1632862641527
89.1873073161356
89.247296546415
89.3389728934513
89.3437678303787
89.2956646471614
89.4231526155491
89.4847080401075
89.5211477504517
89.5869484204059
89.5954570620167
89.5985782242458
89.6797541207561
89.7187593889244
89.731506142249
89.662658513752
89.6811810322563
89.7156664212549
89.7197234434883
89.6616408399557
89.6721537944623
89.6663838119167
89.724741916907
89.7668417019281
89.7485600295755
89.7347234870869
89.8215657215688
89.8970821316204
89.9775407084079
89.961711050991
90.0033607615465
90.0459201843648
90.2037078001254
90.2567927758602
90.2975677684223
90.3215910543356
90.423642514277
90.4590441027919
90.412146454006
90.4787278495957
90.6692637234355
90.7202783559192
90.8008797145885
90.9001858530037
90.9858044441056
90.9807266132168
90.9417943058149
90.9045366994847
91.0027138958705
91.1292145500299
91.219784300329
91.176939774317
91.2178209108324
91.3091683543291
91.4307603743252
91.4244715832197
91.4389759679914
91.5888424116235
91.727165976319
91.7432690689527
91.7353470829565
91.7175976611145
91.7969934015204
91.9030467037959
91.9663432397187
91.9875238287514
91.9731705369982
92.0401090174403
92.1393836287497
92.2217675369191
92.3269088707361
92.3257458772714
92.3411523393809
92.3308084337745
92.4375389983239
92.5052737243895
92.544968653487
92.5766386931421
92.5982528708593
92.6038249605524
92.6364822041564
92.6040963342087
92.7014143832116
92.7530968329139
92.8108510692549
92.9337828988674
93.0137130665811
93.0089515726468
93.0311558389053
92.9902725591353
93.0069637252757
93.0483911075098
93.1472695674588
93.2003736543321
93.2403380839769
93.3008570750543
93.3767430361646
93.4404400236231
93.4848654852205
93.4856378149938
93.4396264336713
93.4197919016772
93.5381726133671
93.6169887102954
93.6365953079047
93.5843341349111
93.6208694627219
93.6733198343013
93.7126166096556
93.7731317196266
93.8065196107171
93.8707811465423
93.9363434904431
93.9268625171411
93.8739003961835
93.9530166668481
94.1013899740943
94.1089305824503
94.0446383311886
94.0745318954351
94.1541553328261
94.1618675205878
94.2157612295906
94.2192940465621
94.2500100825327
94.298680581095
94.2828565855542
94.3209275503767
94.3841521978184
94.3600945757039
94.3865143313733
94.431383175673
94.4468351673323
94.503247530778
94.5346430963294
94.5370924002481
94.5409869374263
94.5567824768529
94.6833199989911
94.6759402087258
94.6212686795245
94.6837274332913
94.7587983405064
94.8065187998509
94.7910907970484
94.8176010836394
94.8834564633834
94.8470896715349
94.8832962855639
94.8997630738597
94.9177606328823
94.9402235469529
94.9991051536914
94.9957677826446
94.9874058150712
95.0150358536991
94.9984659402361
95.013653563494
95.0571508151486
95.0845699721542
95.1277336554774
95.173833872975
95.1890708497762
95.1616277057399
95.2454439369472
95.2692726883823
95.1918551069568
95.1730156710625
95.2747974938333
95.2819507384472
95.288531096453
95.2926600092433
95.3224454526941
95.4206127069599
95.4390679981897
95.4181030480902
95.4495495005783
95.4654047182769
95.4664245684733
95.4421579896281
95.4229594575246
95.4520956806126
95.5096826889304
95.5094576892621
95.4426799651576
95.4362534863527
95.5135790907499
95.6011168308868
95.59730695544
95.5942580751541
95.5798828923482
95.5767651325598
95.6416595366188
95.6635301202143
95.6926526346341
95.7478012924768
95.7740836479904
95.703720898664
95.7147854252596
95.7405850456007
95.7649606643983
95.8580175265537
95.8538465945446
95.79525729692
95.7724571776318
95.7598093927036
95.7957773389467
95.8388145971093
95.8752058620797
95.8801612098897
95.8896078865512
95.8912769157736
95.8896376316133
95.9266399494398
95.9025908078538
95.9338164547031
95.9784962030939
95.9467816305823
95.9353686740933
95.9062690514051
95.9167430895861
96.0283085492242
96.0340464601232
96.0232622069097
96.0203729165636
96.0409430784126
96.0247097360721
95.939776861205
95.9456448687059
96.035276582401
96.0809987031984
96.0876680397528
96.1034660909539
96.1403802419749
96.1433786129568
96.1145215298089
96.0880829543365
96.1019112326768
96.1682874126837
96.2021972212655
96.2287908344723
96.203060034286
96.1821607859152
96.2054484634394
96.2162922884637
96.2157193153558
96.1870703932248
96.1567900925977
96.1641797925985
96.1736817013938
96.191509127639
96.1882376177182
96.1916140746257
96.2253660419639
96.2304211309587
96.242578454994
96.2378318816022
96.2423326522791
96.2398495008882
96.1954288214794
96.179160585779
96.1884838304248
96.1766144485535
96.1585498606566
96.1361494903378
96.1280062840845
96.0987346834215
96.1220688980143
96.1112329247253
96.0603563881218
96.0537686923244
96.0519141623823
96.0271994946205
95.9911275651062
96.0057399244977
96.0310591248496
96.0509939615407
96.0389994207015
96.0711456551693
96.0974036033466
96.1035196686178
96.0901153184787
96.0754097210412
96.0527549734674
96.0717746740847
96.1141791944194
96.099452010095
96.0765486225281
96.0495140100917
96.0894001236172
96.1166467997923
96.0763289097305
96.0385709030215
95.9237008350862
95.8524369071164
95.9225902757156
95.9153992601804
95.9044187208953
95.8987337498983
95.8537933389996
95.8932635764643
96.0180085230995
96.1192095449068
96.1571317236945
96.1827352366131
96.2123792978391
96.2726364997817
96.3091835267977
96.2725169874375
96.3077839736251
96.3372428228409
96.3384432558047
96.3664174122258
96.3722638923415
96.380032553774
96.4110559228012
96.478387811467
96.4878424331781
96.4524485061082
96.4791778257793
96.5007821011447
96.4727193349806
96.4695450246005
96.4715655585348
96.4452729891166
96.4972714582207
96.6004645472432
96.6362312295098
96.6115221442147
96.6007331858811
96.6055306486769
96.6047075219142
96.5791897979628
96.6064202605386
96.62083381407
96.6054597602079
96.5691386186348
96.541438792349
96.5528706344072
96.5141013765583
96.5646331143269
96.6132423989773
96.5872344137919
96.6042369073917
96.6095515473483
96.6242977856715
96.6129764454564
96.5868135927786
96.6243894810075
96.6899940397549
96.6958317099014
96.6712033767136
96.6013064232895
96.6331903488268
96.7117088557817
96.724675067957
96.7170435806485
96.7770357422516
96.7955999515492
96.7595329632719
96.7832599812855
96.8055265633874
96.8103625942076
96.8814571874891
96.8824460266116
96.8504442948153
96.88048434344
96.8712443239935
96.8821369611405
96.9275678956568
96.9345335957005
96.9051417698428
96.8725975736347
96.8624569048339
96.9020061158072
96.978126705117
96.9892766656982
96.9871695715589
97.0130733544884
97.0120081557804
97.0212176957901
97.1553982322609
97.0752480130435
97.0122279892144
97.0879435719989
97.1340498707405
97.0817470942923
97.1060234376514
97.1501224050196
97.1332833050125
97.1502931144756
97.1069521424875
97.0674527796407
97.1227189759839
97.1006779981053
97.1781468754049
97.2380505535532
97.192366751866
97.1431018837327
97.1302824570741
97.0623254133322
97.1330394749934
97.1972050940272
97.146682713479
97.1245710590249
97.2197646940408
97.2546612323713
97.2469265202458
97.2601076220083
97.2666464021839
97.2020527260102
97.1891890160525
97.2544548900765
97.250126233113
97.2021424592747
97.2050897195884
97.2167970922951
97.1848526934894
97.2504445040537
97.2982760603227
97.2191460778493
97.2124833136401
97.1639031990457
97.0607448661114
97.0428960630347
96.981823094814
96.8638039347247
96.8960341504211
96.9525223528687
96.9439998964797
96.9945975010152
97.0395300283436
96.9611526769886
96.9446041067361
96.9632469454286
96.9714643799961
96.9846403232266
96.9859194120509
96.9014775498108
96.8917078410762
96.9491408888912
96.9619832155373
96.8972959969838
96.8737215840028
96.890632768254
96.9012890795009
96.8798554570111
96.8194594417076
96.8471979840829
96.9392991154259
96.9722420560861
96.8907196526512
96.776280040911
96.8070809170395
96.7926831998422
96.745678467187
96.8431626733651
96.834378583961
96.7292822811108
96.6152622310476
96.5440934686802
96.5509021542887
96.5435015243097
96.4916112776528
96.4051361253917
96.3922655713598
96.4410784282795
96.4883884898577
96.4914222914861
96.4598666255532
96.4175930151911
96.4130460237762
96.3458161071465
96.2196983038239
96.0284308366245
95.8096535004847
95.5456559300954
95.2604267549004
95.0357860807157
94.9728986479682
94.98760382099
95.0574108793053
95.1995884541737
95.4538093763019
95.6978989604624
95.8518911726446
96.0191660901156
96.1439651781828
96.2345047669871
96.4612776999215
96.7329452611651
96.8107390821582
96.78845533847
96.8100042268506
96.8573862425861
96.9179033874172
96.96304081789
96.986838802136
97.0366174486219
97.0853196681312
96.9268708643128
96.8446986105424
96.933347047635
96.9563492658399
96.9881147296469
97.0408674472088
97.007018807298
96.9957778498269
96.9283109124956
96.8812954406647
96.8710332939986
96.9135605198058
96.9789574219931
96.9189966000387
96.8431269889433
96.8215625317266
96.7553156849122
96.7307783752998
96.7290448268475
96.7012997842895
96.676322305855
96.7387960162365
96.725774862507
96.7091611824865
96.6973499902296
96.7548341265377
96.8281324677451
96.8596172125575
96.7974175064367
96.7402120247301
96.721071468766
96.7288578666533
96.8586347979666
96.9246388590247
96.8851935987056
96.9223835976572
96.8626016690697
96.6860052747816
96.7047666600343
96.9578737062798
97.1194220690582
97.0844802834851
97.0396760171603
97.1091771160567
97.1123801552028
97.0592983976836
97.0087447446392
97.1538892713466
97.2459497435604
97.1402115393079
97.1463398142369
97.3032190193886
97.337046590381
97.3768437004861
97.4279707738747
97.460573912514
97.5478569412607
97.6338533082534
97.659694423646
97.6130442188335
97.4834867266522
97.5034863534914
97.5572637819059
97.6083040205597
97.7312427713947
97.8937703534522
97.9633979392502
97.904977355265
97.7920071531058
97.7064540756078
97.857771243528
98.0538813611765
98.1226008952225
98.0667528248607
98.0667720104642
98.1584646014884
98.153715711036
98.2187002584814
98.0262846070105
97.9335851829904
98.155441102799
98.1989835228865
97.9703028356139
98.0010324501738
98.1451113926632
98.3455936816898
98.6397780087574
98.6421799009886
98.6110927400033
98.9872281626837
99.1525904378676
98.9357644802155
98.6479432040634
98.6457793364713
98.7000651635165
98.7422902884744
98.7722365880691
98.9914530507461
99.2246253226057
99.0332932880894
98.6483207480947
99.0651746370458
99.4425539064291
99.5201331964155
99.6693588612655
99.6161731590226
99.4673105058509
99.5936606732875
99.2398318736259
99.023475666328
99.1666585710344
98.7735403571341
98.3257792800659
98.4915516861869
98.6213379146094
98.659609719082
98.6562844596394
98.525308624919
98.3836014326204
98.2535058929264
98.1099156765312
98.1224706839479
98.0271076528937
97.8582789743706
97.6828032438696
97.6825259908105
97.8083128929201
97.8994017276926
97.8072942741307
97.6752315463115
97.5999367763816
97.5109756699772
97.4035691848225
97.4512179233062
97.5772307969288
97.6390807511531
97.5291804797334
97.4255552619976
97.4237513840814
97.5784015749649
97.7758030338426
97.7143886698593
97.5327746324497
97.5805653851606
97.5713539593736
97.583395344592
97.7705476143574
97.7290336100528
97.5423693205665
97.566245024823
97.678820984869
97.8047117145905
97.8387409620136
97.7183850799122
97.6998645959989
97.7702852142255
97.6884935221827
97.6329984643209
97.6980644217298
97.8235916000387
97.8875290653434
97.8824854202607
97.9823478108252
98.2502106208691
98.1706871228801
98.1873359508685
98.5259362835719
98.5337013520151
98.4411060292425
98.5706085818201
98.7905785711406
98.9019800888002
98.8111539294881
98.9826300240905
99.1065725625492
99.3019253676728
99.142847606362
98.8634712410149
99.0630464190332
99.2663503275297
99.056350840818
99.0430213462377
99.1613606273309
99.1379768937534
99.1114685933665
99.1732683723788
99.2845045062295
99.3365123285906
99.0106217657289
98.575712993846
98.5177027170633
98.7798112894522
98.8499130930854
98.9197287540986
98.9689446010835
98.8682065624471
98.7158589358752
98.8762709441172
98.9988308339061
98.8691814785403
98.8563036478183
98.9451008654772
98.7341626017294
98.7050604898422
98.8191515817102
98.8482474659108
99.1396485122897
99.2800601492687
99.0430764890284
99.0116515106469
98.9230995559444
98.9338693444393
98.941738911546
98.9240942042183
98.7976128678741
98.8290412201808
98.8371538910118
98.546586335434
98.3693770690867
98.5610754412667
98.5865509045881
98.54854721201
98.5310706242215
98.4011919402508
98.3371928169709
98.3154670264133
98.332214065017
98.3653980417884
98.3066196063865
98.2304233288069
98.2682691431734
98.2934458161424
98.2387564445383
98.1509143253578
98.1166072201496
98.0269605557774
98.0882240987741
98.2962014323191
98.1846380069812
98.0479284510838
98.0555825784261
98.1017111641306
98.1087482866831
98.0983373821396
98.0370651465231
98.0403495481985
98.1194435391651
98.1899908054332
98.1552506922828
98.0548254944934
97.9709380627544
97.9044745023033
97.9189213793572
97.9641349281185
97.9883233633823
98.0068179068039
98.0400796373096
97.9647688982863
97.9399374355459
98.0183000960264
97.961167197203
97.8043960421454
97.7930317906674
97.8347532111975
97.8526305893138
97.9367957331541
97.9561783659354
97.882948268283
97.840834376729
97.9081447878966
97.9752208640623
98.0042813445926
97.9843525678177
97.9076882568005
97.8611012313713
97.8436793134813
97.937334466098
97.9236588076551
97.8789996565724
97.9288476472185
97.9895773740384
97.9552398030337
97.9028483782379
97.8734448538512
97.9251546147286
97.923502867567
97.9478994025167
97.9593709025058
97.971047306808
97.9881954075972
98.0229435429611
97.9907042949452
97.9441085017257
97.934314473541
97.9553606794386
98.0022464323286
98.0060357267795
97.8954865916938
97.8138919809236
97.8769925051276
97.9341717658974
97.9044767440042
97.8564619007971
97.7690814685113
97.7895593035232
97.8566276932492
97.9140033679974
97.8244243101024
97.7953185624943
97.7805424898811
97.7941598553851
97.7865018241831
97.7890760585717
97.7278793683483
97.5891895284505
97.520976135482
96.9319614279791
95.5107229805811
94.177534444185
94.5316218041176
95.6199931182013
96.3836769949897
96.8453589991709
97.1486431685599
97.1732223730131
97.1264539495437
97.1950020141362
97.3021317068374
97.389984617888
97.364098672896
97.3821449747776
97.429981531837
97.425781456725
97.381841823386
97.1632555238808
97.2115187231645
97.2309155578066
97.321514900483
97.3333382982288
97.3560613788534
97.3524467532729
97.2469274152702
97.0232158308169
96.8807496160022
96.8975257070784
96.909251950173
96.9451579557577
96.8659930701108
96.8088500680817
96.7730315688473
96.6489990521142
96.6271743513262
96.2892871258284
96.2346609629795
96.1532224233122
96.0215106745684
96.1134535279378
96.0653404420687
96.0015753527984
95.8233858530483
95.511080433567
95.1293660012372
95.284326360578
95.2608587220527
95.2380591520461
95.0501515951256
94.9212559859613
94.8625385233289
94.6847886487331
94.6630745202757
94.7370327316872
94.6469416595415
94.4481160104392
94.447506649106
94.5102014794534
94.3497887964856
94.1442907324982
93.5999753478029
93.3225205026643
93.2069993441808
92.7054231575615
92.2288193693774
92.0040860640191
91.6962045739518
91.3058727460357
90.8898484035107
90.5119678608406
90.6520689961341
91.2291001077002
91.5558873166483
91.843402181437
92.0906740341524
92.25909668604
92.4145344678804
92.6925775335237
92.8777604064387
92.8681157093349
92.9198092990469
93.23354120399
93.4224183634673
93.4628719526687
93.5610051903913
93.6610635798888
93.7421246565052
93.7961182951648
93.8944640981183
93.9649359815959
94.0326244723654
94.0730935019789
94.1569328238235
94.2260334565667
94.2847364445927
94.3225740245556
94.4256362199675
94.4978403364679
94.6021134522592
94.6471108400077
94.6366515814116
94.5598710123284
94.6857034919161
94.886053138355
94.9085106203776
94.8867684131413
94.99705571244
95.1468282530778
95.2820762202357
95.3380806799802
95.0265847860641
94.8474882567122
95.2431313534192
95.4370571983399
95.571409783724
95.7190931575606
95.7680353763016
95.9395321661541
95.9301966406925
95.8623747860555
95.6706242010951
95.6493865933362
95.9268880505011
96.1049157569893
96.0702864805446
96.1284814069893
96.2317503963462
96.170787229268
96.1582284691256
96.1166772461498
96.1042864784912
95.9563529233979
96.0162284133743
95.9524588213896
95.9626510256567
96.1184423394492
96.1118151473476
96.0235544002879
95.7105375616781
95.4878575818646
95.7726512999013
95.9409656224638
95.9280516204719
95.8373347900869
95.746763607382
95.7755294537157
95.8187840708439
95.6261170621467
95.4374468984831
95.4797425258135
95.5143965097102
95.5557557743897
95.5052186448347
95.4268533348724
95.3644192030143
95.1798193728071
94.9792408045761
94.7081208073939
94.6892103513164
94.7015795616446
94.4890161150722
94.2137993106671
94.0864731899611
94.0274079317791
93.6832524407061
93.1637637738824
92.8045785649797
92.7103952775949
92.1587762628906
91.423185270376
90.4585957674218
89.5406305481735
88.8209213009547
88.1737565335824
87.5388137876355
86.9525206721245
86.0374493763949
85.0825247626456
84.442796899499
84.1065651646375
84.3159936402694
84.4192481295021
84.0978920473427
83.4757906139418
82.9201774400694
82.2204493134005
81.297256000966
80.8066933708569
80.3177757028787
79.7113426878584
79.0376886954052
78.3931278894984
77.7479322475294
77.0078325096588
76.3180733806338
75.7823605740764
75.0369933771788
74.2680426870333
73.5994197234627
72.7691578086941
72.0608634460948
71.2495049145956
70.1402125380573
68.8271374975006
67.6757881755134
66.4662059466016
65.1588580019569
63.8887209351453
62.7114816278119
61.7356706215294
61.0755209921467
60.9610042553352
61.0202996988623
61.1355037118947
61.3388485083909
61.4575935463946
61.5207677620916
61.8230669408105
62.1474306358916
62.3355694457112
62.4768249224287
62.6690938173404
62.8817375359209
63.1148256686166
63.402050552896
63.7286337236149
64.0406235988245
64.3535736973094
64.6304148316578
65.0280489822461
65.4958589467148
65.8622203337779
66.1690761078284
66.5098164053545
66.8575823578825
67.2090980528072
67.5774457939513
67.939415706737
68.2621603496549
68.5826464399968
68.9438263929254
69.3178279639553
69.651825779101
69.9776166838903
70.295086983958
70.6132806278455
70.9503663485572
71.2709218840253
71.5676492661147
71.883247160601
72.1736608907897
72.4739302484975
72.7750931499979
73.0649888857656
73.354872003108
73.6426371122154
73.916901071772
74.2240952150004
74.5314734216043
74.7971321892534
75.0464987146038
75.3235323751845
75.593394739491
75.8622227572638
76.1033179468275
76.313029296993
76.5432494755417
76.7948684161493
77.0192994553256
77.2480269122083
77.4794401928919
77.7091769663509
77.9443309651548
78.1686706471962
78.3596391952785
78.5440563406994
78.7452886917916
78.9381290450213
79.1095221987137
79.3089034409938
79.5082047359384
79.6889925625118
79.8638202399416
80.0496455732959
80.2174498645373
80.3801995297482
80.5514293928603
80.7068784150647
80.8193169154919
80.9192634749338
80.989789341615
81.0650029064972
81.1467015695993
81.1840846558152
81.1583449640357
81.0984338713686
80.9764732114928
80.8061858945447
80.5820388986942
80.304846792097
79.9724268700421
79.5745947807437
79.1201650521564
78.6672152317056
78.2121471390285
77.7629789699892
77.3712543996626
77.0801861824739
76.9155994624012
76.9605741372175
77.2040517991848
77.5788799823018
77.9874701601095
78.31263734461
78.520628895522
78.6454628045118
78.6260146883673
78.4936160908223
78.2861608206212
77.9955096871
77.6301201689121
77.2226586966286
76.7649518005599
76.291014551272
75.8157453085009
75.3239875032371
74.8174273801672
74.349973393947
73.9032517003362
73.4813136357019
73.0515277683231
72.5958356828079
72.1015846372679
71.606300136479
71.1121090400201
70.6553550121316
70.2721387669947
70.0208623692474
69.943903448983
69.9889543931965
69.9777500487186
69.7813600913376
69.3799182448135
68.8640285680641
68.3724604596335
68.0708555942277
67.9785121833878
68.04452505476
68.1547692548593
68.2402517983208
68.2847968863187
68.3309025642188
68.3428739665445
68.3041734599285
68.2136948526793
68.0579289407525
67.8700803112338
67.6988385900824
67.5094008967564
67.3513270114204
67.249061116941
67.2286280748884
67.3046664517053
67.4662474369824
67.6937937540916
68.0146630570143
68.4104473878567
68.8521628422299
69.3079588011483
69.7969062761825
70.3158675589736
70.8787630025848
71.4595272266017
72.0214961044266
72.6014150713796
73.2407537250509
73.8302761952049
74.372977000495
74.9038061920903
75.431176708329
75.9575122625894
76.4731742662169
76.849150510853
77.0352309155955
77.3203492977986
77.8785012473599
78.4100283505645
78.854570170323
79.2761149104885
79.6737121430889
80.0459234725285
80.4008345043339
80.7265751254886
81.0760292547879
81.4045214560111
81.6814068674603
81.9593225583312
82.2431719269439
82.5022825373471
82.7364709635915
82.9556229102781
83.1660440129089
83.3719501355598
83.5742758446478
83.7220409256704
83.8518079811996
83.9719834017674
84.0607113798692
84.0742620752562
84.0463518256226
84.1207666352742
84.3321723673818
84.5560364619105
84.7405005606946
84.9187048490614
85.1155466875752
85.3168950175457
85.4887066090914
85.5806061347843
85.5878630138537
85.5277838506225
85.588905667004
85.8228904351383
86.0670117662538
86.2595773006154
86.4265851266952
86.5844114633596
86.7258960135169
86.8363958378251
86.9746408983874
87.0940284050591
87.2068246467639
87.3176353308304
87.4044521775731
87.4954333983438
87.6072393425524
87.696553061099
87.7507280541122
87.8015258548919
87.8928872243866
87.9951049584558
88.0738370565726
88.1262947478987
88.1993733519403
88.2505706090488
88.3021088598212
88.3827181927546
88.467914422962
88.5546078054805
88.6261204519123
88.6634229562985
88.7418487235202
88.8052676508363
88.834440064079
88.8711335940697
88.9378375346491
88.9945410469784
89.0455129829299
89.0903486901924
89.1402356770763
89.2046065682955
89.2594038320212
89.2806983149463
89.3232981486352
89.3713262544515
89.4056967490105
89.4135256538034
89.4553263727881
89.5174655395739
89.5229362406272
89.5375987458882
89.6161848673408
89.6736203017127
89.7006147190651
89.7070467544297
89.7215808175478
89.7418643596676
89.7581860704679
89.7410219490602
89.714680627528
89.7264843471885
89.776883666185
89.7698119787666
89.7208591943917
89.7243840883736
89.7746348154825
89.7824876464915
89.7715722949428
89.7557421893836
89.7439143917441
89.736995704056
89.7573744089928
89.742488884945
89.6991340731789
89.6278188817769
89.5619754515791
89.4867189439919
89.388251057598
89.2402265241304
88.9964096336274
88.6159104551722
87.9042464836253
85.7798375384971
80.6917831931322
73.7485365047326
70.2084115236278
72.971531941919
78.3418605968231
82.471074930769
84.8687190103523
86.1036994876333
86.6546337138023
86.8987587788735
87.2691326510665
87.6125672231479
87.7844312442827
87.8765132515491
87.9393109085849
87.9741237541306
87.9894794421419
87.9803701898863
87.9873765736323
87.9580595651329
87.9124870182617
87.8364393350249
87.7717250559431
87.7135355205654
87.6657484319244
87.5927961320499
87.4842803091887
87.3426584275699
87.2089286069715
87.0797142685904
86.8990247176205
86.6976151491353
86.5214365190655
86.32201168025
86.0813891054434
85.8090507729094
85.5477448213122
85.3008432270038
85.0668880892813
84.8875263751426
84.7385046418272
84.6011994946138
84.5894689959922
84.6174725678582
84.6553124190966
84.720570658713
84.8076058038859
84.8989953010791
85.038883638683
85.1316540787115
85.2163751441609
85.3331162152827
85.4686670659759
85.5546796477195
85.6238666056136
85.6898421628936
85.7525073947371
85.7576581647475
85.777576292286
85.7593209949483
85.6406700903659
85.5723211248536
85.6899691203799
85.8119886133408
85.8832014110354
85.9442720616328
86.0150344471666
85.980565685368
85.9381048407014
85.9097927497114
85.8962919091606
85.8880971628047
85.8790581769531
85.8732218486572
85.8845267217235
85.8603992826586
85.8354421323434
85.7806287104136
85.736259290149
85.6672855934253
85.6398543780332
85.4511843594234
85.2569786318808
85.0707541102483
84.8271144936502
84.3992366288428
84.1422177071442
83.8371431597952
83.0492914708181
81.8631147604281
80.1440007550505
78.5293379050208
78.0315658586671
78.9376841627574
80.3308472307165
81.2425303855413
