1798
3999.43349933624
650.420452594757
1
128
4
97.2967975949341
97.3379520163473
97.2302017769051
97.175272977836
97.1738977157232
97.1243108110532
97.0836961394666
97.1079963072287
97.1757392789432
97.1420761406928
97.1397684810351
97.1944946745178
97.1994271597235
97.1811853964867
97.1662309115502
97.1077544029744
97.0676872228557
97.1366524002387
97.219060557372
97.166340227261
97.1235448735163
97.2084135837979
97.2658045347193
97.2168210429188
97.1293251477732
97.0869451337475
97.1111583899206
97.1126586303423
97.1886072509891
97.1814889450319
97.1249270806152
97.1617357287448
97.2299209567198
97.2163116566242
97.1770837861037
97.1759426240667
97.1224771494942
97.0543970132612
97.047181768433
97.1277587625908
97.1519335792399
97.1414657606452
97.1455484754981
97.1801824036078
97.1308685845091
97.0349618704494
97.1160046137803
97.2509273940467
97.3503508637413
97.3914193731163
97.3029135961998
97.0971634019612
97.0653541534773
96.9960334747144
96.9809386900873
96.9876938269255
97.0680923144239
97.1533184897937
97.2387954584514
97.2912552821529
97.2291080259643
97.1434616691979
97.219472936807
97.1994928837382
97.1840009346146
97.137258016232
97.1700376416533
97.3124551302392
97.3225386762051
97.3102900522264
97.2471485199802
97.1743295528448
97.0898516883341
97.0974775595954
97.2960059553011
97.4218956925795
97.4425869095224
97.5033430023078
97.3307922761108
96.8161093822499
96.7820604823369
97.0178551436208
97.2329497347582
97.5339904520275
97.6031303062061
97.329434594455
97.1797936708114
97.1095670803493
96.9730059266567
97.057750310562
97.1271708974603
96.9083157869899
97.0682856564269
97.3943759587035
97.5704567030517
97.5515187228451
97.5326762747896
97.4509793465827
97.1940112490046
97.0161227678569
96.9521575321252
97.1295110864349
97.4163397466567
97.3237819462653
97.2207903510548
97.1892564946888
97.1423203639281
97.2448460526916
97.2516746149462
97.2381176066488
97.3975899755411
97.3911361329415
97.1010563417362
96.8343396200753
96.9902504847046
97.4107355908864
97.3387007205471
97.0939954309904
97.0611175365114
97.1771089308612
97.1592648462282
97.1034983243041
97.2115044690978
97.2611395118346
97.2582389150183
97.1646530393694
97.1251265887938
97.3495801660483
97.6196977586284
97.6191322480495
97.464180912402
97.3937522785909
97.5895728527411
97.0513181191793
96.5555271380494
96.8019164963849
96.7886790637252
97.0762501960284
97.5812494413869
97.5981989561207
97.299114412801
97.1527840188163
97.1740329803325
97.119698740335
96.8016769700402
96.8270349821754
97.2049153724796
97.3106045590966
97.3778759857401
97.1928885195907
97.1720325104122
97.2798241002144
97.5019564367043
97.7589087344973
97.5290676110739
97.1299336565254
96.975916213882
97.0370296546692
97.1243330750961
97.0272808947642
97.0555147797598
97.0938008040264
97.0178969732842
97.2151586345014
97.5041867612882
97.4474068233828
97.3077535119959
97.0119743304423
96.8148038121588
96.7949848681904
97.0127955748441
97.2967969787558
97.3306676958917
97.1606602084336
97.0901287563176
96.9951008735145
96.8255744686931
96.6472827045552
96.5877681913518
96.6260751669716
96.7245596026864
96.8104457403923
96.7522944109054
96.693722156702
96.6420883266121
96.6953077549418
96.7353245645112
96.5690076404381
96.1730008425611
95.7941854392833
95.8431214818221
95.9453886769195
95.8523069530425
95.8099508031891
95.8855741351313
95.8870648911779
95.8550590579693
95.7628333302375
95.5944485483408
95.1945699298087
94.903381749507
94.8779069174325
95.0105591079021
95.0774401153648
94.9397691164118
94.7202510488952
94.6463345938331
94.5790898386512
94.4642618860031
94.4050679339738
94.2941504791008
94.1555811150013
94.0250245482083
93.9389846678548
93.8496499347374
93.7916178677647
93.7809122134914
93.70138233078
93.6472738648753
93.5449793018831
93.3275926919506
93.0025456548544
92.8601627938748
92.7897472999651
92.8620685947955
92.8482948991696
92.7037029778564
92.7154553409237
92.815822995215
92.6166452039487
92.4045840994845
92.3328261239633
92.2151811776126
91.888709390077
91.7115777125807
91.8111697247198
91.7891611577355
91.6251448493322
91.564974150891
91.4720354908151
91.2893334696632
91.1277993309732
91.1166057405136
90.9469385298343
90.8370529282513
90.8854550203986
90.7366843165104
90.4925370487806
90.4938484245309
90.4279381071105
90.3193524322684
90.2925243777866
90.1993587446274
90.0204288760884
89.8807177366656
89.7746945397145
89.7172519671935
89.6350784864904
89.6445144774472
89.6207670062208
89.4464585071233
89.3163783953694
89.2553368376244
89.1430844685869
89.0120249925039
88.850331562345
88.8318976410618
88.7343409336003
88.6167962031863
88.5692727115058
88.5003464783452
88.313800980339
88.2464053778843
88.081099418196
87.8572543899621
87.6840662620522
87.6108433235633
87.4860034450522
87.3472303113855
87.262864942601
87.2071319358608
86.9838994930992
86.8832964256555
86.8518607259779
86.7229872093353
86.5066893803468
86.3592657703619
86.169390336171
85.9421106932697
85.7270271519622
85.6755858332712
85.6306582404224
85.4501754796492
85.2219972926178
85.2010531949715
85.0668180956171
84.908188540579
84.702300708227
84.5525173412916
84.3985619715259
84.2779902484929
84.0229669952214
83.698036859906
83.6163307009387
83.5695281995511
83.2863646676974
83.1208698483789
83.0008812809534
82.8061886638543
82.5263720090113
82.4285605064958
82.3585469041882
82.2835208793103
82.0407724274004
81.8425236705852
81.6553190572645
81.5612144353399
81.3307037735762
81.0823243719541
80.8808645107402
80.7477080688009
80.6132597785077
80.5038951966687
80.3915413709711
80.3255640740884
80.1387554973918
80.0502574235253
80.0456172258173
80.0688263420644
79.9330675415768
79.878093491044
79.8891360238301
79.8966612788917
79.7442505995675
79.779534804974
79.8514056550237
79.9141178212347
80.0250403055699
80.0888745091481
80.0664944424344
80.2345602251046
80.2791408905848
80.3348839631644
80.3140102638535
80.3472869975193
80.4032996259924
80.5050478844806
80.5662014640041
80.5575643339108
80.637998406352
80.7912414893952
80.8108787066421
80.8255097513885
80.7570111216553
80.8193585366742
80.848776515473
80.9576547877267
81.06281820426
81.2024664245873
81.2343026138099
81.2324035616708
81.2247561828265
81.2819350763178
81.3105357001019
81.4095215263372
81.4113103228052
81.4068886328952
81.4561314383121
81.5957705323612
81.6518887538432
81.6381037998307
81.5961364379356
81.7063010291294
81.755005050694
81.7784780387817
81.8276325474236
81.8924019996037
81.9493971811193
82.0845341494454
82.1691369213429
82.2844313559474
82.2826730664505
82.3917274816195
82.3901589369863
82.4175976574451
82.6060145231471
82.736387139257
82.6918117487333
82.6969386493607
82.7676366886521
82.840220450389
82.8964025048574
82.9977174174518
83.0576809743829
83.0353417102734
83.0559215910983
83.1925217878046
83.2101342844782
83.1781675879145
83.1905443790355
83.2581562180246
83.2242132107495
83.2201966481408
83.2380158133846
83.2628084544554
83.1091548921192
83.0836896805326
83.266752410353
83.4864914755448
83.5798815360033
83.5431478243749
83.5194928467455
83.6100107026605
83.6928108161909
83.8773624849213
83.9912799090708
84.1085447258736
84.2798126088234
84.4024817759597
84.4891656992563
84.6522546139713
84.6664696978537
84.7549308827846
84.8855146794803
84.9269177289957
84.9784242985169
85.1778369658428
85.2885348541236
85.4022364101157
85.4377743291188
85.5286851034428
85.6491779659256
85.7544059922857
85.8151386188118
85.9644381897923
86.1093700455137
86.1476114948605
86.2204679144055
86.3305145763782
86.4279516851318
86.5178089550928
86.5489784751608
86.6812980775752
86.7901566730142
86.8998235845832
86.9840355990011
87.1153614971094
87.1638776328766
87.1741086536401
87.2803101170546
87.4245843053111
87.504801910264
87.5845405688263
87.5924063493132
87.6897501650038
87.7840703014074
87.9193506534505
88.0411111111298
88.1224948393924
88.199282798189
88.3702542385605
88.4436292491689
88.429657726652
88.485888909638
88.5860280034646
88.6671978368389
88.736004329494
88.8293399681545
88.9739811425499
89.0272691694734
89.0953201143603
89.1246422857776
89.185561180833
89.3236416789262
89.4480057401263
89.5101274918206
89.5483973784181
89.5165515541154
89.5799524355927
89.7813344870549
89.9391317043289
89.959687643182
89.9938466056445
90.0152711263265
90.1577975176884
90.2320892856985
90.2869222988807
90.366134721299
90.370303090981
90.4165915690299
90.5381432176193
90.6330648558103
90.6246936651103
90.6881092743408
90.7645368513401
90.8694531640078
90.9416194831971
90.9894209756408
91.1407512803113
91.2262748680814
91.1898574389048
91.2690592159797
91.3926246710292
91.3999176465907
91.4294795390693
91.5208477792554
91.5853325532598
91.6123570396407
91.6657733744749
91.6502972524498
91.7404034249006
91.8598761294203
91.9437156666617
91.9829085208156
92.0028903133085
92.0348920735455
92.1100128045537
92.1956918840884
92.2115670845827
92.226216306757
92.2736880849868
92.2784344112436
92.3687288104362
92.4451261314022
92.5406235363616
92.6161097239766
92.6642093630135
92.6991401876673
92.7363415545827
92.7423022267392
92.6859883868959
92.750510664731
92.929456619728
92.9488100232398
92.9029010304639
92.9269744905293
92.9765643516348
93.0432805040398
93.1016560789112
93.1798246555759
93.2913892920082
93.2478850448365
93.1965015631371
93.2797398147336
93.2992354037493
93.2908896252395
93.3562601598388
93.3405372407184
93.3723134513909
93.4467528320705
93.5307876966076
93.6024369420285
93.6071440423509
93.5949551627596
93.6709920341709
93.7381505541403
93.7319207329163
93.6983891597563
93.6930507397946
93.7794343433396
93.8588121535477
93.8582292678535
93.8572341732025
93.8825515700994
93.9366132784776
93.9712489845826
93.9779218430042
94.0088494346037
94.0260173801048
94.0065070021898
94.0398522703693
94.1046806864449
94.1319850639893
94.1730866120936
94.1889217920995
94.2278971224189
94.3401570532939
94.3930835291893
94.3676729069763
94.3310852025793
94.341594448259
94.395799641001
94.4622752809863
94.5340633577459
94.5840474839389
94.585142018167
94.5541689999777
94.5637005034116
94.5798697223167
94.5776770055212
94.6190300463387
94.696754382262
94.7608245236621
94.7935461990882
94.7811312800974
94.7072294364544
94.7316369465048
94.801322642659
94.7898564239105
94.7871645297611
94.7971135502205
94.7831945011987
94.8076015982327
94.8844530065837
94.944797112493
95.002011483153
95.0143137293811
94.9729053624865
94.9728900540489
94.9925390748735
94.9624843819854
94.9859207127976
95.0599692970841
95.0791734777549
95.0871747313089
95.0749825402906
95.105233891277
95.1765432564944
95.2351154271046
95.2651602020476
95.2369402685253
95.1742992773555
95.1999350398541
95.2798753035708
95.3624041236771
95.3728414256625
95.3362033582407
95.3211934131844
95.3112629338902
95.3322212758799
95.379607302486
95.3954837331722
95.3572026368562
95.3374946993628
95.3762125451564
95.3870313344834
95.3620828651684
95.3941997287438
95.4560712898992
95.4235315899339
95.3711768637745
95.4079307004331
95.4060442893382
95.3306150367183
95.3851856290876
95.4279417045372
95.3845815302159
95.3423630892498
95.2903126115212
95.2985974412066
95.2883431137052
95.2128648350593
95.1712502050202
95.1739508415316
95.1896602442728
95.2274729988961
95.2216205899185
95.2734616749901
95.3139012280939
95.3282878830574
95.3631561815549
95.3503581264853
95.311274079208
95.328730592879
95.3721037344939
95.3547706146439
95.3505830829882
95.3688601610897
95.3518848626849
95.3473415972252
95.3564051761504
95.3480693268314
95.3951971474239
95.3935802815713
95.306761718406
95.2726618408567
95.2487136151631
95.207830173236
95.188248380294
95.174660521217
95.1409760291453
95.1177663138819
95.2302396370372
95.3812174190743
95.4638894425523
95.5168508018257
95.5828592135104
95.5897928578245
95.6064692844764
95.6363434280401
95.6541860901337
95.6937923671622
95.7566463757727
95.7472271543668
95.76932394859
95.8207041818616
95.8368140301326
95.855732466146
95.8647397026802
95.9014375332347
95.9096077136319
95.9160898068744
95.939117491336
95.9801035953979
95.9946530732983
95.9534754045443
95.9324815123878
95.9781939189587
96.022486360922
96.0602092184654
96.0979876209249
96.1102796805573
96.141295507732
96.160566969257
96.1470857882603
96.1519900065367
96.1263791953917
96.0964642251508
96.1184760032649
96.1292164053067
96.1169375169994
96.1605338076457
96.1976456421312
96.1661122633667
96.1317282819481
96.1800405899974
96.2199729285495
96.2341833392443
96.2412766341667
96.2738711711625
96.3232538288772
96.3479775567089
96.3328171799615
96.3315766393118
96.3061540490242
96.2664537026997
96.3399824039857
96.4768753961775
96.5565730576488
96.5325706756982
96.4722285070809
96.4785484074413
96.4932070590518
96.4653875306226
96.5090493066653
96.5679701159429
96.5937370034461
96.6237639442791
96.5975755602556
96.608831565404
96.5915363662446
96.5913929310322
96.6097018181167
96.6290411745385
96.6827879042526
96.7286372666092
96.7060939605635
96.6805022855501
96.6492271454049
96.6462982825023
96.6523178789503
96.7127498490899
96.7970251305272
96.8815437709695
96.8947435917604
96.7696048694963
96.7073257280136
96.8125836816983
96.8927144281587
96.8696216134917
96.8763257688514
96.9250291259931
96.8870083233448
96.9212416513567
97.0005800229724
96.9782127455577
96.9296346228026
96.9537154000131
96.9584283305902
96.9450934774685
96.8775577049556
96.8705642780993
96.8598547339377
96.8385683720381
96.868321288934
96.9543543657144
97.0182673197662
97.1126278877911
97.1061927910898
97.053918133983
96.9588386894809
96.9269423007002
96.9572016822225
96.9827876534647
96.9981526286004
97.0277285614232
97.0356266586871
96.9807817718255
96.8764885016344
96.9147105427243
97.0040897828455
96.986457288755
96.9123134151502
96.9056337603436
96.9890493912195
96.9194946583874
96.8102674850351
96.8385111898238
96.7521291110609
96.65385063804
96.6565993460201
96.6475564475774
96.5965536372734
96.6064374240624
96.6179260347252
96.5851518992052
96.5593261037006
96.6048787553427
96.58202525492
96.6297602554783
96.6932144951353
96.628815394994
96.6200487060899
96.672842550734
96.6519717602722
96.6859372922006
96.6578437282174
96.6293114786917
96.689681790156
96.7049265253147
96.6108737418222
96.5541788113487
96.5895729345876
96.5221379274608
96.4572076076772
96.4194991880959
96.4006206007526
96.5137707142627
96.5346659680325
96.4046278062597
96.2680737200339
96.2604830579735
96.2326045223994
96.1261118436286
96.0230245431115
95.9900745185507
96.0159173555088
95.9294368507906
95.8488025412687
95.9066074502816
95.9531422989318
95.9882290983499
96.0271399290599
95.980955883202
95.7984436539886
95.680453709303
95.5702327816121
95.2659195593794
94.8036468284888
94.3951948436844
94.0919223731253
93.9601569362423
94.0535864710239
94.2358113315161
94.4344795308542
94.6957239706272
94.9831361049179
95.3154718686474
95.6140935696967
95.8586406203055
96.0089286035454
96.1694954232689
96.3690027770368
96.367508794691
96.4059818355191
96.6416768049875
96.6492654283976
96.5970315972427
96.5874574537404
96.6401105503774
96.6342337458783
96.5553764576245
96.4614182536552
96.4585277168239
96.4552449278085
96.4226984973145
96.4848442001678
96.594173441855
96.6557357343223
96.6721030453623
96.5992846914939
96.5163544530015
96.5075408659902
96.5265060646537
96.5562762297429
96.531534514417
96.4525003524999
96.4372279757069
96.4641958715149
96.4463001066448
96.424416986511
96.4276684430471
96.4340173954804
96.4460369038914
96.4523857876257
96.4440466121501
96.3900359033546
96.3890638682492
96.4018538899376
96.4428757483478
96.5264304549899
96.5567413928004
96.5199125637426
96.5275955322848
96.5655361186313
96.540285106268
96.5486071482324
96.5611820554178
96.5754866538188
96.6480644211264
96.7206949604261
96.7897752987506
96.8386193287319
96.9000399163983
96.9193907714351
96.8780420367947
96.9054253551529
96.9562215397302
96.9887766338754
97.0744026062221
97.03354973562
97.0650222727782
97.2164724710658
97.35147985859
97.4138557574185
97.4447332778191
97.4249447800303
97.4646408473477
97.7059171832671
97.7958754205103
97.525654409119
97.4788880857082
97.5297763612933
97.449874125086
97.555742974871
97.7603313925575
97.8239240980876
97.895514042224
97.9857337020002
98.1300792778404
98.2322046211047
98.0819432070326
97.9946382099898
98.1627942660225
98.1873829521685
98.1722162823672
98.2140689644823
98.2504587114828
98.1538474578212
98.1130483279372
98.1911757657779
98.3427875297691
98.3511925269255
98.5893469639338
98.8336737193746
98.9419426166767
98.7700818096035
98.756647581287
98.95547034839
99.1254351408769
99.1611913660661
99.0852552016138
99.1465130372058
99.2004931458257
98.990092264347
99.0760508710157
99.2942240850075
99.6007666378791
99.7774159575073
99.7384163088662
99.7255093327727
99.6154104382804
99.5576055863471
99.9790731826934
100.175233012235
99.8669232202648
99.6965645896662
100.228933188666
100.506237947265
100.002826737449
99.5560686314991
99.5258331951826
99.3544596886452
99.1819881563569
99.2458926211114
99.1714284671612
98.8330606344189
98.6590296650982
98.5114134259057
98.4068565536428
98.2786699046365
98.1465449020816
97.9978038427615
97.9628319112844
98.0318112137767
97.8968216501207
97.743148030669
97.8825380014763
97.9431983226172
97.7472888520004
97.5239469746924
97.4445205727069
97.5031951157047
97.6177249699444
97.5486487444621
97.4965042628358
97.5626314841222
97.531379960914
97.5738971188947
97.7193133402773
97.6836848704465
97.5643991862907
97.5212368628053
97.6026940773718
97.7447169762634
97.7213258979566
97.5562127802858
97.5639700776998
97.6467022574534
97.6790379636128
97.697127725859
97.7304986579496
97.8270334472287
97.821595667433
97.7497923505163
97.7814104771012
97.7912615541589
97.973062458667
98.1225668348403
97.9506309196005
97.9321465066096
98.0949850453338
98.0923153866605
98.0060055656296
98.00781713606
98.2683882799115
98.6036486423425
98.9456542527924
99.1678948095709
99.27507190534
99.1314528790759
99.2340512235323
99.4637897995861
99.5478172316537
99.6176025047969
99.3731189688676
99.0385423071234
99.3900500175586
99.9991624874661
99.8868642136079
99.6349208264577
99.9561865168766
100.124112938909
99.9825885860476
99.4093064639294
98.950368814853
99.2405858951025
99.6060321967459
99.8706975567413
99.9624363013024
99.6195528857579
99.5024097228386
99.5123845329816
99.2451171119724
98.9494326601831
99.0381895763909
99.2429924169703
99.2049344153679
99.2064736002341
99.2823265373749
99.205984284828
99.3162098351712
99.5183487861631
99.696420533226
99.8540761004959
99.9296273077246
99.7580702765865
99.5752320586531
99.5081020006552
99.5215835812579
99.6084613076448
99.5790083187614
99.3918871597375
99.0230756750324
98.8460109308946
99.0711238875747
99.1413044972083
99.056973662351
98.8888730219273
98.6676454232549
98.5643770535964
98.6951777395532
98.8076431706186
98.548754077694
98.3707984082946
98.4322851299441
98.4252242358492
98.4223721015486
98.4439348328539
98.4257005041304
98.3472274564577
98.2043324075793
98.1101206243954
98.1424603409432
98.1742670563228
98.1606841397302
98.028821626544
97.975241489912
98.0246558472221
97.9806972641062
97.9990886162813
98.0482423916702
97.9479557619389
97.8597970503406
97.9070524231479
98.0123630112821
98.0062703255121
97.9762376704964
97.9450632712875
97.916925192011
97.933990253965
97.9895675370249
98.0119147890038
98.0029749842471
97.9529128357673
97.8882451171383
97.8758735368519
97.8508394842713
97.7738038779324
97.7308282577648
97.7530203793103
97.8147918181315
97.8222250533848
97.7882865856034
97.745270978096
97.7382153874025
97.7734642638787
97.7503587140486
97.6772774774156
97.7136205538453
97.7350960576405
97.7105020383613
97.7565099401081
97.8140346295939
97.8180797089435
97.8209913914794
97.7365288454099
97.6121646507125
97.6703855299566
97.7537494508762
97.7262099418112
97.6854537714175
97.6821710645953
97.6887454262561
97.7185958923282
97.7554661309805
97.738704608049
97.6852771837061
97.6731289974886
97.6495745504271
97.6524144740715
97.7128193366857
97.7501526645536
97.7171052097296
97.6368462274707
97.5903352843638
97.6105736352341
97.6340232862804
97.6152951470672
97.5979068808932
97.6390831886802
97.6694544003496
97.6528140067015
97.6139748733633
97.5345500908616
97.4504046140153
97.4345403698941
97.4581257195319
97.5057820816037
97.5013131334834
97.452162709039
97.38311782373
97.4015202961637
97.4302516861955
97.4276339771572
97.3106040466555
97.1634443755086
97.0156244599041
96.3510911985157
94.6937612492176
93.0477822342105
93.3961292474716
94.7109648929073
95.5605789526207
96.1696759114029
96.5363327731837
96.6424820271915
96.6939964520396
96.7267470112161
96.7406836410695
96.7425373778269
96.7472289995
96.7834226561263
96.828407624168
96.8573059141377
96.7802840974839
96.5993365644684
96.5003346217245
96.426548581661
96.4293284320951
96.4355355589094
96.4682362972101
96.4776254924793
96.4520165662713
96.284841670171
96.0538737470835
95.9168895746246
95.8708912926426
95.8452412006547
95.756267015202
95.7122072901068
95.6315614294714
95.5103738938992
95.4408493506363
95.158445067763
94.9250095737196
94.6337542251639
94.4404573635272
94.3887429904831
94.3095140857956
94.1787390175726
93.99626297096
93.6420413250757
93.2414624128884
93.1150616137304
92.9599740984219
92.866881976766
92.6947332981473
92.5081946752547
92.3508087963234
92.1586332313327
92.0055642176395
91.8883548333802
91.7401865757127
91.5505506417405
91.440790567742
91.3640470993646
91.2161471358782
91.0192066163287
90.4745143686431
89.9185124988483
89.5611128402552
89.0045452020639
88.4056174874713
88.0232060593925
87.5998637664228
87.1271108154876
86.7005940760684
86.3499297135719
86.4812396284735
86.9081295679004
87.2547995455722
87.6133238170206
87.9559786864815
88.2291782369298
88.5127556362784
88.8386595326707
89.0144679088371
89.0873529429551
89.3102079344398
89.603017948484
89.7698433236156
89.8932440620457
90.0436089810144
90.2162005722806
90.3768270412391
90.4965350617969
90.606265493469
90.7298851446988
90.8610863972397
90.9488238613639
91.0156833963391
91.1039193060758
91.2352192158569
91.3452669031314
91.4236698644219
91.5115445678909
91.6563667605043
91.7947453885263
91.8730324290595
91.9187026565869
92.0863403780905
92.2495830422216
92.2921664444956
92.3332659756876
92.5082229730651
92.7029224121848
92.9080250225558
93.0776329554704
93.064299318784
92.9991329779428
93.1540027555309
93.2875822802708
93.46846764553
93.6504710055089
93.8132647059156
94.00757498324
94.1354722614825
94.1860046595045
94.0915449786778
94.0580787492424
94.2291774013415
94.3439705597686
94.3841502732073
94.4865613807998
94.5776179521702
94.621588909092
94.668782396523
94.6926942233348
94.6605639780438
94.5424307853115
94.5467571651906
94.523487808299
94.5447065090732
94.6320096750321
94.6840004685071
94.6434279906503
94.4020312235292
94.1755698541928
94.2229706597582
94.26499588651
94.2688291580273
94.2396057937987
94.1698620185679
94.1305944601388
94.1269700293414
94.0364546918219
93.8973527330754
93.8244172195378
93.7789985163836
93.7489409376417
93.7040788936005
93.6631100266136
93.60339088124
93.4330342315901
93.1653234538559
92.7844933277519
92.5408611275534
92.3325307806492
92.0360164418368
91.6880456701507
91.3649391349716
91.1082814655131
90.8086999714818
90.3710974168133
89.9447067734594
89.630405213004
89.0224516291264
88.2131983554566
87.2535753399879
86.2576226945865
85.4052501449561
84.6512965800495
83.9276071036814
83.2644511857138
82.3558776642425
81.2303585105013
80.3120432016919
79.9231050473306
80.1588568556331
80.2109257429151
79.8247744491795
79.1889418894264
78.5224618036173
77.8106960865396
76.9024639292022
76.1745840611195
75.4945151003163
74.7856950041119
74.0458368747532
73.2753694213749
72.5205544325524
71.736216888974
70.8939418457782
70.1410281984908
69.3041439636538
68.4157584216615
67.5664798390153
66.5857605433432
65.5681816423897
64.523579582292
63.308203415226
61.9055892085013
60.4960170430564
59.0690304733412
57.6216921191395
56.2189051950062
54.9002974264705
53.8148151726351
53.1042015723862
52.8863265370273
52.9053975458249
53.0689149881789
53.2776462200465
53.462771226155
53.6799309087026
53.9890938281859
54.2379798822069
54.4258173753428
54.590211997741
54.7848233126177
54.9927621291705
55.2468826819785
55.5569116924306
55.9370056857058
56.3287990134683
56.731865414263
57.1625020263134
57.6878782850838
58.1963693824661
58.6318697920826
59.0553922530737
59.5289258304411
59.9861826261583
60.4223233677369
60.8630979440162
61.3352754958379
61.7947703848337
62.2733125665678
62.7435553648663
63.1783068003716
63.6035669542948
64.062615736129
64.483984577003
64.8767686093971
65.2809906379494
65.7008293840278
66.0963573607216
66.4804510532653
66.8388351255877
67.2027717845988
67.58842863357
67.9887802790783
68.361968377522
68.7114176297038
69.0589722905845
69.4368254433495
69.7912875764774
70.1253366572227
70.4523242714977
70.7667541386126
71.057034813977
71.3604606357895
71.6688005584847
71.9596167744369
72.2326530271017
72.5244765426729
72.8004600167206
73.0582661706538
73.3217475544299
73.5829383157262
73.8171794880221
74.0644003816484
74.2982088287061
74.5202747757161
74.7328385905286
74.9478827854846
75.1664493175931
75.3974272105862
75.6335602061864
75.853831174221
76.0495038034948
76.2603652048095
76.4651584351981
76.6516520231536
76.8395823839145
77.0298803022075
77.1706112811678
77.3050987054687
77.4430134231266
77.5380851042749
77.5946772467701
77.6406813524118
77.6456356158752
77.5900029966714
77.4638415449824
77.3020490290947
77.0855957634196
76.7966927003803
76.424104391329
76.0212807751872
75.59037930594
75.0948195941604
74.547897782621
74.0006640181767
73.4977791995
73.1154333792127
72.8850358608402
72.8790554144794
73.0783831421756
73.4056928338749
73.7624652643879
74.073904891249
74.2580445590011
74.2928381530443
74.1915078264123
73.971419429275
73.645838981016
73.2508539262601
72.8002564439712
72.3168220711731
71.7638834729244
71.1862718225275
70.6022117291651
70.0063138576282
69.4101449646629
68.8560469668916
68.333247371602
67.8146458105321
67.2837428522537
66.7816869657323
66.2478666769499
65.6556038666956
65.0546180569489
64.5236849259203
64.0755974112431
63.7500583962335
63.5943845209398
63.5885671469984
63.5738668764659
63.3871797550613
62.9619458924426
62.384414685491
61.8051188206414
61.4340782988022
61.2540444990166
61.2022418820071
61.1951768289454
61.2257288045567
61.2128908213991
61.1856037387138
61.1980820827315
61.2037664978966
61.1242298137004
61.0322010987904
60.9187809951564
60.8037642221537
60.7266340202823
60.6935718201707
60.7011749269945
60.806118632873
60.9887067212458
61.3089660109431
61.700072209427
62.1216174258246
62.5969723635828
63.128535902328
63.6898848005423
64.30146899643
64.9262682503928
65.573629831434
66.2508700549446
66.9408511750321
67.6259210914528
68.3261553615027
68.9990434764805
69.6296084160819
70.2164663711263
70.8243951586891
71.4478145763617
72.0401082677348
72.4136039332778
72.486831467462
72.7792580561809
73.4996468645221
74.1607184126126
74.697073143512
75.2006014118049
75.6707177495006
76.0892862219858
76.5180640329971
76.9555170044495
77.3617937634159
77.7140946115351
78.0597042760785
78.3829624411577
78.7030904907461
79.0111236587471
79.3130282944977
79.5951944232331
79.8573435259279
80.1043229594725
80.3408419343696
80.5230120101316
80.6921801696206
80.8687459347779
80.9920936667007
81.0016536612441
80.9865503848937
81.072914098771
81.303002617671
81.5796328259421
81.8255814693672
82.0429131126133
82.2663243015211
82.4815665171352
82.6707391773709
82.8284637460883
82.8921801158587
82.8368147452807
82.9075989885844
83.1488538937247
83.4073855908498
83.6505419067172
83.8551021886623
84.0394640594129
84.2261478679407
84.3792506416522
84.5149362867629
84.6475089559856
84.8107231751673
84.9417860483756
85.0604388900072
85.1789055632946
85.2805950444766
85.3676619618901
85.4668252841924
85.5396446386771
85.6186501892065
85.7261300717276
85.8322993701013
85.9071295834747
85.9854767222342
86.0849229418487
86.186121356001
86.2456295261606
86.3136622349435
86.4138862153127
86.5205440141889
86.5714805102408
86.6116271083696
86.6762355393574
86.7396592675161
86.7870960111402
86.8823296521899
86.9494235251328
86.9959611557207
87.0333847946956
87.0603773918437
87.1011760465918
87.1507202550736
87.2081419701439
87.2793615888508
87.3056687853595
87.3533675787636
87.4205730559859
87.4568443464982
87.4852449689935
87.5119542442762
87.5353747696522
87.5634132995164
87.5793550309755
87.5993491336745
87.5952237673854
87.5867231701224
87.6174399105906
87.6592434005162
87.6736274261187
87.6805369909044
87.6829523401845
87.6563357403109
87.6107695355595
87.5712265477688
87.5572795074248
87.555028377998
87.5249838133659
87.5151995831794
87.4935745695866
87.4715468757907
87.4476954450072
87.4097997151255
87.3600601696479
87.3103455390829
87.2307489394499
87.118131359047
86.9912956903923
86.9017340605726
86.7249443753527
86.399016889915
85.9262035820634
85.0493449884755
82.529358877207
76.5404703716419
68.3867051001779
64.2975736570935
67.5728975357313
73.7774458850529
78.4527318283456
81.1785465583868
82.6769087100715
83.3393790504358
83.5753468775577
83.9628125124116
84.3621898959824
84.6001674803557
84.7233547415444
84.788548798532
84.80688972365
84.7761739342258
84.6921424601641
84.6135863778198
84.5924238268093
84.5409944927084
84.4594449510996
84.4191105117043
84.3474681944609
84.2385614260992
84.0981287219207
83.9723177483154
83.8527470155111
83.6914066247998
83.485156781007
83.2824638221267
83.0758260467145
82.8445790047806
82.6147815215528
82.3781829080081
82.0828423940757
81.7771326936257
81.4656554880958
81.191661839985
80.970318061257
80.7515774728262
80.5491994878723
80.479811814449
80.4845035260576
80.4690492552429
80.4676087521257
80.534082014553
80.607640793449
80.704189673843
80.7680465944991
80.829055701441
80.87408428542
80.9342954601379
81.0032291165278
81.0882982952798
81.1575504615928
81.1843396927615
81.1395699384519
81.1381280903419
81.0938287574851
80.8933002670177
80.7729749961269
80.8164605400877
80.9697807668062
81.136055952201
81.1052097244578
81.0444761448871
81.0512013886803
81.0370194354306
80.9642832197692
80.9126477557025
80.8351151524929
80.7762304564653
80.7722928119787
80.7522852019725
80.668822920472
80.6242672417045
80.5992569772119
80.5184007507853
80.3410810192299
80.1546800474033
79.9039130633775
79.6046634168133
79.1943625635834
78.7284461310808
78.1960795897219
77.8474030291276
77.5581278020855
76.9631598210753
75.9106304022709
74.3180257727727
72.7136667380591
72.1479373053715
72.9245758441252
74.2520590473569
75.2794839532683
