1798
3999.43349933624
650.420452594757
1
128
4
94.850244876157
94.7746310626723
94.6310822229806
94.7154588391101
94.8140895141851
94.7690590916495
94.6630376156299
94.6934024944432
94.8085422418204
94.8224305847571
94.7180213819019
94.6631795999976
94.6983312243999
94.7849581578061
94.763994864395
94.7639712423479
94.8231503634835
94.8063757759305
94.7404037894434
94.801172497055
94.7335176203499
94.7411623793742
94.819737787726
94.8049667360383
94.8078986008133
94.8148525964073
94.8779376240015
94.9336883166374
94.8589344913521
94.8105568255714
94.8411813552693
94.8739801146148
94.8393024281292
94.8257242855627
94.8884593469922
94.865353382925
94.6642815431265
94.7112337189072
94.8548819743914
94.8911050266663
94.8693063075175
94.7739221801408
94.7844932104562
94.9423242027847
94.9798864007524
94.9766561143172
94.9770530445639
94.9973474920911
94.9801130933212
95.0229307522148
95.0648707159326
94.9024597066752
94.7009598031245
94.7042847607779
94.7791421756345
94.9025486592448
94.9772051261346
94.9832622241997
94.8786309622064
94.921226774916
95.04196345502
94.9808182821994
94.9377244385516
94.9694147171465
94.8915595370955
94.8561378910963
94.8914723677216
94.9054817480407
94.9464697088286
95.0271861943011
94.9859325527283
94.9527193284388
94.9509058683584
95.0052133843228
94.9939710381321
95.0535531167198
95.2221594357469
95.2865541555566
95.0541990109427
94.9022436027343
94.9866601526585
95.0445516192483
95.0136853530311
95.0087140551756
95.0687470769821
95.2406766947477
95.2919522834876
95.1814887224652
95.0422894736046
95.0251307125786
95.0351893006643
95.0271493077412
95.0432808088124
95.1539848581121
95.2596957377842
95.2757066806625
95.1197934400589
95.0094978645248
95.0243297596399
95.1197294595908
95.2147870039768
95.2220770686054
95.2696954940135
95.2651363270753
95.120974877479
95.1322478658088
95.1887241067802
95.1039691360009
94.9979189966704
94.9660136427269
95.032144992374
95.195093383644
95.2082061303025
95.1970714128222
95.1636734612034
95.1352957036089
95.1469868640531
95.200398966881
95.1969385931663
95.2550120704908
95.3011628654842
95.3176144387882
95.3754488296168
95.3740631813928
95.4342009526559
95.4410253374162
95.3718330032466
95.4164370574323
95.4676803269368
95.4826024861075
95.5050527057267
95.4977102159336
95.4509131233528
95.431008366059
95.3914153203733
95.3921042006542
95.4850052128918
95.3872055749291
95.2676888244488
95.4090119517684
95.5380414853551
95.49049776867
95.3802737060577
95.2644357245418
95.1923870427779
95.3420954826685
95.3608078442038
95.3426190155268
95.3238530742319
95.300308397347
95.4369214943436
95.5307301294611
95.447763284613
95.4931627074964
95.5574411740839
95.4761581056958
95.3697920789832
95.3756789131342
95.2892648577818
95.3556416224745
95.4722487120871
95.5073614470261
95.4692398141875
95.5367127344637
95.6059156332764
95.6742885838226
95.468236505556
95.2850885426206
95.3447837651533
95.4342043107658
95.4702746343729
95.5627560468166
95.6315803277852
95.5096338416257
95.2800642786764
95.3306424418729
95.3048423498158
95.0708583692546
95.027674127555
95.1772208700075
95.1838141729156
95.1675876390096
95.204622555687
95.2274177267777
95.1287612743085
94.984705592244
94.9711896528084
95.0382093173032
94.9171352736774
94.6092972429935
94.4731943434735
94.514940316713
94.5438923844827
94.6026930246053
94.5099105296235
94.4560467659345
94.4559744515856
94.5291310621375
94.4470220385047
94.0095656330867
93.7030129708022
93.7750859686834
93.8993384824378
93.6851928053322
93.384870873348
93.3922436390058
93.3655343634231
93.2912848251433
93.2327284828797
93.139012056191
92.978979677814
92.8737115413612
92.7599128207852
92.778417337266
92.6568195634245
92.4023920547872
92.2629673264263
92.205045836431
92.0974293032231
92.0911429968086
92.096925422441
91.7322232005916
91.459128147329
91.5910507869908
91.4936996891432
91.2709627265876
91.2117828331917
91.1768396957372
90.9865298219242
90.8761379987956
90.8424383720806
90.7706165141687
90.5484797583494
90.2528093601425
90.0326010253934
89.9284321374866
89.7784416252342
89.7340416334921
89.6365575863014
89.5793775736866
89.5196641596048
89.432950929174
89.2868539328227
88.9754695284369
88.7162341576887
88.6029514218039
88.5588420429851
88.4719344465492
88.3295925199031
88.2755711581915
88.1217467539856
87.9953484737582
87.8981519734155
87.7758772982393
87.5352107408062
87.3592634639332
87.1834737652036
87.0696132145689
86.9744043855939
86.8931718211166
86.7661986883899
86.6297990504419
86.4107935860534
86.3584374841139
86.3255055718609
86.1489835819262
85.9558460135492
85.8778708652565
85.7946841942295
85.7623735387714
85.559257353565
85.310063727682
85.1733812933085
85.1110793503218
84.9866403314344
84.8247334122346
84.605408529718
84.5767043108342
84.6320087999288
84.4788440488403
84.2583074941655
84.1089011541984
83.9649995075878
83.8446397168155
83.7302251798339
83.6865229786326
83.5477751841014
83.4318048380303
83.4138033657397
83.3219395164782
83.120873143361
82.9665874476616
82.8133794848954
82.6997243291039
82.5700996889024
82.4810079259316
82.4381712387157
82.3198556769626
82.1644481077993
82.1394921883476
82.0937835762484
81.8692597938757
81.6488632030424
81.7359073318053
81.6537869737749
81.5172608031139
81.4398631102225
81.3438034081645
81.2243241347122
81.2016493705971
81.0297432482696
80.9060962404632
80.8398350272548
80.7601830467802
80.5980691642561
80.5241046840788
80.4427810051245
80.3952038444775
80.309360429531
80.1759413255062
79.972398676423
79.9471285403623
80.0264848780808
80.0299222654532
79.9412544790374
79.8985728793434
79.7590926582326
79.715058671274
79.703071716287
79.6112537535875
79.5320386945964
79.5146346304533
79.4091479395099
79.3287325873051
79.1869425911272
79.152692199876
79.0738591065135
79.0027281778768
78.9524852770371
78.9290889526263
78.9133263793906
78.8958689128988
78.7780128342182
78.7504954540767
78.7224842414544
78.7350887683751
78.6453058278776
78.5695649898277
78.5612348199527
78.5954855277646
78.5586402716173
78.5928401266615
78.5974590279988
78.569460494925
78.5376894700752
78.4581211993942
78.2996715714156
78.2590325931763
78.266884827464
78.2832843729041
78.2703967717018
78.2484194878381
78.1197886028771
78.1825444791515
78.2470674878653
78.2350318236594
78.0942528999862
78.0650077486627
78.1127305229849
78.079545092455
77.9955402699495
78.0409760554371
78.0794089641613
78.0739547706125
78.0559449673801
78.079416634491
78.0698921283744
78.0562961932474
77.9736525811373
77.9605311550703
78.0058485074351
78.0864021958477
78.0431749459246
78.0507239731549
78.1493889564377
78.2141113446215
78.0190713783969
77.9614916200447
78.0139313742756
78.0094083171865
77.980169917141
77.9576845342593
77.9894476957502
78.1202228458179
78.1900067379709
78.2152660956498
78.1328327649896
78.1265879932046
78.2207410043138
78.3140559279193
78.3252736081974
78.3059205747848
78.3046267744149
78.2825409340971
78.319093621021
78.4792867666911
78.5522469693937
78.5492830012344
78.534591805499
78.6882296755389
78.7347095706497
78.7194502150915
78.7661295746088
78.7841208394456
78.7733276150764
78.8991326533916
78.9510052813962
78.9544162392229
78.9597732650393
79.0340055573474
79.1476130377975
79.2126077746904
79.1950223066554
79.2858401993481
79.4205860489461
79.503206290479
79.4674759318093
79.4875440140491
79.5583513202771
79.7406599526968
79.7829562000636
79.857787976005
79.9205014767231
79.9117484027655
80.0040593752494
80.1455724256926
80.1964045457536
80.2625224767971
80.2798033529495
80.3191810327398
80.4568486646505
80.6432277246219
80.7360852898185
80.8324885044257
80.9425758763092
80.9943492534376
80.989407747921
81.0273431388302
81.1140670052597
81.2928366764328
81.3992289115476
81.5460036504396
81.6291657162627
81.7097572891639
81.7987615395183
81.8572036759333
81.9912707402217
82.0673101745485
82.0607156443672
82.1382675386686
82.1687564225656
82.3377041674504
82.4771550267529
82.5803569846436
82.6685659607905
82.8520074323906
82.9557177974514
82.9336927203498
83.0282761547582
83.18534984673
83.2452646482624
83.2950876351886
83.3167351076873
83.4300686543618
83.552569986148
83.652291234397
83.7070732033319
83.8221042353686
83.9090656087234
84.0696056211164
84.1479808185036
84.097905720219
84.1479714281532
84.2964114136536
84.3703359417164
84.4549072488718
84.5019170542632
84.5993930627142
84.6893428169171
84.7905411577283
84.8250561037741
84.9125009882745
85.069333288236
85.1644112781515
85.2207255432454
85.287903770271
85.350010762592
85.4557119438339
85.5078674599682
85.5825258748921
85.6868682305495
85.6829631617677
85.6947302153247
85.8650231229581
85.9966253914169
86.1163838292243
86.2151325189806
86.2975867029156
86.3105746412717
86.3401834002766
86.3933229499835
86.5408938417835
86.6677596223175
86.7339785378307
86.7245738900214
86.8150958397116
86.9522938027145
86.9955175976494
87.0415556154506
87.1701452534011
87.1873908609309
87.1980332129196
87.240802692752
87.3772032387139
87.4809027263966
87.5614703665302
87.5492470926195
87.6293015062499
87.7449755242293
87.7715970492709
87.7834890071406
87.8504957704417
87.8697852183328
87.8306875537154
87.8490512806463
87.9251038276066
88.0023324937974
88.0624951016944
88.0190954271981
88.040802699754
88.1448050917862
88.1422867118691
88.0184444190588
87.9567811331895
87.9792882424876
87.9920252643422
87.9438478224609
87.9447538656943
87.9096021073751
87.8386874464456
87.727005222257
87.5827909015524
87.4973874651894
87.4889645903706
87.4342975321973
87.3404972316057
87.2428993127186
87.1584297563464
87.0332191475243
86.9111597421497
86.7816486114473
86.7111124580767
86.6338322852973
86.4955073865159
86.3709515509372
86.2955462897019
86.1206506891667
85.9383397927867
85.762980899585
85.6191501691554
85.3447896341767
85.1111572324127
84.9669613909352
84.843853113468
84.7283165220647
84.6376308770489
84.490752336217
84.3124441271919
84.2161367666069
84.2109385534999
84.1694679412749
84.2131418387694
84.3821042505504
84.5894966527539
84.7764212899608
84.91124396734
84.9712137771966
85.0625778101385
85.1129897875911
85.1357432261309
85.2300692580586
85.3980501887493
85.513619858542
85.5511156249183
85.5485701267769
85.573459528121
85.645457972211
85.7374267978103
85.6855302610261
85.7295876188406
85.8338621070245
85.8566076678834
85.8929507919004
85.8956818135389
85.8879705885849
86.0148965669227
86.1290113630055
86.1845853943629
86.2241688408814
86.2608472856987
86.3305265756783
86.417006058004
86.4617495706942
86.4573078441879
86.3680165652892
86.3492326831229
86.3659075793803
86.4378854259923
86.6287017901316
86.8148650516903
86.9976818210848
87.2016419101719
87.4185215280384
87.670436983945
87.8304705553234
87.9673662849951
88.0820503931729
88.1513505986913
88.189037677202
88.2996190326919
88.4396683269584
88.5170775315965
88.5522621341874
88.6041099664596
88.6513626143142
88.7295413987788
88.861479941215
88.9240354875099
88.9282568714178
88.9931369058471
89.0621916390911
89.131124622806
89.1410079807376
89.2105969121833
89.29910061846
89.335080946795
89.3441692453687
89.3651417422003
89.3889722469052
89.4769514191518
89.534786833878
89.5875865188333
89.5985401219645
89.6454093901616
89.6787002352754
89.6893197467331
89.7148667771863
89.7684212050991
89.7827526682423
89.7797287672914
89.8366336920541
89.8767484379384
89.8778929688662
89.8694592088716
89.9041583334631
90.0036110285558
90.0123439479596
90.023139785041
90.0327638216154
90.0708805938663
90.1129785229343
90.1595414190383
90.1545306151527
90.1665109666284
90.2046314083574
90.2243461984075
90.1968320035002
90.2123909783334
90.2458143906103
90.2793018744861
90.320509149081
90.2985430019935
90.2899611501261
90.3569705267038
90.415869393958
90.4652716632663
90.5174072803812
90.5178302127776
90.4939829156718
90.4970130534017
90.5168442230988
90.552744165297
90.5524776977555
90.5599638847474
90.5879125627486
90.6027002499988
90.6125671612196
90.6645526780658
90.6835946947164
90.6748401219025
90.67978893077
90.6903674218987
90.7202163166468
90.7758003489688
90.7729351179224
90.793661565909
90.8429078549651
90.8836079730793
90.8890476239578
90.8985987045616
90.9383094776022
90.9848988042325
91.0107613332893
91.016783255624
90.9927980889558
91.0059153978573
91.0252335034244
91.0449281862794
91.0796831580614
91.1539756982503
91.1573432200176
91.1361689169152
91.180532987476
91.2389924410245
91.2378194397764
91.250629701823
91.3094970724972
91.3431780204518
91.3670839856702
91.4135218127587
91.4193042375448
91.4358861434878
91.4881347805208
91.6083209123058
91.6356700769642
91.5787926525282
91.6030631595065
91.704774863905
91.793511883958
91.8440054084438
91.8440278896908
91.9049279370017
91.9486592875278
91.9184134991326
91.9763754074544
92.0845083010378
92.1051218628574
92.1018568630979
92.1054931266218
92.0867716465836
92.1137934276643
92.2050038737728
92.215412231033
92.226479452392
92.2717515957807
92.3371684232965
92.3891387302365
92.4274228420602
92.427554493795
92.3972060163369
92.4034268510754
92.439996247537
92.4972647715417
92.5400791401845
92.5591338763596
92.571842339598
92.5756298174004
92.5745021516564
92.6000043089107
92.617891950878
92.7331068520692
92.7579369726342
92.6968501913662
92.677868737156
92.7498256761648
92.8249485128241
92.8716746122212
92.8967836808662
92.8988227715917
92.867395754705
92.8298239533204
92.7966454013014
92.7560172522386
92.8477592730513
92.8933096953975
92.8725140320528
92.9832569129513
93.0805477116613
93.0740489650842
93.0293458431066
92.9737341079764
92.9531328660897
92.9744137906421
93.0269435270608
93.0627371557987
93.0856386526664
93.0552651008885
93.0810017846167
93.1452103621831
93.125751553277
93.1281589119228
93.1128636364019
93.0537531737916
93.0879650672253
93.2173990092608
93.2806121213473
93.2651822144968
93.2588717845928
93.2300759274013
93.221545642393
93.2178337686278
93.2676311876742
93.2666467362852
93.2389881670092
93.3100665032753
93.2521795833979
93.2135952194822
93.2691498901169
93.3132182208694
93.3213451547111
93.3044067069334
93.325474599937
93.3758289077858
93.3469082373202
93.3329699845416
93.4136930678888
93.4190516186989
93.427953832225
93.4415326167619
93.429493021507
93.4919219745454
93.5735270949457
93.5730841203182
93.5093712685807
93.4358847410768
93.4027912814602
93.3994078478369
93.4542910802319
93.5708381761342
93.5298435210496
93.394474230518
93.4615087349168
93.5985383217227
93.625149887685
93.5744440135015
93.614073820233
93.7106720977205
93.6787332888723
93.6551667735886
93.657903662335
93.6958503207543
93.782546769509
93.7304950603841
93.6091287285922
93.6169911174838
93.6821272498621
93.707284026406
93.700852196793
93.6339447629036
93.6744680950436
93.7141549281854
93.7343181560974
93.7643152532233
93.698248406717
93.6230329501031
93.617619096695
93.6911405330122
93.7515562048544
93.7272270003866
93.6759987590523
93.6655470967615
93.7582696248851
93.864671941277
93.870658095776
93.8747629937034
93.8751459210642
93.8846138047332
93.9532336574021
93.9632134290307
94.0323625508616
94.093189798511
93.9124882034972
93.7983906383831
93.8112374067603
93.7753622841613
93.7582819209444
93.7782494164957
93.7880966059368
93.7451002933495
93.7488593061277
93.7670774077463
93.7393311952423
93.7658743019538
93.7736879455062
93.7619471467028
93.8375345345708
93.919927217061
93.8765351107322
93.748796036874
93.6707979419809
93.6728930670977
93.7215796331327
93.818504353806
93.8503146829779
93.8998794458687
94.0064954567351
93.9897594794798
93.9586886692676
94.0188556061971
94.0230399699347
93.9677984834859
93.9365151751789
93.962583290329
94.033619748318
94.1787169523895
94.1603061050734
94.0104452758797
94.0461320019768
94.1714140658877
94.2373897685189
94.2223937740059
94.1873512004157
94.2388502865037
94.4424804852824
94.5611846906269
94.6212823575671
94.8272305938174
94.8872433390154
94.7374091993252
94.6725967970338
94.7991700862887
94.9748450338666
94.9067188761577
94.8542677802112
94.9718441645893
95.1068932953309
95.1511372461672
95.1448190476721
95.2428276336995
95.3404287888452
95.389347825081
95.3091503948762
95.3419724671447
95.4609702147958
95.6192095768679
95.4756176975155
95.3453445110108
95.525615934088
95.8499516666418
95.8700482494906
95.8765325509352
95.9560177083425
95.8145049997484
95.7694266269875
95.8793658214873
95.9842573213005
95.9821020564813
96.1099464626381
96.4319143574569
96.45504199878
96.3101623438716
96.3412824085
96.2067068343568
96.1408837968864
96.2490029992442
96.4034872936523
96.6701505824061
96.7850327410471
96.7410643312919
96.7056712563815
96.6853334590887
96.8457657859662
97.1438319711017
97.020230695348
96.9949827877427
97.4108337336436
97.4859584960718
97.2185409533383
97.4361915456044
97.6103348896984
97.3267175613165
97.6422130225593
98.0946422428443
98.0922911260231
98.1861515681813
98.3498406863405
98.8156893263546
98.9449361196246
98.8142707558137
98.3603178607991
97.8774219653635
97.8999491520947
98.0468732501835
97.6211627737231
97.4141105884652
97.2681258959333
97.0375058218964
96.9781947288269
96.8910903550414
96.5913439032537
96.4035612075684
96.2587645400916
96.184424285598
96.0489117886357
95.9013970862624
95.7634442055968
95.6689365123582
95.5482403372621
95.5904794172
95.6737152407649
95.6473994675832
95.6082521674867
95.6253279300916
95.6311718962014
95.7292620257708
95.7229008100391
95.7845247113334
95.8211131391382
95.8868845542429
95.8309047897465
95.75383167539
95.861329492834
95.9292477418693
95.8920932896053
95.9397177110399
95.8338700995949
95.6738860199654
95.7519208612802
95.9850407036406
96.0876272779146
96.0844242086088
96.1569973566504
96.3913334163577
96.4638465832792
96.4491684203003
96.4570287853548
96.3484260382863
96.3260911082875
96.4457905179369
96.6963593594013
96.8379446231656
96.9210310846404
97.0506887385203
96.9535787325967
97.1312936260747
97.3555358574479
97.4513901200252
97.6924235214168
98.2276882795931
98.4224755218838
98.3455862074735
98.4152919558711
98.5622645182729
98.8768239906227
98.872841828243
98.7392027069715
99.3137712803453
99.3650714085241
98.9071484778146
98.5557987410659
98.5732522185337
98.8956700167294
98.8417211413441
98.7650289963022
99.054978318646
99.26188566415
99.2818998344064
98.9513731211057
98.7096120736181
98.5602052520932
98.1473712004059
97.840604570205
97.9585921889839
97.9807416504054
97.7790685057961
97.8306896196473
98.0673236602246
97.9713067608219
97.7932428006972
97.8205846312129
98.0286973921242
98.1817048527886
98.1118270648862
98.1857847452168
98.3325191369109
98.529075582119
98.5441171701393
98.4928099918534
98.767962739198
98.574016908974
98.3395564046987
98.2366114507723
97.9881986230886
97.7581862586595
97.713434093971
97.6353201567284
97.3222060263789
97.0620365082908
97.087714753859
96.9660856063683
96.8178592276974
96.6969882473348
96.7245602381337
96.8998403033057
96.7090174639935
96.4192699876374
96.4625873311332
96.4756297919397
96.3586858216459
96.2886706514272
96.3312534103456
96.3855073131988
96.3487020809928
96.2966610918828
96.2803368046084
96.1609959205565
96.2153211620199
96.1413128205258
95.9467429148282
95.9414037051528
95.9649790135329
95.8782888574927
95.7584100042235
95.6967420115657
95.7221970126618
95.8259045796518
95.8833841937645
95.8387448223773
95.8151868318415
95.7883243594234
95.7652036131365
95.8631764527819
95.8345846855592
95.6639871743233
95.6313558430819
95.6535602484531
95.6100470964619
95.5801893329939
95.6205937020523
95.6178451607966
95.6572165350277
95.6366362412524
95.6240019503767
95.5405858827513
95.5033108370163
95.5536308096112
95.5859211251151
95.577175404263
95.5528170166632
95.5093287316488
95.4721535884622
95.4577413632274
95.5514046100198
95.6062661134482
95.5920785056522
95.5270186899472
95.4468480612579
95.4364169222438
95.5405308543012
95.5633655898006
95.4801945567836
95.4680242076862
95.5204546163832
95.5467131872998
95.593101014492
95.5427931293199
95.4995688795943
95.4131985798364
95.35952813573
95.3510468781962
95.3537580187409
95.3862972559008
95.4336100262937
95.4473323200319
95.4474605423815
95.3968785304222
95.3475251967869
95.3249968486564
95.3647069075746
95.3897034619542
95.3767538554373
95.3613490465764
95.3570033833689
95.3631879839967
95.351823350582
95.3004691797602
95.324819896918
95.3352328948539
95.2893088232367
95.2605592204601
95.2887917024889
95.3108458060322
95.3243633108625
95.3382234896686
95.3012813154137
95.2310389348425
95.1705015165512
95.0886704222405
95.0576614529587
95.0391635578871
94.9694341122908
94.8409797111122
94.7541106596443
94.6004535011076
94.382327224504
94.224240481339
94.029219703371
93.6855555872598
93.4176839899555
93.1245382254284
92.8315985523472
92.5854055182185
92.3463964127989
92.133798063455
91.9841290902721
91.7637749075802
91.6165519969534
91.6318057425358
91.6198581101319
91.5263463396899
91.4852131708195
91.4885190613089
91.5707351416807
91.5792610993652
91.504861011918
91.4799312872744
91.5845398299569
91.6379093982375
91.5974668798569
91.5313744391917
91.4892519968827
91.4406791797657
91.3884533709277
91.1810291978367
90.9391826448154
90.7624735369062
90.5545742747747
90.3248014392854
90.1544439655844
89.891457263095
89.6011245257599
89.3250725563605
88.94493459338
88.6113445022434
88.3986498542675
88.1094599208934
87.7480448904487
87.3371635158008
87.0146452038073
86.6994104474825
86.2784391608486
85.9629827834863
85.7499091105528
85.3746028126043
84.947975526196
84.6885205195328
84.4411864416257
84.1069366588138
83.6614915598057
83.2823619400987
83.4277141848965
83.2930713710331
82.8896021819364
82.7348406180462
82.7279894713607
82.5385905741621
82.2942193214986
82.0075596158269
81.7269328249333
81.8476545829787
81.945845470253
81.8127843102639
81.6336614820968
81.6139890031355
81.6126713802198
81.6395021061597
81.8327737468936
81.8487540552593
81.6776606012828
81.7775655417636
81.9692022731655
81.9221615575304
81.8039852393166
81.7244929025061
81.6838838169772
81.6054466340814
81.5683601016324
81.5858893953085
81.6346309588087
81.6690415963239
81.7598506265863
81.9031887567151
82.0706147534934
82.229505089822
82.4430966130993
82.6578788463667
82.8565211206458
83.0498490379798
83.2658931690909
83.3179798207914
83.3491820887641
83.8134241766865
84.1606344153716
84.1327057244799
84.2758865002133
84.6003494214214
84.7508674351909
84.8908636651186
84.8262329999185
84.4283445462047
84.8475368414932
85.3701132027307
85.4729677584664
85.508564048499
85.5010541244537
85.5862190345775
85.6424873693365
85.6313377194527
85.6415353493946
85.580499614604
85.8209360828546
86.2641281620777
86.2972496170239
86.1975705600641
86.3962887170041
86.5758070912862
86.5689132329849
86.5525882410425
86.5600907232055
86.3967488559606
86.3898959608172
86.4024711504216
86.2505628898369
86.2277276706518
86.27471382929
86.3357566270001
86.3244549146316
86.1981271743364
86.6673539152944
87.1660034875379
87.2390919310467
87.191711330037
87.2239299751313
87.377479178457
87.6526816392119
87.7645662812808
87.6749745521604
87.7171064664728
87.9085874751099
87.9692911660895
87.9026684076501
87.7888578648115
87.6202875070613
87.3796177099264
87.1095910388371
86.760248200319
86.2987806758998
85.9323995779341
85.5479100514655
85.0559637258162
84.6373257735592
84.4801648483935
84.2830528438984
83.9559903378963
83.64565472534
83.771666123355
83.8058672492913
83.6774039815552
83.4597693764746
83.3079822739932
83.2895700390638
83.2421664063532
83.1256061037697
83.0234524309634
82.796374480198
82.4843648954178
82.3995671538971
82.2701730228752
81.9397793804409
81.5994871891141
81.3939756776175
81.1245493402927
80.8656407046594
80.648327373201
80.3284095038893
80.2123097981399
80.2593255451637
80.1961279969168
80.0597275955884
79.9641561660921
79.9431591088624
79.9239416178872
79.928214485599
80.0382176891393
80.0698071529253
80.0179384000482
80.0952770857335
80.133130496499
80.2318875210276
80.3431941041738
80.2539097699487
80.0380228023837
79.9521412054776
79.9129832258936
79.7931289408191
79.6666129858209
79.5336527353752
79.4636774620367
79.4095445086955
79.4238326919958
79.4931423269737
79.5308560726544
79.5875824404569
79.6647032684613
79.68803046092
79.8202823942259
80.0687333943086
80.2367046979689
80.3329200916492
80.4602674377787
80.6327672024912
80.7888200622936
80.905341934723
81.031143936805
81.1663976878444
81.2815694537083
81.3386017969387
81.4051085685327
81.5654401348557
81.7025752108545
81.766610168809
81.7980700799235
81.8422827954436
81.8968501898046
81.9355619195196
81.950314663709
81.9574512771246
81.9564411119279
81.9712231351061
82.0218110643879
82.0469922588343
82.0601647006847
82.0776283811453
82.102965623026
82.1497381087491
82.1991965551829
82.2406083208187
82.3005882750691
82.3324098857776
82.3672306266323
82.4117225826337
82.4336933891555
82.456506104832
82.4821658858611
82.4961868938934
82.4909058556295
82.4454287973989
82.3907005173705
82.3554594126028
82.3032503633688
82.2177181864048
82.102105239318
81.965670918624
81.8521800223922
81.7329528536707
81.5839146797293
81.4307936784225
81.2586128783206
81.0662673287041
80.8777389669103
80.7080470534413
80.5642425393019
80.4097446496011
80.2767919755184
80.1948613882945
80.1405752266988
80.1192570256717
80.0929404712384
80.1000811201796
80.174484505884
80.2656578125357
80.3558934932559
80.4921090102503
80.6551158060063
80.8317964514977
81.0232735140604
81.1999558528731
81.3898069380651
81.5842158926537
81.7498414095607
81.9154677992232
82.069838331425
82.2262999234059
82.3960046217784
82.5441643937384
82.7015967463804
82.875175665472
83.0405183854884
83.1949237257954
83.3615469426045
83.561653877632
83.771843535161
83.9748787563096
84.1666972865108
84.3366832587946
84.4928223196936
84.5981546914017
84.6366738130028
84.6180897849248
84.5142334057974
84.3498626292953
84.1348162806011
83.8758830420409
83.5860990311538
83.2504173273897
82.9064183000793
82.5548274494604
82.1354439818725
81.675761181037
81.1839891057023
80.6423348559028
80.0323444891773
79.3928144484785
78.7842098072408
78.2043549932347
77.6485312462034
77.1569723574198
76.7388521796766
76.4078886008051
76.1662571992749
76.0049627847185
75.8881692848229
75.7979478343125
75.7140518091716
75.6174645665733
75.4789918023031
75.2720075237944
74.9779123360762
74.5998102559673
74.1646719880767
73.7161323843572
73.265945101468
72.8211272288906
72.412019873196
72.0330576351169
71.6633827417444
71.2891315725709
70.9177097126941
70.5383687628322
70.1355423524528
69.7209569573018
69.2813316401333
68.8281883391824
68.3682176975312
67.8813919075712
67.3752657962167
66.8565208335071
66.3542345994043
65.8269927070719
65.2605565201616
64.640959493828
63.9836099918764
63.3322387960762
62.5824467091018
61.7488570241062
60.946428527056
60.1920757154978
59.4229706795809
58.7119298055624
58.1296133548434
57.6375307226219
57.2288673815493
56.9068411007234
56.6201317649353
56.3333084490336
56.0116802382014
55.6665823678294
55.2857587432979
54.8256416527538
54.307571254293
53.7625166914977
53.1593753004487
52.5156129024691
51.8337254782637
51.1454114077671
50.4854600132793
49.8895631722836
49.3623184547254
48.9093652143076
48.5200656889281
48.1999300302945
47.9435160922805
47.7483506616018
47.594221346175
47.4837310525438
47.4168124367444
47.395946783924
47.4241946459966
47.531510651832
47.7267288295044
48.0110347052956
48.3461766224525
48.7722821404659
49.28051132732
49.8149049859459
50.3653105261189
50.93168371251
51.5112365765465
52.0921836239191
52.6327248685776
53.1448694994877
53.6288160063774
54.1078556670721
54.5997712183127
55.1494282261067
55.7098703024734
56.2727463001576
56.8024789622059
57.3185447875803
57.8294456784049
58.3403807043609
58.8401793024048
59.3561787416357
59.9068823484489
60.4807274788726
61.0534612886293
61.6150966764492
62.167912052803
62.7126444486494
63.2542317594639
63.8027516354439
64.3543814547833
64.8942586328754
65.4291654960514
65.9998814264982
66.5547634648654
67.1041256204215
67.6522978038198
68.2178101994652
68.774683486264
69.301347169766
69.8021860298928
70.2929559850887
70.7749458361369
71.2279614055573
71.5982739946669
71.954713366833
72.2672434947259
72.5685802611169
72.8495162819999
73.0886486455991
73.3343841890508
73.5551104745316
73.7537512456418
73.9851372798645
74.2176034029227
74.4050809949864
74.5261573993218
74.6213999993059
74.6978503699859
74.7308062036858
74.7277782678641
74.7310984016252
74.7480310821685
74.7594447284868
74.7903861786126
74.9150624340441
75.1323084562063
75.3934612926996
75.6800497099298
75.9898534820469
76.2443405911388
76.4799767640461
76.7190869722924
76.9107281779986
77.0480938757418
77.1685371096323
77.2530997530955
77.3491139004731
77.4280553701187
77.4801086068984
77.5068681541417
77.5410286139797
77.5861374799373
77.6653998191555
77.7727892999951
77.8543946784021
77.9132651015529
77.9785232086069
78.0154310003982
78.0223028108514
78.0625360193828
78.0716343988857
78.0273504847668
78.0116320740419
77.9558013619187
77.884809292684
77.8521910988489
77.8264133831438
77.8025859571326
77.8044270244934
77.7691291688569
77.7267208474831
77.6447537347549
77.5437001778006
77.4266059623066
77.3045448761756
77.1627486190169
76.9891527539115
76.8231376274511
76.6675139636374
76.5290299732076
76.5158856571044
76.5134396393442
76.4437851943289
76.4205999681726
76.469896171487
76.4741247429753
76.4623201763687
76.4554045140872
76.4388898627018
76.4048334421455
76.371525749168
76.3740321837432
76.3464677444673
76.2352194103953
76.1649806102953
76.1000104900246
76.0046843530957
75.9033933055893
75.8203708938139
75.7356763194281
75.6823911260162
75.6268096463686
75.5287308473044
75.4206184688693
75.3549619957741
75.280451435457
75.1917939367654
75.1506915502454
75.1023131915682
75.025751678376
75.0134179380517
74.998321072946
74.9253473513633
74.8367042680684
74.7672269131109
74.6730338855514
74.5766729016547
74.4393749360692
74.3146341713148
74.1756931035121
73.9608363877935
73.7249217139673
73.5520866196421
73.3310886380721
73.0801221291624
72.8921385794038
72.7011756400391
72.3799174616155
72.1422609958863
71.9793822537396
71.7695751722726
71.5532501487502
71.3945521641189
71.239256379506
71.1255607578686
70.9499651123509
70.8025044553095
70.7368735528935
70.6012180258774
70.4148727642851
70.3419122994524
70.2709531023694
70.2187168814443
70.1304713660598
69.9861645501638
69.8368971824787
69.7171045307308
69.5812584296847
69.4567756717743
69.3410136114439
69.1965386246892
68.9344565172257
68.7346964335917
68.5554786568636
68.3565758653729
68.0192173041866
68.0424113140979
67.9473848002612
67.6677921577821
67.5104837396219
67.3570363932711
67.1407227216828
67.0329009978253
66.946309072462
66.8428914752655
66.6546772168612
