1798
3999.43349933624
650.420452594757
1
128
4
94.0608045084942
94.1690245065453
94.2096985977542
94.2142426515457
94.1132076220053
94.0309533884243
94.0783884442028
94.1437613841885
94.1194756879595
94.0567373118244
94.0407166251664
94.1185043538974
94.209390975633
94.2193944549962
94.2279282132771
94.2388031217452
94.170656016299
94.223091112171
94.290844231048
94.2178090462467
94.063762658972
94.0696806418261
94.135139645691
94.1749293965276
94.1764701786007
94.2196037702668
94.2881936274285
94.2772594819457
94.1267461300082
94.0420945490575
94.1400295250433
94.3037089831748
94.2780878438717
94.2263440443952
94.1917769434972
94.1811626147174
94.193669433272
94.1701150552619
94.2006634478961
94.2734676082963
94.3064791115907
94.3306123427923
94.2848848228207
94.2997199093334
94.3844418693387
94.5049502621082
94.5158431235535
94.3888338495656
94.2222905799945
94.0584851028345
93.970891895521
94.0744368199524
94.2258257830347
94.4429906525189
94.5267153872858
94.3738430279776
94.2506181438727
94.2088997067637
94.2594743969004
94.3986648369476
94.3370162002625
94.3133030423298
94.5018263851345
94.5749675868502
94.5156025400839
94.5216093898274
94.4383217274009
94.340650485536
94.3577405706011
94.4286068354992
94.4626003326856
94.5451149089798
94.5266009617765
94.5094474121819
94.5394644777603
94.4386261093881
94.1495067678568
94.0149274079083
94.2475507986285
94.7173596534342
94.9731492816766
94.8377735023637
94.533321401284
94.2993306796128
94.1552418096839
94.1809058490637
94.235757342146
94.4045228519947
94.5663903024061
94.6624375503861
94.6098800465863
94.5399186413919
94.5231252551486
94.4877550022948
94.4019360640444
94.3309040955978
94.4141172972691
94.6427174206059
94.7290461609194
94.707658434149
94.6407534497233
94.5913743209552
94.4631988996493
94.4311618517351
94.5483623572191
94.6599688711913
94.6635362675183
94.6651695020798
94.6891689821069
94.7599574763886
94.7591763203928
94.7119852821543
94.6659485802409
94.6193323088882
94.5361327529295
94.5990719473397
94.6701728874359
94.6607513931172
94.6996369819078
94.7638375422886
94.7741532648215
94.6618853805762
94.5248652679731
94.5933853158251
94.7529656426217
94.8710700857853
94.8356116593345
94.8037354428805
94.7497789655856
94.6198442567403
94.4898368168666
94.5081576495626
94.6460884931437
94.7782330860028
94.7351362896594
94.703806980444
94.9162487067181
95.0336610685096
94.8908488547858
94.757807982258
94.5281328828387
94.4668822476278
94.6989197210845
94.8868716805638
94.9647883618572
95.0210742866832
94.8832604717859
94.738231532629
94.8802624610496
95.0030644124985
94.9210791306859
94.8619762907939
94.7703652416155
94.6262633795004
94.6917910386112
94.9798877620849
95.1214039539872
95.1637540627998
95.0128653375545
94.8507865930061
94.7682456437055
94.8354366551832
95.0001728254243
95.002221306843
94.7648475277353
94.6650870166155
94.8523052056115
95.1561741380171
95.2172239574662
95.1457795680479
95.0051765581762
94.7841287453134
94.5986738618053
94.7174981866672
94.7643171430815
94.7979701868211
94.8776103067696
94.9376518598328
94.9747841908626
94.9282165151764
94.8240005232151
94.7492154071349
94.658691619812
94.6294101365128
94.5319516492228
94.356626992932
94.247073490721
94.3165343044625
94.3674869604143
94.5107642110372
94.5505145379325
94.4241740161718
94.1951752928738
93.9665022748313
93.8714533940402
93.9291333469851
93.8164606078623
93.5681597836088
93.5002038386248
93.6708121787491
93.5915723748542
93.4883089950339
93.3704020095025
93.1023640234159
92.9143468372147
92.9149868676032
92.8924867870865
92.8205612768771
92.6631338246189
92.5888141166938
92.5591025885295
92.5431818749898
92.4211188515695
92.1948298900359
92.0185358202367
92.0441945968894
91.9335235353258
91.8166561128224
91.6750574259373
91.4572014267719
91.3391343658278
91.2836627247293
91.2054853374453
91.139130678128
90.9815947741208
90.9113619258641
90.7072047243135
90.4263391585261
90.3539004506902
90.3656152491545
90.1815599607849
90.1114524973483
90.051474512207
89.906242187394
89.8182964736103
89.7670052629756
89.6214111159911
89.4261433598098
89.1864860162572
89.0926720381586
88.9264635534199
88.6050135735251
88.4747023412402
88.390918222714
88.244815944868
88.3100299714562
88.2352377701469
87.9718983429712
87.8005277771047
87.6852959616072
87.5286567989554
87.4216536266289
87.2824695873784
87.1216387889417
86.9734549368261
86.862129646976
86.7395022971641
86.656135202963
86.4687439078702
86.3154037421088
86.1958443578925
85.9983060473233
85.8537110164273
85.7808796156122
85.6320036031215
85.5169719116677
85.4258941511009
85.3360706052864
85.1429926001385
84.9389752803962
84.8088527445044
84.6969064434709
84.5500810864392
84.5566156047282
84.5199927137632
84.3668500426139
84.1575284421183
84.0088491403728
83.8802499842907
83.7652430741873
83.6650070659289
83.5796758638345
83.4299142974574
83.306997889162
83.1808224722024
82.9749578120762
82.7805529149984
82.7709593247548
82.7194643011901
82.6140127808646
82.4590015856384
82.4081935261677
82.212352451254
81.999247529962
81.9652126185006
81.9465938748011
81.8038332640565
81.5985803336354
81.4925818393997
81.5379429585447
81.517701135282
81.386823719045
81.2182090305709
81.0777779381348
80.8856123302663
80.7350923579729
80.6110487895872
80.5683009737465
80.5339988120324
80.4879488753087
80.3368661702502
80.2817348364744
80.2489717719555
80.1324397517655
80.0276687794599
79.9492472142509
79.7906700076929
79.5851800244499
79.4285316324625
79.4095232706545
79.3618923158678
79.3352592860403
79.2391170277458
79.1949581668804
79.1587557198783
79.0883618834705
78.959952505164
78.8551380269178
78.7851083114419
78.7110652527701
78.6485176433925
78.6656360439146
78.6297797480563
78.5769875115273
78.4241516565325
78.3220695988225
78.2471630091643
78.195813197458
78.1480107913248
78.1348926840826
78.1349535157147
78.0699871459129
77.9339719503832
77.9114170831429
77.8586469959377
77.8194215402064
77.7207022614383
77.6268950982636
77.5140377511542
77.5289991445321
77.5557159179817
77.5688723193351
77.5849446255433
77.5561840002985
77.4559392577698
77.3740630897875
77.337661116493
77.3748388178401
77.342959547255
77.3059295062603
77.2688767892914
77.2920976449879
77.2960262234527
77.2281360139005
77.1394042848903
77.1910535384028
77.1482184828911
77.0519385221342
77.0128222856138
77.0297521562451
77.0388895129043
77.0108836013455
76.9836475985571
77.020629932995
76.9530668961027
76.8715612139687
76.8339029349292
76.8860459676581
76.8656662193057
76.8435764975594
76.822666323127
76.8064443351741
76.8312888204761
76.9120212956658
76.8807070570496
76.8374104148058
76.810160002239
76.7851728329576
76.7191458713197
76.7484354994129
76.7276324460213
76.6799255470941
76.6773402882389
76.8038744433398
76.8759996325858
76.8386516295457
76.7967152399945
76.8171346369517
76.853966437446
76.9053744810925
76.9326246843243
77.0139643977568
76.9953384689606
76.9992898066594
77.0313162000951
76.9553413775986
76.9276109003615
77.0499869242465
77.1354889667912
77.1585347354074
77.1487703683828
77.3056074819172
77.3861353294536
77.3804339984563
77.4261575072576
77.5086798193336
77.5160893867204
77.4920023876662
77.4728285586339
77.5171746310183
77.5786784083332
77.6736468358809
77.7128346903816
77.7705201410217
77.8625200829272
77.9681555219815
78.0257456760216
78.0188150048228
78.0140304438989
78.1449128819741
78.2436400617162
78.3082094543832
78.2761968654886
78.3497588529015
78.522896319104
78.6724415049975
78.7451014502216
78.7986906695218
78.7854392215078
78.9402243021226
79.0543214932285
79.0182788158789
79.0729489363484
79.208953831916
79.2539298306778
79.3048793567718
79.3558308362227
79.4712787313989
79.6926081206257
79.8231722021101
79.7510321959178
79.8092628103504
79.9510765828398
80.0381537028479
80.0585017933535
80.1331088287327
80.2117785213473
80.3455323484724
80.4840012437091
80.5845224267638
80.6746642006969
80.7428285384848
80.8024124097372
80.8982658340349
80.9789053875594
81.0780545345349
81.1281576764152
81.1780757715452
81.2153953410172
81.3187146642061
81.4358080855818
81.5893030891657
81.7187285131727
81.8275138960889
81.8939231261763
81.9891039216463
82.1220809315459
82.1823228614714
82.2101917907001
82.2745779932931
82.3193894847179
82.4255101654517
82.5055294155844
82.6052355504948
82.668586430747
82.7108338267817
82.802541523195
82.9498162511041
83.0031671917564
83.0386748453109
83.1185818651417
83.1816947087586
83.2658059360959
83.430850095188
83.4910469309661
83.5278806520432
83.5815270989196
83.644698927784
83.6967570664351
83.7400318606182
83.8390522817089
83.996806956807
84.0527570744635
84.1640165391563
84.2612642457431
84.3509817833214
84.4519289916314
84.5140038095215
84.5548068594397
84.6579977862997
84.7829629360725
84.9168207913988
84.9433291057324
85.0094659419776
85.1235827019186
85.1505819950742
85.1355524019288
85.1898734422187
85.3005304769483
85.4187978299335
85.5011720293085
85.6211910798828
85.6932374258395
85.7307010132856
85.7527804285736
85.8297798301453
85.8871425336539
85.9560382689963
86.0264077602473
86.112262953426
86.1577435690205
86.1713599702535
86.2130573009648
86.2801364608202
86.3122162559634
86.3205391731503
86.3273408335792
86.3855702511889
86.4273082585081
86.4681460390461
86.4958835945919
86.5099159241192
86.5362713831997
86.5388407840813
86.4647275023685
86.4073045059352
86.3680153671905
86.3332381404614
86.301441562103
86.2927977586979
86.2368490620075
86.1738137188547
86.0564940921062
85.9980373530585
85.9464564985036
85.8374799901675
85.7768965147815
85.6648976421614
85.462828600543
85.3869984612227
85.3264724299707
85.2006152918341
85.0411623947629
84.9370106594056
84.890259344064
84.8191332351216
84.6383936968216
84.4537849902009
84.2661960134703
84.0969145275009
83.8614118975132
83.6452647188708
83.519892431366
83.3965768791708
83.2030636246002
83.0497737087689
82.865814811846
82.7005807463789
82.5730911069326
82.5529825057714
82.5710113995928
82.5924718783605
82.7050187444062
82.8640592040186
83.0002459816185
83.2042138385303
83.3026267347146
83.3280350590115
83.3957977452294
83.5153446621604
83.6138005494066
83.7161128596149
83.7985830958821
83.8807175667822
83.8989781857636
83.9053702787935
83.9478737687769
83.9841843564885
84.0421988083624
84.0821342607274
84.074548718452
84.1081460681817
84.1558432690878
84.2165040490623
84.2713234192953
84.3568549400994
84.4671242499633
84.5662789976576
84.6062687717767
84.6038671649442
84.6397228980303
84.7365662005853
84.7646076826021
84.7072046365886
84.6513348015186
84.5868039009202
84.5218504025937
84.5823505079372
84.7594202392443
85.0194896343097
85.2111037817912
85.4088299667713
85.6646127402374
85.9138958872775
86.077342440451
86.2179646795499
86.3354834010468
86.4236937236119
86.4897360669985
86.5789527719238
86.6532338905928
86.7469809237892
86.8034217985599
86.8619034921808
86.9562871451367
87.0964595043394
87.1639740566246
87.2105699333542
87.2639904215846
87.3139949400789
87.3859888308063
87.4586329501835
87.5362315616284
87.6085440109582
87.6023000559726
87.6206134394443
87.6993126607277
87.8152797657258
87.839699042983
87.8166485930988
87.8535757509735
87.9113602046455
87.9329999030438
87.9730090268654
88.0123796788753
88.0736550813942
88.1283462913252
88.1649018397947
88.1923642261384
88.2267024212124
88.2406389207371
88.2294833522675
88.2308357943739
88.27690927745
88.3262159409604
88.3572147199413
88.3715158001391
88.4433737753857
88.5062397308089
88.5092745875679
88.499466563035
88.5104289904165
88.5442337515236
88.583681106115
88.588920120017
88.5980173336661
88.6486801543004
88.6792114331203
88.7077914783454
88.7057071914948
88.6978069781336
88.7428057008447
88.7994443794242
88.8455151157714
88.8589609558121
88.8371515909401
88.807402430004
88.8438571845558
88.909984219016
88.96583077103
88.995125503804
88.9827913791416
88.970545933478
88.9845993431379
88.9984418056366
89.0333547229538
89.0904992810511
89.1023634536196
89.1002767140184
89.1310809642745
89.1760046080128
89.2176707852899
89.203664527817
89.1957167742226
89.2323317754318
89.2785367811821
89.251228609733
89.2364048150756
89.283223112876
89.3473495642948
89.3868034105167
89.3924659391393
89.4154369157475
89.4667646878121
89.4997559501429
89.5208983451601
89.482641659787
89.4567412736914
89.4874690723121
89.5132666176153
89.534347138891
89.5574901838502
89.5512826944049
89.5836019685447
89.6242821093191
89.6327766677052
89.6648932536005
89.6914791787758
89.7110364640061
89.800972898466
89.828275045011
89.8411675000772
89.8685797980618
89.9187114349765
89.9812142188507
90.0467005771044
90.0471632851859
90.0032556737183
90.0783698769181
90.1933369178049
90.2257664827734
90.2480243856174
90.2703385955029
90.3214322656932
90.3454335657111
90.3847529482828
90.4634743676522
90.5544897544808
90.6476944215586
90.6606712324264
90.6279282666686
90.6179966243723
90.6198311479658
90.696060350477
90.6913121387619
90.6527523540372
90.7908279609118
90.8742228976527
90.8272807750143
90.8237267712822
90.8966549151112
90.9614167745769
91.0155362032636
91.135001910652
91.1365581881851
91.1382080467709
91.1607484485292
91.1357359806613
91.1738071917847
91.161278619708
91.0786199290706
91.0670524057324
91.1823386753628
91.3305519921184
91.3552817937343
91.2828691971055
91.2544025143096
91.3077906633668
91.4232554269945
91.4234853248389
91.3773444168223
91.3861550504319
91.464683555005
91.5639373633061
91.6103614329112
91.6365874823001
91.5745528090138
91.5407266991506
91.5710287829627
91.580415207461
91.6063830798746
91.6431144625787
91.6075346936514
91.6108653685326
91.6077510430304
91.5388275671019
91.5833205111381
91.6990329708717
91.7788617420534
91.8484927386841
91.852652258794
91.7837074974247
91.7606941155779
91.8297353776035
91.7998913346615
91.7260290495621
91.7593738109933
91.8349137589411
91.8535412874306
91.8334597373793
91.7978006451335
91.8447822526862
91.9650170826505
91.9360799607801
91.8982899451365
91.9602166434837
91.9884649852442
91.9481415995151
91.9733414542266
91.9450806242133
91.8721874993723
91.9258849273016
91.9862486027643
92.0497915182257
92.0951164408915
92.0601374120786
92.1114583975574
92.1593418827663
92.1039475881
92.0029356263426
92.0047036494487
92.1653343947635
92.273381503144
92.204671316915
92.1229318721493
92.1027951235531
92.1160200623628
92.1811492858647
92.1546823268303
92.1299986632225
92.2425219275858
92.3149395020006
92.2352780189324
92.2165226043728
92.2779840876911
92.3597533282059
92.4379505494619
92.4419312213675
92.367904961657
92.3310982880822
92.289146140185
92.2781236849674
92.3136588174891
92.3549924556579
92.4423261115221
92.4518120207987
92.3815991562951
92.373928166092
92.4367233355382
92.4033362516763
92.3442384739934
92.3816344065779
92.4531408907422
92.4275149777092
92.3922495987938
92.4065109455071
92.4681885693359
92.4554537216568
92.389776065946
92.3415555595255
92.3170057639434
92.3161328197613
92.3807479582513
92.4651016752223
92.5535420319176
92.6269469046351
92.6943196805398
92.6442955983577
92.605563546811
92.6751761482214
92.7255235902861
92.7501290658863
92.8367412412661
92.8651084717005
92.7863367431244
92.6491150936528
92.495287280932
92.3517718646001
92.317427109393
92.3659520805926
92.4226837153925
92.5251256859086
92.5327822080339
92.5143595526383
92.6160688113461
92.6475846711514
92.5103066983619
92.4416920817352
92.4122181236968
92.3418960110032
92.3210992140862
92.3925232651373
92.5044313312538
92.5708919750672
92.622976568382
92.6260418110673
92.6866138215843
92.7308138351897
92.7269662422262
92.7042032872999
92.6777817100861
92.6754534768037
92.6837088209724
92.6921146030314
92.7442676919317
92.8014262005922
92.8148448909044
92.8250703036698
92.7902860749292
92.7966855158271
92.9501055474498
93.1126326716321
93.1696976064083
93.1774780406339
93.1703209750119
93.1575062497893
93.2952121846071
93.6065284910787
93.7889859754033
93.6811679599354
93.7402101853712
93.7359156423726
93.8460784091416
94.1007608463365
94.0342230906512
93.8888824277608
94.0048415868828
94.1523486714783
94.2592933882632
94.1733833639028
94.21774174389
94.4195338288625
94.4009332794625
94.341157868221
94.4934648209787
94.5213177620755
94.1668427754789
94.1352336007662
94.5227128516335
94.5668798863771
94.6502846510906
94.9546191025595
95.0045161533874
94.8694305396007
94.9396051310813
95.0673448092893
95.0956121137553
94.9871911245376
95.1372033295368
95.1857128596096
95.2548929286269
95.4837483807782
95.4373714328638
95.3911893251182
95.5300882765207
95.5731089948981
95.7625999502594
95.7808860516178
95.8707000614604
96.0924619962407
96.1295884204562
95.8646228515524
95.7920587021308
96.054703829349
95.9757436946889
96.2316024301078
96.8372923807906
96.865071257056
96.9959544002079
97.1796327931384
97.2276357335528
97.0421393466124
96.8508979472298
97.1922408202283
97.8714365623405
98.0602773885235
97.9112407443562
97.923451616388
98.1750591474962
97.9076520916272
97.5894158931393
97.45990186362
97.4240269944965
97.0736995470713
96.6638177059292
96.1905751634443
95.9849727931129
95.9507439343453
95.882250348481
95.8138261379174
95.7049532408503
95.6392390879258
95.3835702397841
94.8567191371241
94.7479954769154
94.8850812981101
94.9143760055872
94.7178000354063
94.5011751428452
94.5100715744701
94.6075520478178
94.5730645963289
94.5898001215532
94.4838958778855
94.5065647091693
94.703985094624
94.8491130316443
94.7600337519989
94.6357460966148
94.6246833668242
94.6878455666176
94.8191367895375
95.0335632647264
94.9137874939404
94.7080849411967
94.7674880782859
94.8209240421908
94.699133921656
94.7874516423405
94.7065430647615
94.7580585038485
95.0756194227389
95.2944166766025
95.3116912189685
95.2660960376008
95.2792396955955
95.3752337664517
95.3249259533433
95.4038626081367
95.6393936779791
95.8373292793287
96.0153475268406
96.078511999868
95.9205659818773
96.0671479619027
96.2481411075174
96.3718036257604
96.6008610861917
96.9542220915828
97.0890306529023
97.0463119334345
97.266188860935
97.6741114573422
98.1938012533708
98.4737179130371
98.3488152067882
98.2113632268332
98.0442297855385
97.8473425719912
98.0044540797442
98.3491948166834
98.3812524650029
98.1536364749005
98.1552231915456
98.0682286172271
97.7093211126178
97.8908693581203
97.7786937818823
97.4921903680131
97.5477623549373
97.7070483170109
97.5756299138924
97.4101624184288
97.2363016228915
97.091587953186
96.8460967191227
96.99969370666
97.1455667174048
97.3321053610381
97.3687964262634
97.2056706569412
97.2244774174357
97.3913493059327
97.3009207519593
97.4548531818964
97.9938005531224
97.975554396612
97.6671605775213
97.8828438470326
98.1310053850996
97.8933099684339
97.2498947722908
97.2375437358348
97.3209674890858
97.1402129528951
96.9288873977813
96.7621019962389
96.4871277440388
96.4249967049305
96.4982730050824
96.406645623102
96.2160373071097
96.1778808236496
96.1839758210939
95.9398882678193
95.6172605568984
95.50680553175
95.51816014263
95.5874402292136
95.606745016609
95.6034683202172
95.4801939715133
95.3955734261294
95.3289734514474
95.2319585306645
95.1612770520917
95.2307680944033
95.2299726698325
95.1513288903095
95.0226854305398
94.9614611168401
94.9658119331346
95.0160416479599
94.9262223758822
94.8063829279386
94.7888906792046
94.9200206740403
95.0546250006844
95.0405820392632
94.8827778149507
94.8040709792968
94.7527700283096
94.7546049870802
94.7841918467358
94.7947865748094
94.7380889276913
94.7366387891056
94.7654155703753
94.752196917306
94.7438390301529
94.6867119186276
94.6132293892127
94.6666101895176
94.7445052117466
94.8025589888916
94.7931566789596
94.8171224580939
94.6853279533575
94.4877839965752
94.4752589535425
94.6155117680217
94.6469375832364
94.6125357318949
94.5381699819583
94.5068398576378
94.4504835127141
94.4775707792848
94.6829706618005
94.7189953592083
94.6411480595362
94.5413887337495
94.5087216884365
94.5995315297186
94.5913514565738
94.516429181705
94.5291643455072
94.5412677811747
94.5678174962752
94.5922184471671
94.5748247902831
94.5444380141729
94.5254264428679
94.5176121230156
94.4565742909282
94.445530524671
94.4830168187512
94.5013019631683
94.446755161646
94.3670204293591
94.3224479160362
94.4332283374707
94.4663131244038
94.3834486449311
94.3228336283128
94.3550392674639
94.4933688009555
94.5651804014821
94.5281216661896
94.4572157041113
94.3679575425677
94.351680982969
94.4278825340189
94.3930865446984
94.2719726568052
94.2271403345761
94.2941506990589
94.4955729347496
94.4310041004577
94.3351844033139
94.1720158611581
94.0040763197142
93.9945665535099
93.9457739686892
93.7229384584828
93.5165134384984
93.1966319783646
92.8875303208866
92.647419061503
92.3982327243264
92.1176540458807
91.8175653002735
91.5001705768824
91.1609089513801
90.9106747008456
90.661133340535
90.3420953166406
90.5276517988285
90.629520606003
90.5741541033948
90.4341022311084
90.2880635267332
90.1742295749468
90.1271261435523
90.0168638483164
90.0198023168924
90.4286463642317
90.7313008720342
90.7544176826231
90.6253551887682
90.4580190504557
90.2749058560794
90.2052132762387
90.1418367037815
89.8295992924502
89.9498976496813
89.9942960031546
89.8439238506431
89.6994393379391
89.2739627994783
88.8070251321987
88.3840642708511
88.014373400739
87.7851269570484
87.9647622684787
87.7387859680001
87.3090574095347
86.7298868903666
86.292800876871
86.0816294795173
85.7173286362882
85.4515169131934
85.2663419253713
84.9216971848581
84.4664394671819
84.1439151519496
83.8541778291933
83.4331884710591
82.9031721548986
82.2304543726053
82.3035500830427
82.8860191152593
82.506854718394
82.0755925462983
82.0882978940019
81.9882891079136
81.6257223819593
81.1837148878018
80.7286300528225
80.5767184412798
81.0629904517445
81.1332920492048
80.81583846742
80.500402726399
80.4694964849205
80.4379094554667
80.5076997410209
80.6837060240179
80.5139914267286
80.3460302172721
80.6708307954435
80.8754205370798
80.7649243501916
80.571026730427
80.44116413143
80.4667191170313
80.4393523727783
80.3994902238512
80.3673880854719
80.4081678659011
80.4390869602203
80.5200986521298
80.6747209501676
80.8446947207565
81.0076664528648
81.1963850477492
81.3848343639357
81.5703581711613
81.6895873402972
81.8558765514027
81.8492210581278
81.9324856890995
82.6241803731268
82.9280757857066
82.7933697047093
82.9967880431436
83.3586838801721
83.3818599787031
83.3617637176802
82.9834465989531
82.5159650480795
83.7533584524643
84.4491687506466
84.4190807275169
84.3439017811149
84.1482054128415
84.1902297574544
84.0697384471691
83.8765923854025
83.8437296205843
83.9167839028553
84.6637440933955
85.2032674094896
84.9710291095228
84.8161576961048
85.1254320208501
85.1731008661204
85.0384609518889
84.9527359083205
84.9503391552297
84.8026261034183
84.9506668322604
85.0174648458885
84.8963693417736
84.9088898740216
84.7516268698701
84.6201007464498
84.4420971318723
84.3828265890018
85.4236046914362
85.9891695706817
85.8292564773433
85.6011015156579
85.5493487750478
85.8300865414845
86.1738178284092
86.1528049262949
86.0256015885612
86.2644785254511
86.5535749157608
86.6625984003603
86.5369163346152
86.3473060544483
86.1737237734447
85.8487072848771
85.5316203970721
85.2907040709194
85.158763329894
84.9302975662497
84.3867354861964
83.7975893730284
83.4168042968508
83.2496442954365
82.8841107689453
82.4296301606624
82.3140385044155
82.8481773907521
82.8045018637791
82.5092623206323
82.2066187800764
82.0799625676076
82.1626226110698
82.1169413458838
81.93360845652
81.7154380785694
81.3960275813392
81.2257293903645
81.3814659381593
81.1702851924973
80.7908254717451
80.5100336913177
80.3080374187663
79.9432792643448
79.6214004351305
79.3410710710279
79.0190615929007
79.1336516596199
79.2005943536009
79.0360687016074
78.8236508993146
78.6645952689953
78.6157780615065
78.5428923067362
78.519454060912
78.6239364947498
78.5975896578706
78.5362649502706
78.6520876918891
78.693491708769
78.8718405531726
78.9250406401685
78.7584164661145
78.5770797296086
78.5942406548531
78.5861296839579
78.4249135308028
78.2411454130319
78.0479520196364
77.9386150925156
77.8626390469212
78.008454511831
78.1376787720913
78.0884328530009
78.1311438777934
78.186997468105
78.1543667164691
78.3660381709328
78.7005970390207
78.8536232032342
78.9352177850417
79.058332560447
79.2256932893948
79.3621967145855
79.4906987483312
79.6412236766046
79.7877813012729
79.8885817917691
79.9228387857626
80.0230799809045
80.2517474441443
80.4347097294706
80.526422868933
80.5579774305448
80.5807099753239
80.6190433181167
80.6700667899711
80.7089135551094
80.7295920231771
80.7187971966909
80.7263207731963
80.7760932062483
80.7921803114599
80.8025128462586
80.8505046803526
80.8634975962313
80.8734731919089
80.9044236454402
80.9351070156628
80.9881484560891
81.0314370649386
81.0772870225903
81.1322119020901
81.1692871611533
81.1885218047055
81.1998151430801
81.2104921830972
81.1953876324182
81.1914582799932
81.1706030068011
81.1174633176863
81.0573063025944
80.9822919897626
80.8797126861716
80.7693039748223
80.6737385109387
80.5803694043277
80.4566455921059
80.2979270021245
80.1162846629022
79.9220323914209
79.740681946234
79.5791021298675
79.4101726147885
79.2455548618227
79.0971502627462
78.9896285925807
78.9257426305589
78.8889104312922
78.8624844011562
78.8810055773627
78.935219620724
79.0169587322059
79.1038299729056
79.2001991326408
79.3355822330832
79.519207379591
79.7025457321288
79.876792117467
80.0577464188053
80.2415070296544
80.4141938043671
80.5925065755197
80.7521518953429
80.9329865429035
81.0997605155306
81.2448274484755
81.4064760973383
81.599349318021
81.7659423611366
81.942646348145
82.1250548718997
82.2925032801883
82.4924798102434
82.7195862282089
82.934259025785
83.1418760323576
83.305829298141
83.4318305370804
83.4972125172075
83.4999249747858
83.4493377881701
83.3138927102811
83.1126267136703
82.8933276262329
82.6762502235511
82.4194397468497
82.1139789192767
81.7651149011525
81.3792204404917
80.9749291602259
80.5189104988709
80.0212463875408
79.4821494565509
78.8982032413171
78.3034682057022
77.7538676771656
77.2285292481306
76.7507383521962
76.3790968593028
76.0756668241878
75.8094623966979
75.6377933084949
75.5283855063104
75.4327297503988
75.3553858131181
75.2557263983041
75.1001952319214
74.905519163098
74.6240316433741
74.2547110786399
73.8416231320072
73.4484757344961
73.0462426641978
72.6140812872951
72.1854199720589
71.8326171446485
71.5058498974817
71.1696557028088
70.8233608184188
70.4861811629927
70.089025311101
69.677817053523
69.2633518566527
68.841504715329
68.4025130698368
67.9539628725201
67.4768809591889
66.9983774966108
66.4918560706946
65.9806999181222
65.472626483709
64.9324931527851
64.3260801816043
63.6836098539845
62.9819392515041
62.2316188021616
61.4601553432051
60.7115958372433
59.9778484259163
59.3126871310506
58.7330040953038
58.2632294178443
57.8606861441988
57.5182077034464
57.2173636571061
56.9137632097031
56.5523268632365
56.1877709218455
55.7697142982972
55.3065869913954
54.8068411456993
54.2708191324383
53.6746910367492
53.0585280571374
52.3969995593763
51.7482420624979
51.1264606996006
50.5312887456375
49.9584701099355
49.4800226314939
49.0628715456968
48.7000460527855
48.373284549094
48.1239991249262
47.9012462759394
47.7034122129682
47.5292150344962
47.4017214432591
47.3157834934957
47.3199371812363
47.3828474288697
47.4915219244228
47.6488734994829
47.9224974924045
48.2575914627364
48.6329858498622
49.0410393248772
49.4880335720867
49.9153879755805
50.3516156946284
50.7995463908118
51.2209729089418
51.5940982228207
52.0012851807064
52.4332988878157
52.8823989754243
53.3212680656758
53.7993135957865
54.2690155085037
54.7380623241548
55.1799416348483
55.6097706511892
56.050767109339
56.5372951362229
57.0294680644798
57.5199750284472
58.0306576165626
58.5469719686247
59.0332975281859
59.5386617280852
60.0107820648642
60.4955529678606
60.9939362294203
61.5380281471628
62.0524989823387
62.5422016982323
63.0716602316266
63.593844848816
64.0897433425421
64.6221647398778
65.1307832283233
65.6291627228654
66.1643211247799
66.6912976578094
67.1471583100955
67.5661616308212
67.9591413392568
68.3435190367692
68.6852238895722
69.0036694255349
69.317439045027
69.6003017685875
69.8386225422181
70.0833343168054
70.328986118795
70.5834526981239
70.8250766555904
71.0143210127666
71.1811405376266
71.346957422139
71.4562544956236
71.5252341493617
71.5646999151176
71.5799932138105
71.6015848917551
71.6796498502126
71.7677724235597
71.902987597309
72.1049148039228
72.3459683978398
72.5928362785464
72.9090954276374
73.1917187547177
73.4199092874497
73.6313449214972
73.8446966983557
74.0270356336021
74.1909918618721
74.3136586237976
74.4123477244203
74.5063566507416
74.5601130481237
74.5884270156711
74.6837896446755
74.7701134273796
74.8361099739848
74.9691708682296
75.1171557024473
75.2053948481254
75.271364422854
75.3564761243673
75.4284905621203
75.4521732916577
75.4660878113583
75.4514215320085
75.4448628504692
75.446523358566
75.4499659062192
75.4397469321174
75.4306252739931
75.4354809347394
75.4571625501741
75.4614844087433
75.4610503046061
75.39754586441
75.3292949134347
75.2391146945595
75.113535467418
74.9808586053536
74.8448872017415
74.7445509239301
74.6512336359256
74.5584413101437
74.4771661849634
74.417624153226
74.4544763530851
74.4527266933446
74.4489238380452
74.4546311386895
74.4676576389231
74.4821531191224
74.4940724663055
74.491931193323
74.5300895116269
74.5510072749688
74.5063049191532
74.4026844632021
74.3330132856819
74.2867668384858
74.2633901882524
74.1852733284177
74.1092923472371
74.0504303607127
73.9859035907325
73.9112770439651
73.8507456786621
73.7820114413636
73.7311616537946
73.672613870739
73.6032365065884
73.5645421187397
73.527699352011
73.4758395607356
73.4669581015512
73.473762538087
73.479301218729
73.4070673163586
73.3048657161133
73.2111288330161
73.1356515836144
73.0246879777721
72.9178643980788
72.7553666898844
72.5869209859858
72.3943250352274
72.2060910781554
72.0599467270911
71.8847358498912
71.6530853269253
71.4095277153207
71.1789233150298
70.9838616095358
70.7731550320858
70.5875379875854
70.4285124797201
70.3181409464055
70.1259898065744
69.959584411425
69.8417496760372
69.7204319440807
69.5708336482125
69.4519552110536
69.3205111867412
69.2361453719033
69.149447417866
69.0900969059419
69.0165657019515
68.910646893213
68.7851371432517
68.6675371836094
68.5226080361733
68.4166450246666
68.2052324083056
68.0439549100746
67.9331897109669
67.7935984710382
67.5841718120517
67.3323273187256
66.9842108160956
67.1532831987918
67.0676554203177
66.7745657832168
66.6354804716823
66.4668399373768
66.2322076585957
66.0936935744885
65.945577787975
65.8032635346775
65.6973908777249
