1798
3999.43349933624
650.420452594757
1
128
4
89.227424217723
89.2639420759971
89.362512279446
89.4525925038474
89.4137432656107
89.3505174581425
89.368843169006
89.443373989063
89.4108355530429
89.3975715514706
89.4229629483165
89.507909102926
89.5492175286674
89.5294627101286
89.3897563268095
89.393086698966
89.4368353808804
89.5038961963099
89.5834687596358
89.5833821038831
89.4959453408718
89.496315848757
89.4686389570463
89.532289456583
89.5415265058405
89.5451059809481
89.5289769061053
89.5943408312448
89.5452391281735
89.5617742879353
89.6211293181709
89.6094683935611
89.5185995696736
89.5637029207634
89.7042492736122
89.8506827769653
89.7492101978835
89.5639775740911
89.5827296937789
89.7510157739905
89.7387214776903
89.6868921612682
89.7274174915958
89.8124852856308
89.7850672654668
89.6183799738339
89.5084193084478
89.6483575659289
89.7449581763942
89.9063709739104
90.1385620080388
90.1530714025413
89.9447202092346
89.7724449101891
89.6095783163212
89.6159707952963
89.7414802808882
90.05836220063
90.0019423223712
89.8294072179031
90.1244611188927
90.1417063811548
89.9630815919739
90.1165237370213
89.9874350445461
89.7897885756518
90.1001026394706
90.1102811282958
90.0131803867374
90.071985534308
89.7996100200112
89.9547695712587
90.1237456804656
89.9890473086828
89.8142792360228
89.867203507207
90.2281376196603
90.811992993142
90.6590887469278
89.7736889775198
89.4651036850114
89.7212188664501
90.0725329975651
90.2769804605441
90.225750120057
90.3672962451803
90.413983855244
90.2630451837877
90.1227692803313
90.2164864289883
90.1635933178355
90.1363431006516
90.2703554108209
90.2096463082821
90.3609702186916
90.6211853799562
90.1651851992596
90.1342051518383
90.3398939798461
90.1240295145384
90.0019731616226
90.1665610593727
90.5617558779943
90.620990890691
90.3908054147965
90.6343795607827
90.6072075012849
90.328608593645
90.3741819617949
90.3866266447334
90.2564114198265
90.3177477470941
90.3929937046557
90.4445367421092
90.4150019114378
90.4036097646632
90.478126025051
90.5862034181482
90.3822058465777
90.2171078565006
90.3177410635003
90.4962429348308
90.7022390849669
90.6819538611112
90.4826938674861
90.447238908273
90.3359933285075
90.4242302072068
90.578372010695
90.5473132631782
90.5210318530996
90.6274134433593
90.8577242890136
90.8916254286325
90.454280227633
90.4733690634916
91.0238566266585
90.6639220076952
90.1846477534037
90.424192481749
90.8856646439865
91.0037595343035
90.8202936956503
90.7000598662592
90.4482397193749
90.5325108303887
90.7785451522362
90.8488001406781
90.7679066623592
90.7753724960405
90.7398073782012
90.6807047158209
90.775051518262
91.0490799403242
91.1647691235482
91.0235602941202
90.7432998306047
90.6404643921971
90.8317266539236
91.0389470634423
90.9226867927338
90.7917836274639
90.677387058543
90.6838601056126
90.9024998518789
91.2614374386572
91.1915513865437
90.6711383371948
90.4771485790225
90.693450679749
90.8830000710283
91.0305563527732
91.142971428446
91.3100170433248
90.9762331957832
90.7828946755009
90.9211207595532
90.7204572828177
90.4504179353528
90.5189139606331
90.6690143015217
90.6997791948282
90.6680885999721
90.827139317326
90.6627519126827
90.4415216132748
90.75416474898
91.0403960518677
90.6646779787674
90.1750306820854
90.0861802229366
90.2638895085529
90.2788770456885
90.2522981764219
90.1020855855394
90.1473881459878
90.1638504635919
90.2657337669271
90.44070103086
89.8925575111189
89.2982936641684
89.3798287272624
89.7305940673869
89.9226281611785
89.6506989628365
89.3933846076325
89.4005601116793
89.4038227152739
89.309492486899
89.3116143320178
89.0227437027398
88.8202324314977
88.8553507579788
88.8775967189979
88.7861150072896
88.7854256290914
88.7152829562687
88.5103499094009
88.2314495259734
88.274929887408
88.4566212252126
88.248304102501
87.7837298451804
87.6188459993459
87.7375936636134
87.7503837889005
87.6503483087652
87.5998835515604
87.3743610906534
87.1872592877824
87.3535555642271
87.4579020015033
87.0140899708481
86.7747026154112
86.6336120954455
86.4879467695704
86.4346971146968
86.4452849514213
86.4110790199044
86.3240705662682
86.0941019442786
85.9726974144223
85.8228266108085
85.6525840436729
85.5113793845718
85.4276851081587
85.3810300392883
85.3906355453068
85.1899695239135
84.897166896404
84.7331160123431
84.7687236477719
84.6846338819243
84.5617521811212
84.4216572836929
84.2923941388241
84.072686431215
83.9827207654573
83.967761587101
83.8973389842448
83.8236222663542
83.7553332804934
83.5259190400407
83.3330149555879
83.1322985481272
83.1068310759239
82.9663480749431
82.7516352249071
82.6282301031857
82.6742497102151
82.6539810953158
82.467049350747
82.3188406237627
82.2591475522295
82.1654245903767
82.0814385671574
81.9126893428858
81.8128413273256
81.649118936094
81.518543481786
81.3420831924898
81.22534289197
81.0831535981918
81.033918427383
80.925628125756
80.9370715638773
80.8025828039304
80.6359941232578
80.5002563429905
80.3597469051005
80.3171696858934
80.3099156609009
80.2127281085326
80.1584605032364
80.0825393348094
79.9911302138221
79.7426703674255
79.6186909202091
79.6386751168236
79.6760207683473
79.5378365487346
79.3647267385364
79.2130823948244
79.1889026152771
79.1270737565569
78.9699565659983
78.847541204787
78.8543478967022
78.791955794027
78.7564439025055
78.6126961385119
78.4743947364981
78.4490089413294
78.4542355871512
78.3213453041494
78.2049470102531
78.1099989385856
78.139985246596
78.0537886233425
77.9994802180378
77.8574625155536
77.6834883173737
77.6890004432046
77.8524877613958
77.7725711310734
77.6765022716331
77.6613702717406
77.5823829985219
77.4148516325928
77.3310101224861
77.2752229696122
77.3572057665588
77.3269179854587
77.2417843073407
77.1680382491104
77.1451358869846
77.1173050059492
77.0451550372562
76.9940294715796
76.968894374869
76.8601820633618
76.833910316157
76.8082176008595
76.7767517806184
76.7578787141247
76.7793247722972
76.7268814603165
76.7465248251078
76.7380032460199
76.7009824425549
76.6164070510417
76.6208240426926
76.6125520289636
76.5979074772421
76.5065504527379
76.4766366895652
76.4361235246907
76.5105586685898
76.4804355712391
76.5276316185021
76.5330966507386
76.5188069551069
76.4722526238303
76.4444368102771
76.4178391679618
76.4850865832518
76.4684553981786
76.4228841196223
76.3317017367196
76.2855161493672
76.2860151016057
76.4002101092205
76.4055638351606
76.4685924425304
76.4974412936616
76.4515706581642
76.4045636440232
76.4318979804985
76.398672916969
76.4412245954077
76.4666515074753
76.4779297903019
76.4023757856862
76.4115722040651
76.4751083076616
76.5689363222168
76.6016854109427
76.5885677546399
76.5255209273501
76.5620349014313
76.5338334790064
76.5858650336257
76.6026848877996
76.5606172641134
76.6120325754585
76.7020673861333
76.6313071787699
76.7304881681418
76.8495925483257
76.9061650482804
76.9358973751385
76.9693339421525
76.9229420306954
76.9695292096554
77.0482333978978
77.073395104691
77.0000879660756
77.099681753472
77.2276117669399
77.3292745165636
77.2983239129689
77.3313060280809
77.4169760528195
77.4773553450859
77.4415321928009
77.4842260301055
77.5832331631771
77.6857084140497
77.7951689793538
77.8512913486168
77.8101489822049
77.8431157684063
77.8895518613394
77.9932725154839
78.0417212747824
78.0856897113616
78.1190605672469
78.2243345082642
78.3431096285643
78.4343099197213
78.4128393007359
78.5138664839363
78.6858321925292
78.7960196643291
78.860319511659
78.8854751721634
78.8883742350378
79.021897378223
79.1192639259207
79.2337810347728
79.2934402304165
79.3670076406687
79.4140320500134
79.5257476500782
79.6198568163931
79.6869058051415
79.6975384269936
79.8383555864654
79.9098710868469
79.9891998935442
80.1155465723453
80.1923010224362
80.2251942365051
80.3878052139054
80.5176371911746
80.6164711511332
80.6724256057983
80.7819746169458
80.866329962753
80.9228142980782
80.9968599391181
81.1039328785899
81.124494909706
81.2118529210419
81.3203029136184
81.4413593674975
81.4685223988504
81.4928214123589
81.6167021393627
81.7400696782598
81.8561042025209
81.9902556550578
82.0269218719516
82.104008118288
82.2101762646569
82.2860009960414
82.2656628678619
82.3598011220953
82.477118633245
82.5178093346709
82.5689356624405
82.714486688331
82.771215046068
82.8735271261028
82.9506988395274
83.0215885714472
83.0958156207612
83.2375549812279
83.3082365342822
83.3267854248293
83.3880611088632
83.5403433099448
83.6425594031363
83.7150970200751
83.7243557520288
83.7946888012399
83.7971605262788
83.835951334937
83.9580259237397
84.0903797718019
84.1484606641215
84.2231357482813
84.262343331563
84.3425175868142
84.4078656216413
84.4510861934732
84.4862933611258
84.6094040364002
84.7434808597997
84.8753963261143
84.9651583213047
84.9469260902309
84.9466763195534
85.0723015423466
85.1257655646814
85.1824972626354
85.2784611451873
85.3941268113898
85.4744506159421
85.4939784744429
85.5224524537953
85.6342553635708
85.7334350426584
85.7956091440176
85.7595837580054
85.7809571315588
85.8613227660887
86.0049581995751
86.0637535087534
86.0679398114534
86.0733872047801
86.0709668205502
86.0971305562768
86.1979990891938
86.1512417674483
86.1712855865791
86.2100786615919
86.1863452547079
86.2497083237901
86.2870478133535
86.218230957661
86.2481994884044
86.2240942571981
86.183802118537
86.1463471480475
86.1027115578817
86.0845872441851
86.0819947309207
85.9966816682486
85.9659292469386
85.9494154774893
85.8075378931797
85.6626413652885
85.6247040000893
85.5397060303622
85.4333426969731
85.2828519695779
85.1869835598091
85.0785027674803
85.0164773539028
84.9291333454001
84.8177571823699
84.7361809825312
84.5668337973771
84.3838476829361
84.359892935138
84.2408242403238
84.0091891638279
83.8590843248877
83.7196512349429
83.4831992438115
83.2801160480518
83.1059827680083
82.9760219222984
82.8611028934623
82.7797334192714
82.6781984807889
82.5921058679543
82.5571071399881
82.5419944311826
82.4988660581128
82.5452089786726
82.7105626528496
82.9324715497338
83.0198908331489
83.1126067495105
83.2422151413369
83.3163156488239
83.3806429309564
83.5002863240545
83.5420816345317
83.5494431963491
83.6113622935688
83.724850175044
83.7873413718866
83.8271098577394
83.8461238410459
83.8973274824619
83.9378648146903
84.0241929112413
84.0848448792767
84.1214764252681
84.1727070272745
84.2196808156185
84.2955993321449
84.3735680976161
84.3887114122397
84.4674554184974
84.5556710367795
84.6099863227562
84.6288696217195
84.6590757641774
84.6837494346884
84.7632482827523
84.8059179140842
84.7959995970742
84.7718536516334
84.829161889215
85.0514000583185
85.299912531592
85.4793146571225
85.6852135183617
85.9320651889259
86.1231345366988
86.2031512749377
86.2864201484894
86.4064801848416
86.5042764207113
86.5453535930847
86.6473653853359
86.7977718450188
86.890205801861
86.9407304349295
87.0582651568949
87.1132221945801
87.1298498524341
87.1844891877291
87.2459770463669
87.2906778484167
87.3763995990081
87.4441767599611
87.4961440353039
87.5429116541402
87.6114709761398
87.6324126192964
87.6517349237238
87.7253966923729
87.7878806204197
87.8321596050351
87.8814138409133
87.9209416065834
87.9598319528185
88.0007228173184
88.068920848369
88.0791448508413
88.0506162653046
88.0864181843467
88.1258261096485
88.1400164797485
88.2078186896858
88.2093225418056
88.2192132593935
88.2680575293231
88.3027428769788
88.3369504430947
88.3822754974136
88.3928282924988
88.418706607348
88.4411670551168
88.4611645239366
88.4667514453787
88.5197559494564
88.5602417448562
88.5669874408556
88.5791342252788
88.5868201744251
88.5934645797322
88.6680540868632
88.7299505297318
88.7448337554595
88.7069821749351
88.6727278654447
88.6895118538719
88.7890417510815
88.8194146675171
88.8295169780584
88.8121572444377
88.7839784907861
88.8415000288392
88.9231569488606
88.9488012182431
88.9966150437933
88.9892250751437
88.9550675465266
88.9910071011349
89.0291207831729
89.0448394035872
89.05457054088
89.0371553541893
89.0434596429558
89.09974766445
89.1530080300785
89.2254859756501
89.3073310774737
89.2904189272097
89.2278513799128
89.2053597301583
89.2576853695081
89.3195609534641
89.3556967763978
89.426670573954
89.4432076000643
89.4416423558609
89.4860158201768
89.4720714664883
89.4870702532192
89.5202893740187
89.5157656522072
89.5165710102146
89.5668034404337
89.5743152048235
89.5953183308566
89.6341819662907
89.6510675022318
89.6662855982987
89.718630186488
89.757014926919
89.7692683964517
89.7878495376018
89.7700041627774
89.79925456241
89.9117132003381
89.9881005123279
89.9183624884338
89.9227404812973
90.0358047195625
90.1016583242194
90.125852927067
90.1872234533427
90.2783087733836
90.3023902990739
90.2600866078786
90.2828308646613
90.3721397431238
90.37440481871
90.379385740354
90.4987120100439
90.5750957674541
90.5863888607896
90.5905643453742
90.5792213864899
90.6029543134739
90.7452438492668
90.7485503285816
90.6840872787403
90.7711794790901
90.8021119131382
90.8079105484211
90.874352587821
90.8965544564391
90.8609344863701
90.8574046160972
90.9581650098019
91.0311645265143
91.0314183917831
91.0684589704597
91.1268076808814
91.0568688338288
91.0301071946764
91.1508836388569
91.1912725842776
91.1520301138224
91.1313435309174
91.1691683008538
91.2061677965012
91.2620267952241
91.3016457666209
91.3229626908143
91.2876454248427
91.2464926685912
91.2100599980563
91.288946821366
91.3583187365489
91.435837348524
91.4778202107446
91.4458705080698
91.4006558727466
91.4471913910926
91.4715079687786
91.4959993561377
91.4397778001106
91.446833839394
91.510522501635
91.5100095459377
91.5139474930112
91.6138366638074
91.6990904860086
91.6710287902209
91.6069941887245
91.6321265441279
91.6174659580832
91.6097207487985
91.6282069182184
91.7129857336306
91.8072405576297
91.7984497246958
91.7527422888617
91.7294331346169
91.7133533390211
91.7189696327002
91.7917214942368
91.8136123650898
91.7578751983342
91.824953716673
91.9387552930865
91.9488805539896
91.8835746611981
91.8672447307193
91.9019767672103
91.9542826427346
92.0291467018694
92.0334188558248
91.9867063270877
91.9984016920288
92.0026345839521
91.9832163952243
91.93788294247
91.9736039764676
92.0246120655447
92.0626881511054
92.022211445524
92.0263883682551
92.0597800454528
92.1311882262617
92.1777182095949
92.197637482036
92.2059638376127
92.1631321717368
92.1828472735771
92.2487219457206
92.3191772811108
92.3108560035889
92.3470378617056
92.3520666309495
92.3039865609027
92.3207404453455
92.3445588789988
92.3706796886597
92.3637081293694
92.362936768548
92.3354170742777
92.3286816246782
92.3872528437925
92.4580216127629
92.4766211173601
92.4199781138113
92.4377274834186
92.5405840651096
92.5392451464172
92.4973637958821
92.4399073252303
92.4172792868612
92.4755264206255
92.4516882394686
92.4563476584984
92.4908156026912
92.4585761536319
92.4372838070707
92.5025416973066
92.5424677041423
92.5955912018686
92.6424430169469
92.646674957125
92.6357272832321
92.6430836300889
92.7756627737407
92.8454939794625
92.8891574127398
92.911256725298
92.949756100199
92.9190154484211
92.8177682688196
92.815956340818
92.794174805078
92.7149258577439
92.690779071904
92.7720777328679
92.8418951739746
92.7615971182246
92.7164216041439
92.7964668457133
92.7872215456884
92.6816459102194
92.6631511243336
92.7412119270483
92.8413312039708
92.8009955205142
92.7329517014883
92.6909740815574
92.6263842742003
92.6511618071427
92.7033895043789
92.7644946889559
92.8083189089406
92.7864906158681
92.7918816225603
92.866965794076
92.8646656414024
92.8747392542894
92.880601162549
92.8352273528256
92.8758349129771
92.9614536718631
92.9896836379812
92.974034878001
92.9659463090671
93.0111310697827
92.9935273701986
92.8640801901868
92.889007819704
92.9849236230386
93.0888768889965
93.1580676311665
93.2026021565739
93.2596155956576
93.4227841471966
93.4567941649184
93.4216099796842
93.4607584568132
93.5369453864443
93.5900224065554
93.7018751891096
93.8465426045336
93.9631529428031
94.0060320805221
93.9365724383199
93.9219474599647
93.9942998415475
94.0172159322783
93.9891977861143
93.976582392184
93.906954822543
94.1129034914613
94.3081344214373
94.3028434609303
94.4030960374569
94.3788442778762
94.3556481875156
94.4498209888179
94.4808212140338
94.6439809567745
94.594294943472
94.6032766327294
94.6343307362685
94.6913306442091
94.6935286761099
94.9194977161316
94.8843843001782
94.5033414109572
94.6126506804512
94.9576781067357
94.8764564295665
94.9835108050054
95.2032300594202
95.3884501547822
95.2223962863508
95.3105181604681
95.4962650458537
95.4969478681485
95.6593642184641
95.7556982036037
95.7375493305553
95.6418448004413
95.6516206423445
95.6310674867024
95.7850260134083
96.0598418810523
96.0013753176541
96.0267952587324
95.9868364353467
96.0010109973134
96.3684455546823
96.3793886944133
96.2551700264912
96.3516672927093
96.5880682399346
97.0846408937201
97.3680679691417
97.3834411793537
96.9885657298201
96.411968582447
96.4072646762677
96.4508800219728
96.3664578358713
96.1460727178372
95.866174390842
96.0994904409387
96.0057338214845
95.6195560413015
95.5010462118567
95.4368199948636
95.2562470645538
95.1339796498602
95.0784789908019
95.0273906405855
94.901359682567
94.7775973641094
94.7651303317433
94.6408497392559
94.5073908437207
94.5989770744492
94.7002743145621
94.6226885897228
94.6529708102599
94.6973891218263
94.7595839162923
94.7658100262426
94.7034872892457
94.6735342720199
94.8015964562901
95.0349886017463
95.1228298854946
94.9427263527945
94.81653803445
94.9224066575651
95.0505437471899
95.0291980586318
94.9292843858293
94.9748634887179
95.0452290550867
95.0095125831558
95.0839211572103
95.2464687163564
95.4588202356297
95.6806335323704
95.7307638183151
95.7099421091389
95.5540537226422
95.5476461497494
95.7020457292879
95.7538853253875
95.7871401493551
95.7636580081261
95.8121409287467
95.9579550843344
96.1466980018429
96.3535329546827
96.3904394315152
96.5939317621423
96.8612522315674
96.9482126130851
96.9679835001134
97.3438193329454
97.5859079324037
97.8509705136349
98.2030316208093
97.9034272514617
97.1773128929381
97.2268691310843
97.4097300523475
97.6588778716929
97.9322338167079
97.6790831157743
97.2967352946713
97.514832299199
97.5841079337161
97.2013274468592
97.1602968364234
97.330436484567
97.277934895541
97.2458625435471
97.0758743504208
96.9319829294157
96.8678233127633
96.6547827558733
96.4839921131037
96.7524251257796
96.8424786156181
96.7472339700086
96.8073952740517
96.8952339374066
96.8964970928665
97.1056317700052
97.2611117924438
97.3138228431846
97.6410384535061
97.7840394373109
97.5563567000574
97.2266208409545
97.0597097510996
97.3611140188919
97.2549384637129
96.8275779767034
96.6670504144556
96.6698740868343
96.5347895260344
96.5717583897167
96.4294333572539
96.1937686289909
96.164458202548
96.0919752283329
96.034564412919
96.0222728663697
96.0157642415763
95.8962764088373
95.728596503832
95.7673088338816
95.703130631796
95.6745668586174
95.6672940937056
95.5918886441896
95.5553821054628
95.5381289722257
95.5119105785199
95.5139707997301
95.4606667044712
95.4358082324548
95.3178747685157
95.2656825077548
95.3235551287828
95.4070075938448
95.3175706938137
95.1858799242848
95.12942855093
95.1538156521479
95.1420088837491
95.1498849023847
95.0333492121172
95.003812787898
95.1245107995104
95.1211210311527
95.1353922402436
95.1374791482554
94.9955479156713
95.092537693953
95.123096013706
95.0464509591613
94.9486896779102
94.9830054055064
95.0455223354278
95.113624946019
95.1022615980916
95.1298522509513
95.1792610110104
95.1168636164198
94.9770570404077
94.9539459006193
95.0370522395916
95.0493085224405
94.9406119775338
94.9204041589364
94.9526807714002
94.9663027093165
94.9514059006741
95.0238155715432
95.0217651581396
95.0165262809268
95.0043534218522
94.9806648961432
94.9844812694884
94.9813043287185
94.9898121176849
94.9630613078889
94.9606681627007
94.9958709997513
94.9185367447716
94.9825238288696
95.0254782562962
94.9414654981262
94.9282937896187
94.9380927468034
94.9442201178533
94.9486618431881
94.9775420949831
94.9937950585557
94.904745062115
94.8247982857353
94.8321651881188
94.8985625442334
94.9058060009157
94.8619363593301
94.8456777462375
94.8886465054242
94.9238444216241
94.9239190701108
94.8394439912948
94.8281372990208
94.8243913569864
94.7961980742876
94.7781873699289
94.768802762256
94.7366220541073
94.7445822014498
94.8041657039784
94.8523289305735
94.8567449351373
94.7284573879519
94.666559389884
94.5955985110105
94.4881217018704
94.4566067556569
94.3532300633579
94.1629388144687
93.9718253881578
93.7169980752085
93.5457810756642
93.4616256551326
93.1641420164538
92.7837963214941
92.4963466111106
92.3217137685882
92.0599743972885
91.8238206034583
91.5972622033258
91.4686033512398
91.4840225658097
91.3020220390987
91.1271962049788
91.0809973109552
90.9985159860405
90.9276044003635
90.9079147225683
90.944315875931
91.0661721277347
91.2063553806499
91.1569194998701
91.0913778079472
91.0381907629891
91.0461497679496
90.9802068599694
90.887918822798
90.8175606635789
90.7444980784968
90.7301884955061
90.5550127771776
90.2876665226067
90.1416095088637
89.825040991098
89.6118620780422
89.3869989298492
89.1644689762164
88.9078278804309
88.6892932461276
88.2487871611132
87.9835084515986
87.7573914751974
87.5052324261979
87.1977174919623
86.8344715999076
86.5560578155168
86.2412512856403
85.9044275616072
85.6418451046205
85.3577786565534
84.9955345244307
84.6670987735361
84.4801021268234
84.3098841721481
84.082239067747
83.7774495892107
83.6693323854766
83.6119039700138
83.5007047418588
83.2489801539863
83.0357734780804
82.8657001471276
82.7273722480806
82.548136772797
82.3337603707901
82.2279050421803
82.2248592702194
82.1794123538496
82.1277885300661
82.0652834220496
82.0271045589017
82.0467483148933
82.1134005975967
82.1253267055146
82.0834249623845
82.0576671610793
82.0665230293037
82.0739483504929
82.0052076075147
81.8846969923498
81.7979155670049
81.756681565697
81.7370186592181
81.7290163672773
81.795758368998
81.8819057106244
81.9831833554679
82.098935892708
82.2194076583278
82.3898811469863
82.6281019189579
82.8544672833302
83.04868415678
83.2638604065193
83.5000290339332
83.6280350745076
83.7887109757986
84.1062240439387
84.3595302293903
84.5375481657092
84.7264456147499
84.8753381458177
85.006233744409
85.1431524641851
85.1789818562766
85.2001524516585
85.5122349682468
85.7335706496352
85.9072671727593
85.96637360109
85.9366919142512
85.9497079128069
85.9902693678721
86.06982259289
86.1779967693017
86.2302739447928
86.4166627502674
86.5939756735376
86.6575467851064
86.762035843901
86.8398824731082
86.8854271672553
86.8708158589613
86.8401662340932
86.8037427846329
86.7376622411595
86.6675430295362
86.5518854757967
86.4536526692353
86.367786249873
86.3619327721215
86.4752793793405
86.6016130406017
86.6887597592407
86.9692704996568
87.2187693992214
87.3464115441006
87.4356620749449
87.4931677484908
87.6020478916741
87.7825679476539
87.8961740111842
87.9804006900625
88.0392796734649
88.0978584095506
88.0837929248353
87.9928241974557
87.8707710183516
87.6761005900289
87.4776201226318
87.2341515341465
86.8844964951581
86.4191669217664
85.95205197686
85.5897428292813
85.2045476026109
84.8015823883591
84.5483422843602
84.419137199432
84.257700432387
84.0374744576788
83.9290230575078
83.8631931467862
83.8004925311219
83.6749357191472
83.5225211361629
83.3969000156329
83.310257870766
83.2076009190008
83.1003254487084
82.9162699046902
82.6779364726633
82.47228076163
82.2772759232043
82.0272949987539
81.7506206461182
81.4676980089825
81.2301515560045
81.0356218461318
80.8359340494117
80.6262133804479
80.4567112196464
80.3857724857879
80.3230541828575
80.223762492057
80.1520704550653
80.1243639468675
80.1211497969277
80.1491583141589
80.2127638547484
80.2329146904827
80.268748841101
80.3332432734179
80.3601961505395
80.4281538727734
80.4688875542861
80.4108741883631
80.3047010456626
80.1970703480122
80.0871245912074
79.9833453532696
79.8707842443477
79.7638109441954
79.6947590623326
79.6784837469887
79.7277091865456
79.771438448505
79.7939318838789
79.8442553849999
79.9182193845953
80.0200186245854
80.1869997492282
80.3558014127935
80.4986529674982
80.6135132621376
80.7440852955153
80.8972355271903
81.0231755497418
81.1370060437554
81.2525930931369
81.3722818277341
81.5040524786839
81.5933577234601
81.6656170513596
81.7580265756505
81.8780290505141
81.9690499999884
82.0121184069421
82.05629983331
82.0770112258616
82.1040820289352
82.145187356425
82.1618858270149
82.1793287198869
82.2108652614307
82.2282131379498
82.2435649978987
82.2580282422777
82.2690739793566
82.289700810335
82.3243660611642
82.3748776846017
82.4232011741776
82.4549824449814
82.473079250669
82.5101220961111
82.5457683957922
82.5715336465072
82.5855362319744
82.5791150725383
82.5859698996475
82.5820857609435
82.5421834404032
82.4665390496196
82.3980684537968
82.3254382530654
82.2306012256159
82.1314544215573
82.009192647208
81.8546764450965
81.7168281256419
81.5877009470974
81.4374078790392
81.2756578608258
81.100433955438
80.9187862262237
80.7319335526547
80.5691118489658
80.4285819885941
80.310963119292
80.2150100292227
80.165720871413
80.1307080853583
80.1005337677661
80.1134471242713
80.1785419649074
80.2762826118575
80.3681062748135
80.4576649357271
80.6020863791589
80.7716859360789
80.9360117791872
81.1056818944554
81.2679371482662
81.4457570205027
81.6325599635646
81.7893985242376
81.9494748708824
82.1186651235245
82.275545377012
82.4308730252118
82.6214612441142
82.7943504592392
82.9535844810487
83.1322106131339
83.3045927548276
83.4683651490536
83.6487417975664
83.8485938970207
84.0372676488362
84.2227995043766
84.3873651668774
84.4850605373942
84.4932298855871
84.4698491933668
84.3861079569038
84.2169213884363
83.993130655517
83.7058734559898
83.3864489829066
83.0556563465785
82.6930097858324
82.2956384418473
81.8593701550247
81.3888428762573
80.9005223464828
80.3521157936904
79.7441084330081
79.1396686555047
78.546640474768
77.9833592614068
77.4727702003793
77.007184861288
76.6250763064179
76.3232947718352
76.0931971917931
75.9359721344725
75.8099397453068
75.6769486453025
75.5709151569695
75.4921649501422
75.3363260062294
75.0996912851794
74.7967572011225
74.4108425717703
73.9874852611468
73.5463914671863
73.0901208984391
72.6523318669938
72.2502988028957
71.9017948912037
71.5400045833835
71.1607248469636
70.7853958614058
70.4059729325077
70.0213289844696
69.5949876693413
69.1281529429238
68.6686296069157
68.2192546965152
67.747149643433
67.2786528682771
66.7890109255903
66.2399929851311
65.6888753519794
65.1323594582711
64.5381566273954
63.9036889478162
63.2151051460205
62.497839780545
61.7441868938474
60.9645252839308
60.221876122399
59.5169522892597
58.8666865562483
58.3039590042526
57.8575529803261
57.4944042783804
57.2056074327767
56.9372118040676
56.6422450422905
56.3153558848911
55.9773391767993
55.5943103575361
55.1344047262853
54.6381696592911
54.1320229768517
53.5769958923979
52.9613757076218
52.3548077213825
51.7952529511195
51.2253781456389
50.6894209911646
50.2236883968837
49.8318165679565
49.4933207920193
49.222403388982
49.0092856628988
48.8645217911922
48.7747426468778
48.7207909732714
48.6922740121301
48.7167286643689
48.7999793884198
48.9539008277227
49.179396918883
49.4889579470545
49.8682745295476
50.3064631934325
50.7929137246156
51.3111660748985
51.8564815955521
52.4272682646337
52.9693555251963
53.4797809583677
53.9984609445933
54.4976586012911
54.9656354761444
55.447033548646
55.9472272090554
56.4459892534567
56.9610031265996
57.4942987011443
58.0190200135981
58.5490434584543
59.07191004884
59.5832729963648
60.0909690247944
60.6260254675593
61.1828407277332
61.7424269672062
62.2948477918867
62.8386616200076
63.3579272372585
63.8907337335745
64.4328197067458
64.9659642796205
65.5067085709595
66.0526656347171
66.5956943261931
67.1502154491385
67.6760112021
68.2062381265086
68.7253523745875
69.2237302369755
69.7464310306771
70.2660802062404
70.7593170366944
71.2565401760997
71.7058335211258
72.1074057738125
72.5190553766192
72.8491808674883
73.1352062282662
73.4221811253018
73.6509014005684
73.8999692638469
74.1482142716318
74.389877032589
74.5945665780732
74.7897020187982
75.0061224498352
75.1867602282155
75.2560141220524
75.3314396436765
75.4216801492975
75.4540896497984
75.4469735594638
75.4520926285982
75.4631744584591
75.4716078197339
75.5601283153325
75.7373015251383
75.9422977041908
76.1897988773267
76.4618893265486
76.7548325164992
77.059085085383
77.3192491340487
77.5242753853062
77.7136185728282
77.8643019748202
78.0175505966646
78.1082658312104
78.1937458017666
78.2666877183082
78.3457733474074
78.4516902315245
78.5327187233554
78.5825578701483
78.6307015684125
78.67124207676
78.7417264932197
78.8255696707344
78.9092145656826
78.9989106363237
79.0310995872775
79.0643170162533
79.1044174611819
79.0822052969355
79.0486289619561
79.0371137006075
79.0271321493374
79.0071198435961
78.967396906423
78.9833242559369
78.9763503754981
78.9315879265641
78.9198076833477
78.8488189533517
78.7746694351905
78.6833977424231
78.5488202748086
78.4128659957949
78.3040510674841
78.1475377479464
78.0446622385518
77.9804018243723
77.9307607560967
77.9016932612479
77.9031554010278
77.9430768581104
77.9394895425605
77.9237285904965
77.9998023053741
78.0647967436502
78.04371719189
78.0124850018242
78.0463117419005
78.0744350944054
78.0387715612412
78.0040010482845
77.9367716784534
77.8334237797319
77.7698647030976
77.6946020885495
77.6231658737751
77.5773430674601
77.5310740206658
77.4453360059081
77.3837757682652
77.2997039300046
77.2135090219738
77.1974014554123
77.2165734325897
77.1763235845825
77.1225027415685
77.0683215254555
77.0586396826165
77.0282555738153
77.0027158725012
76.9688773702297
76.8866789770143
76.7824929721665
76.6741315225814
76.5895311525573
76.4756929951644
76.2958634606114
76.1217722555447
75.9598770076333
75.7702406674299
75.5672759995257
75.3759694976936
75.1389407339849
74.8616871082365
74.6343042798159
74.4398590595692
74.2679502267707
74.0899661994046
73.9309779164214
73.8037038648037
73.6446721290634
73.4760959481009
73.3228134873414
73.2430259596804
73.1558722089227
73.0517319690969
72.8864211299966
72.795455622319
72.7345576937431
72.676313890843
72.5629489688434
72.4490192665178
72.3552015798336
72.2323633233978
72.0905981540859
71.9707253798993
71.7909035703671
71.6128305887392
71.45064173152
71.37889314118
71.1860649798977
70.9419052593817
70.6641147816161
70.6404368912372
70.5087206613321
70.285366807552
70.0978617416601
69.8952943119543
69.7245740628903
69.6877602788221
69.5886727348194
69.4277496845451
69.2853860537326
