1798
3999.43349933624
650.420452594757
1
128
4
96.0977045223129
96.0234185334653
95.9697386795602
96.054549226557
96.1359087076524
96.0770354676103
96.0329596114369
96.0172687561113
95.9846214960354
96.0971663229441
96.0998362384795
96.1559156361987
96.1609019561779
96.0579758562552
95.9963869116907
96.0811469729835
96.1123572824723
96.0678549190982
96.0703486663704
96.1442325466227
96.149116072773
96.1130421126626
96.0242430285754
95.9967875185895
96.1146522039226
96.2729851664466
96.2449633912139
96.1619171988743
96.1202615509394
96.1435650865879
96.0966407481592
96.0720474903432
96.0540177983515
96.043995235443
96.0790279851876
96.1743524306874
96.0550398041452
96.0019827260286
96.0386462749991
96.0634195684989
96.1490707059691
96.1881688395188
96.1412450676903
96.1780407571105
96.1663163103716
96.1698314116914
96.1733247383505
96.1950594250251
96.1775721703657
96.2098844557422
96.2243476187512
96.2248281450157
96.2846139880092
96.2889944197515
96.2993336123132
96.2773644864581
96.2467705889569
96.2080412223843
96.0849927534858
96.1245035999054
96.3115920907606
96.270030207399
96.1782467939071
96.2197866708341
96.1577112312744
96.1342617165424
96.1703574383699
96.216945989144
96.2649287995417
96.243572510668
96.1497433310336
96.2667702430879
96.3666499140752
96.3300803134744
96.3116613819181
96.3412887898652
96.2569293083344
96.2838634635845
96.3507867322895
96.3356454537165
96.2520522248229
96.3080393079333
96.3247310759657
96.295088171908
96.2738698708423
96.3738719850007
96.3413636696442
96.3242741334983
96.2012348987076
96.2371686655925
96.392622954613
96.3751427018588
96.2545870147841
96.2859806795513
96.2900267733798
96.2508089306253
96.1885119976769
96.2503351491017
96.3606126748126
96.3902263701569
96.3300546054879
96.4141050198839
96.4763847303977
96.3464978033527
96.2280819409204
96.3626607324133
96.3568827720641
96.2888588455939
96.3430046022774
96.4016783212596
96.4052017309621
96.3886822626423
96.3360641210334
96.3210207525299
96.3559095972518
96.4003068744063
96.3627245975809
96.3951785389708
96.4266790589436
96.3710800220694
96.338008628986
96.3898854034682
96.3691949202577
96.3186458640346
96.3260661669067
96.3972623903231
96.4221929806895
96.4415027301678
96.4285572500157
96.4657548626897
96.4715428093211
96.4524041716878
96.4777620052584
96.4078176427807
96.4121753005667
96.5172990040536
96.3680057712208
96.3547686839494
96.42191557003
96.3887613052062
96.3539925110415
96.4120439397418
96.3926067702228
96.382488548281
96.3585770854744
96.4583506343435
96.4718401634009
96.3710056304925
96.3430066386008
96.4329119706053
96.4070449935411
96.3481943318819
96.4421586206878
96.5624372503485
96.5855154726604
96.5146775802013
96.3476284946592
96.4091910407089
96.4903231657146
96.4755624024315
96.4471367761486
96.4293276576551
96.3635567498325
96.433829098531
96.5060794141521
96.4092040527463
96.2737123913491
96.3765849203635
96.440251921729
96.388566896546
96.3757469940793
96.3936592540294
96.451676999318
96.3479673273619
96.053139799733
96.2252578555989
96.320148788713
96.1522946825794
95.940566434259
96.0493411545579
96.2139609462749
96.2289523229499
96.1128109194341
95.9899177495811
95.833121696171
95.8246287532905
95.7971432762999
95.7016630941377
95.6139900859666
95.5615882256778
95.4675595860749
95.3977322473083
95.3604419765044
95.2060498228823
95.1149448905016
95.2719322589825
95.2851531457838
95.1560263646604
94.8998009364617
94.7280672305944
94.7302883215896
94.6841174775475
94.4749180747451
94.2695523286438
94.1297590876761
94.0691741623738
94.0464479698297
94.0555844294768
93.9420686494905
93.8011677486604
93.5519677809058
93.4372641139788
93.4661108242104
93.4167195862016
93.2709779498192
93.2127472506267
93.1142513273934
93.0408841419725
92.9170095474945
92.7565713064298
92.5095376131402
92.3214522476754
92.1554316347241
92.0936903791499
92.0822361594021
92.0397466207008
91.8332045010596
91.6872913416355
91.5426912912484
91.3797637703347
91.3983089387626
91.3489408164975
90.8036983481733
90.5805088344705
90.635343220443
90.5357277735164
90.4512484040754
90.4017214421802
90.1696278194655
89.9874654351629
89.7848112499427
89.647565352756
89.5023094495553
89.3626169247319
89.2649497151957
89.1357663651912
88.9680701260332
89.0123760813546
88.9363465466998
88.6613721805511
88.5282396241016
88.5300028196998
88.4342261913851
88.2759136833168
87.9804708850515
87.677635661595
87.5154117189633
87.548505184979
87.5554372688938
87.4305549709221
87.2727303348557
87.1193242051963
86.8535089848886
86.7078932704067
86.6182952674618
86.453257831262
86.2666576436543
86.1689922763033
86.0607454632527
86.0738968432049
85.9069019910891
85.7517451271349
85.6266381132746
85.5058449195605
85.3644194775441
85.1815686313638
85.0078480397162
85.031814761853
84.8321132863889
84.6483637102777
84.6158646083231
84.5617356892659
84.2871187671134
84.0582826497588
83.9894615788443
83.9908575770651
83.8832281259852
83.796194706991
83.5646744281821
83.4107475353881
83.4467574307479
83.493459655315
83.2552100485993
83.0764808077753
82.9784624392385
82.8433003177623
82.5343893515744
82.4823967920246
82.5327460341772
82.5336733960083
82.4426336339477
82.3396589317275
82.1832273362858
81.9939914243707
81.8543663871158
81.8807160041204
81.8217065904301
81.6828090359292
81.5582808465998
81.4726751525436
81.2950150433245
81.2115067297226
81.1748294644017
81.1953951071647
81.0171927234248
80.8697823448088
80.816864724504
80.8078382695846
80.7383578476995
80.7268273354085
80.5234463188811
80.3778816404478
80.3760267782119
80.4113678333449
80.368456639706
80.2139400765912
80.0066780513454
80.0168864017359
80.0017853624513
80.0393415317237
79.9655232046279
79.9014319577746
79.7963509528848
79.788002110693
79.7792355017656
79.6823557256186
79.577838522125
79.5473931390776
79.5081953463318
79.4585047396367
79.341503555135
79.2918919521103
79.307934016852
79.353459720321
79.2374946336309
79.181976432465
79.154170996072
79.1143229092738
79.1150576360114
79.1035870697721
79.0154990139841
78.9787605067323
78.965892001778
79.0034327274858
78.9200819641341
78.8183541220287
78.8380049037553
78.8982488874186
78.9002049826004
78.9010657899732
78.7833170303453
78.8356163472297
78.8726876398644
78.6936332406139
78.6199029130007
78.8135626339728
78.8500605859404
78.7495161241846
78.6337396629954
78.677354586769
78.690908078859
78.5807696022
78.5270504373554
78.6277379848135
78.6700478125557
78.6812515868731
78.7028942501355
78.6935650507189
78.6877196316694
78.7022952624397
78.6537145594538
78.6503115184853
78.5250842575445
78.5549686548046
78.6563074752361
78.7243804300565
78.7234093831891
78.7513311303707
78.7176239897779
78.6427279315131
78.5986796572322
78.6316736354502
78.6351459808214
78.7620861791701
78.796482603408
78.8315052694583
78.9152232892155
78.8883504060341
78.8161373872791
78.8395149264084
78.8518212294346
78.9736710312088
79.0592329860447
79.101688649487
79.0913259749581
79.1250030886155
79.1088795470245
79.2097141320461
79.2251371108972
79.2499797479775
79.2420545233418
79.2337689638952
79.2663751410111
79.3935625626827
79.4538454378486
79.558069980745
79.5636031334296
79.6234668127674
79.6847683560454
79.7000069795706
79.6568500144143
79.7691421737568
79.9028291327376
79.978397912102
80.0342887049994
80.1804455148889
80.1932109671333
80.2505634885387
80.3811027419631
80.4281262705658
80.462130110718
80.5038550032267
80.6161231524989
80.7504833201665
80.7049332553754
80.7611569480157
80.9159962689759
81.0277950107442
81.0072041138211
81.0609668537234
81.1895205624705
81.3754988989642
81.4698133410382
81.5529547776349
81.6604408863955
81.7467226774128
81.7861896680764
81.8610286445383
81.9078860505381
81.9458185937486
82.0742145396164
82.2820946606899
82.3621206604781
82.4654415344291
82.5143965953578
82.5364460376982
82.6075405495196
82.7666727152987
82.987159933771
83.1190705257396
83.1397982200187
83.2252405562232
83.336927289869
83.4668574850688
83.4835960694609
83.4962658222039
83.5506565657401
83.6753538861805
83.8273974719616
83.9263563842666
83.9630071082573
84.0917590089597
84.1592157697368
84.2364036771236
84.3354870107982
84.424957442943
84.5530983168867
84.7208739019876
84.7948835645566
84.881802582364
84.8687112975315
84.8613690250126
84.9370207398462
85.085682939386
85.2157725209847
85.3517336109727
85.4329214141023
85.4501844841523
85.4403306008853
85.583883329835
85.7578562754082
85.9081371190704
85.9151837808088
85.976591781982
86.0178642744725
86.1205614751222
86.1823684028616
86.2489742877294
86.3506225053908
86.3931092730509
86.4051863424097
86.5936220254767
86.6963376710258
86.7218981398638
86.8261862872588
86.9455063625032
87.0210177050392
87.1168226688254
87.1560039879551
87.2308468365943
87.3186935204441
87.4644150443028
87.5757509242597
87.5627391240025
87.5672329217395
87.6842558295552
87.7743628070991
87.8763629483246
87.9203058550795
87.9944491960303
88.0385662700085
88.1102207951687
88.2119676466586
88.2984220779482
88.3224797058087
88.3883527889064
88.4361248997326
88.5068794599496
88.554952542927
88.5946129771274
88.6337517972727
88.705043179401
88.6584309296513
88.6631468202412
88.7467672612098
88.8005655373378
88.8103519521695
88.8178978669092
88.765128508906
88.7792354211913
88.7704569160643
88.7368450911485
88.7684326055976
88.7770973421618
88.7090901426013
88.6815113183062
88.6209470264468
88.5124536124259
88.4336102190685
88.4329242436586
88.3152922059048
88.1827178370249
88.1076180222265
87.9870140776487
87.8807916043151
87.8227006262961
87.6574738061366
87.5245614860258
87.4512166554075
87.3792508921786
87.208633648608
87.087900037659
87.0111126184053
86.8875475102114
86.7047625089291
86.5460014235704
86.3968577868369
86.2271317178189
86.0050806663414
85.7683052050784
85.5650546433069
85.4163499578173
85.2363063259137
85.0677705417122
84.9306939018031
84.7514350849988
84.6243287458059
84.5867968867195
84.499474450518
84.453294551061
84.5314787587818
84.7127180699851
84.8646592303983
85.0308217846706
85.1839369367191
85.3398166998937
85.4522669894931
85.5351516587574
85.6266617194911
85.6966642159148
85.7252544782275
85.8011806204927
85.8703505173992
85.8913957243242
85.9463029860607
86.012345907693
86.0592075670645
86.1597422243362
86.1943142072062
86.1987050463126
86.227276547204
86.2625521277193
86.2929343460588
86.4081874392824
86.5554206998171
86.6082388747656
86.57298253898
86.6740733114747
86.7827669689452
86.8516535471082
86.9172980640726
86.9534115898259
86.9461022073169
86.9231384168403
86.9136344974137
86.9189066763867
86.9669336345427
87.130325835045
87.3463517907842
87.5688064678409
87.7712233833102
87.973480411264
88.224837037253
88.4462406663435
88.5478115124998
88.6354867186134
88.7589150146857
88.8989671328716
89.008991711173
89.0869615488947
89.1287770129788
89.2037258721697
89.3205043446111
89.4048149672896
89.4604155084179
89.5929611146256
89.6751218753094
89.7135052616001
89.7122948497885
89.7679412797508
89.8537766778733
89.8859963499622
89.9178666385203
89.9983991577793
90.1047356481072
90.1751468153767
90.2034644386537
90.2518110057233
90.2726305483725
90.3094811870442
90.3323116050621
90.3540834049845
90.3598990916156
90.4133933085727
90.5039018548555
90.5677158398865
90.5931079278982
90.6455031479097
90.6854069606329
90.6795025908847
90.6660159397804
90.6734708466771
90.7429743364939
90.7978927698037
90.7971279957651
90.8268486323986
90.8576494637609
90.8816791108161
90.8929196071075
90.9138488106704
90.951712889342
90.9868653960471
91.0300926577776
91.0238300610017
91.0053240669717
91.0901338680475
91.1198038684891
91.1213472001067
91.1327095874119
91.1296569407224
91.1422168997881
91.1972602702643
91.242669564401
91.2573726745299
91.2488316949939
91.2578755798722
91.270002075602
91.2724094490431
91.3469758560736
91.4101473271864
91.4054000076001
91.3760430647099
91.3731856774601
91.4026986445881
91.4627495447435
91.4904000278255
91.4571320884457
91.4433260338504
91.4389257972386
91.5043859084574
91.578044682614
91.6213859783493
91.6605553205067
91.6916892549255
91.6619219692828
91.6566417273054
91.6763877189149
91.6689422466442
91.7012908029833
91.7572734424878
91.7911995166998
91.8570739353078
91.8805121495054
91.8925030233551
91.8941554272624
91.9325690943841
91.9584319948452
91.9454153051714
91.9723016198582
91.9827935567369
91.9385521216287
91.9482849438472
92.0054600507827
92.0613383383654
92.0848175656803
92.0988136898694
92.1108230685523
92.1734436473225
92.2468614138188
92.2823320608059
92.3136160290739
92.362457088294
92.3514392783122
92.3050495432072
92.3579757172581
92.4693810895755
92.5405905102045
92.5992052895698
92.6301514743102
92.6820214634885
92.6997526170459
92.6643540862619
92.7306825534552
92.7651138866634
92.8010193609085
92.8573355344872
92.828250615932
92.8550320623602
92.880457797389
92.9176243375293
93.0735664049387
93.1818035187907
93.1848046645371
93.1383605843118
93.1215273705992
93.1454807563912
93.2400212113404
93.3519038651974
93.2863519137827
93.1729524399385
93.2280637804823
93.3341001257064
93.4117434599
93.5094755094026
93.4440166492011
93.4203186211224
93.4645388335378
93.4795053266381
93.5555743852013
93.5006639575195
93.4716536217162
93.5977579365298
93.6349142552217
93.6872039654169
93.687132541991
93.6270458365167
93.6854875917184
93.7635567536008
93.7514534858562
93.7090677576553
93.6562993129704
93.6707665145844
93.8101660920253
93.9468589099306
93.8711601659757
93.863041658768
93.9620609531913
93.8755240012676
93.8113329603745
93.8593525403956
93.8726318112004
93.8812649992529
93.9043646416429
93.9894332250154
94.0176172947545
94.0223229033327
94.0226793980183
94.0061303404428
93.9932829169712
94.0124648473458
94.0846605154321
94.130313729592
94.1421665960558
94.0897325612775
94.0405723221492
94.0280816319777
94.096139153342
94.1556590748746
94.1642149517342
94.2262333408682
94.2924101538914
94.3012924190914
94.2605037925314
94.2065033082709
94.2005609386182
94.2394140544778
94.3158910028039
94.3298857265416
94.3383822711223
94.4068087075236
94.3472817257625
94.2920049113045
94.3765025090009
94.4105571593632
94.4176096139059
94.4555285947762
94.395719846105
94.3387145197909
94.3587719899418
94.4170682271865
94.4829516266753
94.5425903424205
94.494515428313
94.4607661160763
94.4807947126664
94.5286458908182
94.5392370654275
94.5585872708364
94.5784013387103
94.595920776959
94.6226619059055
94.6220807845785
94.643720858988
94.6687429960911
94.7451536570419
94.7297416952727
94.682563342416
94.6770120763478
94.6948946318967
94.7243678281369
94.7428408127042
94.7140902718452
94.68757502094
94.7392919075996
94.7730590217272
94.7614233815431
94.7573118429138
94.7939867931615
94.7886101780261
94.7757405970406
94.8374840319243
94.8357775278377
94.7556060558027
94.8092730075001
94.8140511418745
94.7737526497134
94.790958316727
94.8003787297686
94.8537344058806
94.9095561408948
94.9702786304174
94.9256625889009
94.9075871954501
94.9090645189574
94.8434674976972
94.8675017055296
94.8578075863882
94.8932624131724
94.9819908889585
94.9403882572315
94.8751042608355
94.8562498766783
94.8826700615553
94.8695978420997
94.9142795652919
94.974720813198
94.966973855851
94.9259021461022
94.8605155225385
94.8010000177422
94.8112872287546
94.7859884225839
94.745919548278
94.7499668220706
94.781104514103
94.8270186527725
94.8458476528562
94.7656728592769
94.6102241904539
94.5637927271891
94.6986220840856
94.8191425634957
94.8494742242511
94.9133775521581
94.9579634984788
94.9336715072912
94.9115194803161
94.9220033663133
94.9032729242383
94.934766371837
95.0177393709031
95.0518629020689
95.0285600140794
94.9838198975216
95.0454011789758
95.1026849062451
95.1146246276226
95.1739671163859
95.1744182744362
95.1982985632195
95.2375308065081
95.2289652715291
95.2305527458633
95.3330992665407
95.3862098173623
95.3689349881413
95.5487588384551
95.5886631930383
95.6124720046731
95.8656347358904
96.0989328350806
96.0401106197199
95.9227766745797
95.916003190836
95.9701116811694
95.9551228020639
95.8995674111808
96.0236921154687
96.1553406305287
96.0396495562209
96.0105793302735
96.1791930896027
96.1991450066209
96.0240050952067
96.125999331834
96.3120584700494
96.3516722701875
96.5468214467167
96.6177535701316
96.571035314901
96.7203071568765
96.7814816733604
96.6215054509088
96.6996042869173
96.8898507829184
96.8303470217801
96.9578022303244
96.8602170661541
96.6501354756991
96.7790110385139
96.9484443848466
96.9944941623975
96.9482168875112
97.1642947725424
97.3595157586508
97.4915672608426
97.7717302300616
97.6730725628933
97.5223963452596
97.7414911051497
97.8362612318728
97.8271641907237
97.6850285832025
97.8399899007935
97.9869956717381
98.1482699061536
97.7869899715468
97.87906297792
98.2564537162401
97.9722983985652
98.064414747695
98.5471332683987
98.3807333448889
98.356820438467
98.8279399064111
99.3067299251149
99.4340892175054
99.5017824106294
99.5161009279283
99.0580877722737
98.7422645361879
98.403395381552
98.1094778597411
98.1772924833568
98.4338156422669
98.0968717121012
97.6763643132824
97.7827586095527
97.4297014557989
97.0888358091308
97.0896888690137
97.1941234818823
97.0617124101633
96.8150456071458
96.8544289329522
96.8696375597918
96.8384123222669
96.6033766268159
96.399632248903
96.4112203223567
96.4869813696744
96.3760994736276
96.3716906298455
96.3563361758271
96.3674624837683
96.5278908897198
96.7112613605941
96.615514669478
96.5112957012938
96.5231569191692
96.5314753278374
96.6842903670273
96.8790538851601
96.8600107095656
96.8796979796262
96.8119024972652
96.6214719246358
96.5661962323282
96.7140341564765
96.7672296602286
96.7972258619471
96.8459037687319
96.9991659928894
97.0886017594581
97.188464113746
97.2563740771497
97.1917480819518
97.198503500753
97.4438576242143
97.5432345694048
97.3609906952172
97.2151757135079
97.4518167637935
97.8434480221447
98.0010289185088
97.9621903531833
98.0987669771013
98.4425721971137
98.6740290562424
98.8836101655066
98.7534742491812
98.7470461839911
98.9778385976219
98.8701154717404
99.1118657764892
99.613135729775
99.89599383129
99.7626136316961
99.3322097949475
99.1780442837585
99.0506850289597
99.1896951030641
99.5722603344825
99.5946481890365
99.2452655579788
99.3160805103013
99.2415417398821
98.8571577026345
98.7494372397007
98.7353727649065
98.8881582744725
98.7873109918919
98.4780801214247
98.3999550632727
98.3040645487437
98.2647542756632
98.5094799637702
98.8939780794164
98.9065339977042
98.6522863146929
98.4208603995723
98.401275940085
98.7277610156022
98.8484069460362
98.8635712479006
99.058140008193
99.2718222392153
99.2389586829761
99.1532630438823
99.0351474954131
98.8782925190211
98.6765346953527
98.5215536879986
98.0917274579087
97.9749110945244
98.1091758457788
98.0089906505477
97.8585126371016
97.8854941286241
97.8428493793176
97.6951466942431
97.5269400960192
97.5857596504304
97.6388280877115
97.6286288220702
97.4842845059564
97.2156197275053
96.9505792329762
96.9088458538282
97.0886731308375
97.2087970353707
97.1165090829794
96.9997233572362
97.0253619677316
97.0290118081644
96.864981176868
96.7206553795587
96.7751431386107
96.9326701304684
96.9269873327551
96.8401254169846
96.7817922593762
96.769217568063
96.7884927241376
96.7223839918933
96.5508262358031
96.5018973915646
96.5897207825414
96.5961153480534
96.529197414269
96.5697759045264
96.6057156634632
96.6034887835142
96.5470673575497
96.547131593641
96.5530067541638
96.5038394227007
96.4534460242591
96.4790117701652
96.5060358162514
96.467492191791
96.3915381118115
96.5011763985509
96.6616448069565
96.5989088775235
96.530176181668
96.4525871697045
96.3583186651978
96.3480632163044
96.4519726826864
96.4154160489695
96.3378443542073
96.3821786923692
96.4248745652028
96.4102490264834
96.4299227108806
96.4006964135216
96.3748049360237
96.3426891976784
96.32096310154
96.3766033977302
96.3904926271284
96.3104869340207
96.2840076577941
96.3322750978486
96.3420817399929
96.2768317919273
96.2535497110686
96.2873899324572
96.3192922699017
96.3262175079548
96.3476372514643
96.3358170784161
96.2878977060018
96.28944612436
96.2813043585834
96.233982053243
96.2092400925569
96.1355839305731
96.0657507388478
96.1015029588235
96.200824464507
96.216125491794
96.1548560942801
96.1673625951709
96.2138129356423
96.156375714206
96.0978103105124
96.0756016525208
96.0719722493448
96.0764543291556
96.0441558749829
96.0490442267489
96.0931118289062
96.0334559390554
95.9559719756962
95.9307746682164
95.8491234231861
95.7545411978351
95.6818544121234
95.5915022024887
95.484633790278
95.3775776476176
95.1636174718231
94.8966713526978
94.6351867274519
94.2964877735173
93.939317939955
93.6584074334395
93.3543958869356
93.1091794926852
92.900557837795
92.66317370156
92.412030127958
92.3199573058824
92.0814763249367
91.8462003128252
91.893021379486
91.8957558489616
91.841852390496
91.8164002343844
91.7998848792297
91.8351189668982
91.8379053820119
91.7788731080841
91.8245841706641
91.9029991063393
91.9449156105381
91.9501396518463
91.8639266407831
91.7229232654124
91.5602054066427
91.5011382164434
91.2612222279571
90.9028862545585
90.8392347952835
90.5685380477523
90.390708356078
90.2265089691413
89.9250585905824
89.6350882879906
89.3428094229637
88.7053556916482
88.3301966072318
88.2902335098567
88.0461695996566
87.7486070118464
87.1984201476548
86.9032008661388
86.6767326446577
86.1184648890236
85.7765703236791
85.6989255207672
85.3930034491304
84.8562006112136
84.5949955912298
84.4960327076691
84.3241493290507
83.8353426884128
82.8431653045011
83.1194009909205
83.4182497270047
83.0198349789575
82.6792026709213
82.7933254645434
82.7920227115056
82.6111678116915
82.3173170115951
81.7822115483383
81.6806415811286
82.0353884829245
82.074706101357
81.9184214103523
81.8533567814678
81.8771153439165
81.8110000385516
81.9676933213821
82.1005960874027
81.8880961356807
81.7656830457772
82.0623260815721
82.1439868180883
82.0642723902433
81.9669209670491
81.8985435607766
81.8461089194938
81.8657827734286
81.9265318796468
81.993215743292
82.0518066558344
82.1409113863273
82.3152173090578
82.5139004607738
82.6869206818538
82.8501462414533
83.0503636689358
83.2669265999238
83.5005392222544
83.7256540608962
83.7809553265592
83.6970173136134
84.1390586128803
84.6220338232683
84.676069059598
84.6945065186556
85.0182019331914
85.2067544395776
85.3514376842444
85.363806272782
84.8144502759329
85.005257651237
85.7582892139789
85.9331287555073
86.0304099542735
86.0519958551103
86.0746653889732
86.139108647558
86.0774889827196
86.0493702006828
85.916071521103
86.0434426150447
86.6350078374132
86.8589080731403
86.764026999614
86.920255818205
87.0563692614201
87.005467499791
86.9491362802421
86.9564066650182
86.7733513696257
86.6093976950512
86.7534709971333
86.6466804853378
86.6635045320944
86.7985643790307
86.8541044700728
86.8544069129687
86.6667957974592
87.0216067275946
87.6816734174775
87.8966911351345
87.8590407782606
87.8034677477691
87.907292534708
88.219646674554
88.3695460142953
88.2611266891208
88.2429567831251
88.4007478984456
88.4832727475275
88.4156654081889
88.2062273821583
88.0226560270015
87.7858500559635
87.372464735153
86.9383597060479
86.3891728659583
86.1336223095807
85.8861439986707
85.4352878060649
84.9516038052045
84.7865764693041
84.717555895839
84.3817572863113
83.7571337375426
83.8325642312309
84.1181788501137
84.0444329857
83.883768323197
83.6489889316792
83.571574509424
83.580002000651
83.4736226677433
83.3089884581944
83.0790458316097
82.6202931234249
82.4761087093233
82.453885361666
82.1787518783715
81.8303122993809
81.593402240617
81.394964379156
81.1129893061145
80.9590822389185
80.6046856446833
80.2927149766682
80.4636247406012
80.5076609635135
80.4082180790834
80.2970898579187
80.2470180528294
80.2199221509246
80.165866135921
80.2435644528995
80.3787101984477
80.304092099402
80.2967211548565
80.3370033892315
80.3619442667417
80.4799248522625
80.4252903811812
80.1883419882621
79.9922992757772
79.993558819679
79.9053531272455
79.7446351550667
79.6138747598485
79.5509454373076
79.4321958137755
79.386797763767
79.5370473630178
79.5909703359551
79.6024825910923
79.7061909745864
79.7342490918176
79.7619260206975
79.9969169315279
80.2418142265545
80.3683854311635
80.4820266290096
80.615469367596
80.7344943201418
80.8629394780732
81.0000743584087
81.0997588537443
81.205573710151
81.290952433537
81.3171299667343
81.4385629534396
81.6232571832904
81.7422272314617
81.7729157797244
81.7874563213647
81.8344693912013
81.8787297614278
81.8952985457668
81.9192726899958
81.9187176070122
81.8997791620793
81.9117030796427
81.9520639678471
81.9660947344519
81.9746025592705
81.9926657724959
82.0317414161936
82.0835726324564
82.1214373514471
82.1533034150987
82.185192221807
82.2080432692047
82.2482218874968
82.3231332012385
82.3444486934258
82.3221528787146
82.3203883162204
82.3071625455744
82.3026084574888
82.2842660646507
82.2086901811781
82.1335872437383
82.0562067659787
81.9506799067774
81.8338883156887
81.7134522170298
81.5794484261556
81.4557232978875
81.3171126537875
81.1468928805108
80.9709023164253
80.794973222494
80.6322196166921
80.5000049605012
80.361931723159
80.2407460447095
80.1574868580781
80.1089955206905
80.0900100325582
80.1028372389535
80.1402619728536
80.2112442152271
80.3112058074778
80.4018639223195
80.5352531073586
80.69147617981
80.847436135665
81.0409760809433
81.2453363234041
81.4339128525825
81.6044395412925
81.7757176618416
81.9568113573091
82.1205701342048
82.2977972422822
82.4837967588001
82.6544223117523
82.8357769900557
83.006441311306
83.1440532119256
83.313898584436
83.5055219710048
83.6885548586754
83.8913634019757
84.0920849764764
84.2717483818687
84.4433622051096
84.580216799902
84.672782676575
84.7011880048833
84.6574802107535
84.5282570922724
84.3599662289692
84.145118743111
83.8782275624042
83.5766230348151
83.2375866254822
82.8802806807749
82.4994317637357
82.0913537223179
81.6504789742265
81.1601240555115
80.5927581100454
79.9963262130132
79.3879971521642
78.7981087705418
78.2373159888551
77.7222035216687
77.2449793800424
76.8617636604317
76.5661160415037
76.337400906115
76.1790610192547
76.0359108224237
75.9309710249634
75.8469623847778
75.729192301497
75.5656174764941
75.3251334125007
75.0050019242257
74.6535886618338
74.2436975831668
73.8267633933629
73.4136463642136
72.9960071645873
72.6222364332529
72.284254372808
71.9371601448127
71.6022327754343
71.2508578412488
70.8725091745182
70.4723726690956
70.0534597591538
69.6249510525818
69.1791419985172
68.7423117194633
68.303599557292
67.8350838983619
67.3598295453282
66.841953805695
66.3277087092088
65.8096118171748
65.2283138090333
64.6037649834987
63.9726951642646
63.2762972607341
62.5316469323641
61.807329995563
61.0666333374973
60.359038734151
59.7305358593197
59.2232144997789
58.8263892415851
58.5056596596459
58.2274452814688
57.9690094022004
57.6880867673734
57.3730892428605
57.026383001384
56.6346510728426
56.2015966940073
55.7263632939112
55.2253395076998
54.7099755657016
54.1609123425081
53.5686281514907
52.9961399991165
52.4610937044554
51.9725756308031
51.5258254109575
51.1288823557984
50.7973387208742
50.5430083524848
50.3492205375506
50.1865567923096
50.0613432566331
49.9594807834793
49.9217316175755
49.9491679169551
50.0245513294089
50.1365373874289
50.3267212415112
50.6238273080458
50.9644257850007
51.3584787486703
51.8044607427136
52.2821747720792
52.7636970827505
53.2764338367017
53.7679429799707
54.239893842809
54.7131901309121
55.1523834634836
55.5900406726575
56.045593135184
56.5000361561164
56.9964918128859
57.5191238841905
58.0087271976451
58.4802661566628
58.9618992510096
59.449383677889
59.9169715971404
60.3688263025795
60.8479619978767
61.3461329503557
61.842441447387
62.344905734929
62.8671250572584
63.3413895941472
63.8221048683705
64.3261230421026
64.7797960017996
65.2516010349473
65.7890840353411
66.3087135456574
66.8288962610676
67.3373125775805
67.8144035089799
68.2890972360864
68.79459001416
69.2841334765107
69.7582376812563
70.2126633632901
70.6456429292487
71.0746303916177
71.4827037690919
71.8379171404527
72.1234348482671
72.4059930223961
72.6944025033911
72.9285124602831
73.1383647870597
73.3673568430328
73.5846524774452
73.7827117022186
73.9795589859111
74.1529190225956
74.3462829727558
74.453589730255
74.556140579985
74.6283802845522
74.6115425087982
74.6159296887879
74.6561453597305
74.6699845768051
74.7100453141027
74.7900873580193
74.9237200747433
75.1197580261833
75.3904194970388
75.6493230419608
75.8838411594108
76.1305330728985
76.3930335440491
76.5810404997718
76.7511891056675
76.8965765443238
77.0304857734795
77.1578138839021
77.259345193113
77.3134467627366
77.3414696353602
77.4146033886388
77.5040414910365
77.5672174313945
77.6413354194552
77.7187393515613
77.8102603722658
77.8901843529115
77.9535517531301
78.0102435576556
78.0522878342947
78.0642200560116
78.0422373772245
78.0209558366629
77.9727608288871
77.877091116407
77.842582634759
77.8830985004744
77.8727333901085
77.8258250802582
77.8605321337864
77.8736196952089
77.8165267674449
77.7279315329028
77.6354859635963
77.5572986253393
77.4507761898333
77.2954981493539
77.1718145072658
77.0679188507706
77.0098157151917
76.9344767311735
76.8244563351241
76.790620646583
76.8213016788841
76.8540844044598
76.8903412233705
76.9330179646311
76.9680509529146
76.999774213896
76.9992294647884
76.9837202019772
77.0158935090608
77.0087284766603
76.9884617817308
76.9429501707189
76.877930139888
76.7915530433779
76.6990274268289
76.6244901819831
76.5863232642856
76.533894079547
76.4907472333827
76.4438318829345
76.4047055879703
76.3443370413106
76.3006898557453
76.2303142822306
76.1380971834564
76.057656750969
76.0366928928056
76.0273977523234
76.0108282027327
75.9844380988567
75.9893566955919
75.9485914942751
75.876472629433
75.8101801114483
75.6893762150191
75.5155183603023
75.3810293821229
75.2501732592498
75.1213170010694
74.9569334726658
74.7506662913229
74.5691184217144
74.3713819471405
74.1126737638488
73.9083531743497
73.6572866538567
73.40225208666
73.2513821554324
73.1539339928339
72.9890845418904
72.8126403863908
72.6479072599858
72.4758472175165
72.3220046518123
72.214783621063
72.1021968437427
71.9934260240204
71.8366923626445
71.7244624923536
71.706590975182
71.63697503903
71.4945167943747
71.4258662326784
71.3200839205928
71.1993823081665
71.042699766081
70.8749328371613
70.6762582812675
70.5256722104352
70.3847531922427
70.2602721196357
70.1317917634119
69.9404652933455
69.56145770759
69.4665853736479
69.4958191596541
69.2825903508754
69.1012681269194
68.9460189577477
68.7774917970357
68.6986049941113
68.5972767737296
68.4397174280149
68.3066181506559
