1798
3999.43349933624
650.420452594757
1
128
4
96.0466080438977
96.0105602979483
96.0287719106706
96.1697791412577
96.1109665293884
96.0506539112011
95.9784394308357
96.0157892139939
96.0992669559077
96.0929059982328
95.9869715008979
95.8993025889825
95.9528088408132
96.0165547911266
95.9709730691993
96.0293534435544
96.0828723125292
96.112585870178
96.0894782413108
96.1072588159865
96.0945280693549
96.0446209169932
95.9561115672614
96.0368857865165
96.0925527357746
96.0654244236727
96.0428110879458
96.1185105169446
96.0629430570506
96.0086702679704
96.0986172516982
96.126155290936
96.0820360685011
96.1702283967628
96.1704648896492
96.0467888487177
95.9918991807168
96.0168860230542
96.0188340329769
95.9960563005455
96.0236258708475
96.11456686986
96.1416650214703
96.1332804029192
96.1243724266224
96.1838817786103
96.1301802881636
96.1053281280045
96.1435058758355
96.1014467637683
95.9732081553001
96.0526770946237
96.1225617636731
96.1588603088507
96.2226192386188
96.3598411691178
96.3087865793713
96.1416574027609
96.1515417908761
96.23280991359
96.140091608333
96.1202678539154
96.1617322181341
96.1854577600779
96.2380251149412
96.3341112096861
96.250193675164
96.1221017285806
96.1437756866916
96.0997274162966
96.0288210099665
96.1537062926674
96.3279212492694
96.3748069576166
96.2850729014182
96.2593183690749
96.2138485158872
96.2564018819975
96.2565086556536
96.3020489734965
96.3692309624343
96.3839991709777
96.2087667384959
96.2049854781912
96.339295371869
96.3427064829668
96.2682197358286
96.283937785354
96.1568122173884
96.146264390234
96.3245921257596
96.4126759298416
96.3225552741924
96.2848112242017
96.2292360566162
96.2339748804314
96.3145918875387
96.334226240921
96.304568669572
96.2993938390952
96.2438888732321
96.3201662629373
96.3783788937458
96.3826742313386
96.3002210955672
96.254144459032
96.2807473038555
96.3065074954059
96.2089371694487
96.2894778825841
96.4063394229695
96.3898274485856
96.366630569754
96.4289523446361
96.4115907460059
96.3650973218755
96.4266094446448
96.4666603091353
96.312213585118
96.255390131873
96.344863502741
96.4394622616875
96.4767706067973
96.3734664353229
96.3000416658317
96.3669787579564
96.468943629028
96.4777458085748
96.4143434336499
96.4631924793356
96.5375073833226
96.5732948400085
96.4114695957848
96.3487601338288
96.3996972535918
96.5568263782983
96.4925284578282
96.3453645101993
96.4464579153402
96.5006657860548
96.3527508304493
96.2579546539809
96.2105334722144
96.2138259673025
96.3927635317238
96.5393279039655
96.5565456504095
96.5248939852051
96.4557136984051
96.4668822634121
96.5266190603531
96.596426178077
96.5438766008317
96.5225562652027
96.508444711598
96.6342235079204
96.7515043073341
96.6761210024034
96.4904781579041
96.4891805289493
96.6052552798188
96.5723600640984
96.4586424578616
96.5422258514724
96.522692339501
96.4342669634273
96.5635062849408
96.7178166810143
96.6688069723552
96.6470861557688
96.5491776638647
96.4316159642902
96.2834859803533
96.2315132389113
96.3268814432227
96.4217647247062
96.3678267794934
96.2164940004797
96.1450091643957
96.1488921323238
96.0570443553567
96.0946510848493
96.2236766764831
96.2730403494082
96.0950549488846
96.0040614555923
95.9528065995446
95.8674552853248
95.809457415542
95.8228985831801
95.6420357077685
95.5256233540024
95.5108134998043
95.3342055030509
95.2014805723375
95.2978599837991
95.2501877415672
95.2371804595783
95.1623598597981
94.9664232017966
94.7770244264986
94.6846810576201
94.526792194767
94.4105750882193
94.3682142794198
94.4568075848907
94.2965893234118
94.1353210700311
94.0308565281146
93.8702429682048
93.7143876917577
93.6997268757602
93.6295122018777
93.5454959102096
93.3330104771092
93.3029667633235
93.2659007722692
93.1082001136223
93.0006660513721
92.9503630790337
92.6093032850848
92.394419502183
92.4336777964926
92.4086483575996
92.284369930838
92.1610991741569
92.0854316557181
92.0044786653234
91.8221449770712
91.7171030893177
91.6030413090631
91.3967615830541
91.1855299845805
91.1245562873657
90.9922866416225
91.0478594390603
90.9995756179721
90.6538224878405
90.452629268778
90.3180948650504
90.1516853296137
90.1086519300508
89.9628905893999
89.8172934833234
89.6735447891554
89.5426670339339
89.3590285749987
89.1899774394914
89.0145647678457
88.8721478809666
88.6990615233448
88.6109186842585
88.6311274076101
88.6253265358381
88.482323026053
88.2731294780102
88.061017511816
87.9440038007564
87.855031900946
87.7523228272365
87.5594621712274
87.3615027840054
87.1955193479656
87.0801162487121
86.9932471628908
86.8877597243701
86.6736489647609
86.67371140457
86.5655735970747
86.3734397069625
86.2475270057276
86.197236931487
86.0531433351859
85.901095172378
85.7692855707016
85.6618208828154
85.5586624372116
85.4522196831017
85.3016468713234
85.1710282809514
84.9589358493774
84.9103091482843
84.8229346437226
84.7805093021277
84.6683647485891
84.4684680837717
84.2760674669088
84.2247723355832
84.1363002636123
83.9844707958015
83.8105683963493
83.7497614250899
83.7057047919624
83.6268923922206
83.4267320422437
83.241551069982
83.1072153458172
83.2550869175972
83.260111469588
83.0144659583928
82.8703485283713
82.7997377522549
82.6213497181006
82.5419513128875
82.4426066821378
82.2991054911746
82.1523381001629
82.1437150442173
82.0899781080533
81.9638507684456
81.825308607707
81.7629547096799
81.640025516858
81.6048870412471
81.5590277013988
81.5514923213069
81.3834692154173
81.2747114829857
81.1504629425001
80.9951301729928
81.0225965026326
81.0949794863323
80.8644899416795
80.6684367303202
80.6351188593069
80.5914908897929
80.4658854942095
80.414870490272
80.4456321374165
80.4219538365614
80.2016096030242
80.1373041566249
80.1186510992184
80.0584368075902
80.0456476370524
80.0690994471924
79.9818404571876
79.9231893057531
79.8783534956592
79.7708918507606
79.6604710811822
79.6364667765496
79.5505822898587
79.6100951340278
79.5366405617232
79.4503874062502
79.3966714605116
79.3483277726491
79.2715578186936
79.1988345728146
79.2099919754189
79.2125108353686
79.0748043161591
79.0945130260317
79.0611631417263
79.0864723725429
79.092268065551
79.0438089942115
79.0054754952557
79.0038159137045
78.9558766369151
78.9919862666766
78.946429542547
78.8641620055868
78.7924771702073
78.8369041352648
78.8717827070971
78.842327557646
78.7659037175607
78.7232141205007
78.6358210790918
78.6558705190638
78.6331393327155
78.6804609992177
78.7133692224411
78.6635020234132
78.6015006738524
78.642515706137
78.6032303846848
78.6066920350294
78.6173879917727
78.5939907306357
78.5276789108111
78.5280106508343
78.4832908707955
78.4828029469041
78.4451016008583
78.5043478876322
78.5358506965387
78.5781389026324
78.5798255509907
78.5914890090363
78.5682864113744
78.5697961629776
78.5545161865455
78.6679875699385
78.6581661238803
78.681187231995
78.7421957436928
78.648156142299
78.5464775050108
78.598298950297
78.7192451503693
78.8153577736737
78.8022926725091
78.8856753688653
78.8961564543875
78.8827207218351
78.8404142809013
78.8928562061879
78.9946976459721
79.0967604282448
79.1402534695867
79.2172064891867
79.2314070173978
79.275967431248
79.2937868182243
79.2932772249655
79.3014453455362
79.4018572185825
79.416305209459
79.3818279958819
79.396735420595
79.5728029705232
79.6554613130878
79.7016441438802
79.7527511822631
79.8009806408234
79.8952935733361
80.0261744060079
80.0617300309254
80.0719883413061
80.089396679079
80.2113130450694
80.2398008708638
80.3531006232339
80.4616397295523
80.4830447638663
80.5026381381543
80.6316142676378
80.7271649259285
80.8212653298644
80.906470343956
80.9911013406774
81.0749623897075
81.1781741827707
81.1781908448667
81.2282261350957
81.3376152339186
81.4066444097614
81.485595581487
81.5818410813628
81.6629625409092
81.7585007331525
81.8828714035743
82.0902612827317
82.172498532607
82.2026260207759
82.2191943388954
82.2659597449275
82.3162580553223
82.4394848407315
82.5394692692613
82.6099465773363
82.6642876376412
82.8688840974935
83.0245676989008
83.0375607404761
83.0108511890332
83.1561419233505
83.2663837070804
83.3227208773646
83.4351947879437
83.5757692482339
83.5989161123797
83.7270962397413
83.8078939221335
83.8340982574576
83.8843260744201
83.9907893558311
84.0885598128062
84.1937434130472
84.2564866003547
84.3374163502046
84.432453829289
84.5079587606742
84.5385746939307
84.6228688744693
84.7354336141302
84.8320786963192
84.8798403296379
84.9858215353052
85.04207456835
85.1024168774764
85.125487242216
85.2048955654374
85.2707838897915
85.3789658862905
85.5279210283982
85.6130794808239
85.6177869407121
85.6561105355799
85.7666101686148
85.9310032817159
86.0356054437622
86.0779806416635
86.1534245517022
86.2152081395286
86.2533300215246
86.3740725713577
86.4736366221924
86.5694382335676
86.588882446068
86.6615667414607
86.7598110394973
86.8279430781816
86.9464293932606
87.0670981140496
87.1056407285659
87.1659588467385
87.1841839716119
87.2058084394225
87.2826360109238
87.3949596882891
87.4284159139018
87.4761333030449
87.5018643506076
87.5752095166465
87.6337273588068
87.6811112577766
87.7352665620295
87.8347244039003
87.9081306489431
87.8993337130532
87.9056273631274
87.9651477404435
88.0215568057322
88.1169691261442
88.1396931929471
88.1128597839611
88.061176771337
88.0549494824163
88.0835105166531
88.0408185024913
87.9534126496772
88.0441483375041
88.0798329389732
88.028147174643
87.883107836264
87.7840974991271
87.7162450033303
87.6097385110972
87.5846792688154
87.5951510076775
87.4206499076721
87.2702770174212
87.1729944696402
87.0923803001918
87.0236436954744
86.9182224089519
86.7765708543543
86.6752041164594
86.5859324687082
86.5236242165801
86.3571716553362
86.2093729038451
86.0901982319463
85.9343612543602
85.7570754991442
85.5298856824899
85.3007694551616
85.1802432204852
85.0617497020182
84.8612461425158
84.6825254086563
84.6509449505758
84.5327419834883
84.3926276103634
84.2591173149724
84.2287209621668
84.3194705526
84.4368576519423
84.55143221301
84.6901680421205
84.7660212777227
84.8798595232829
85.0354479134019
85.1532184214186
85.1828127475259
85.2485144221932
85.2551310251436
85.2961185792807
85.419858624661
85.5066140150731
85.524525075293
85.5430002650988
85.5615420147936
85.622767745481
85.653715945743
85.686337368608
85.6899145854254
85.7587871440865
85.8850546603044
85.952721251235
85.9967515486649
86.0487375543026
86.0439014131192
86.0564643481193
86.1388487586185
86.1989546006888
86.2474743167015
86.3200897662997
86.3405594215636
86.3703409727207
86.3616925293632
86.3170392446929
86.316024814668
86.4551546355321
86.6177436518652
86.8194273705828
87.0255381991613
87.1849832108913
87.3503501624763
87.5939184774326
87.7504711089202
87.8585265027634
87.9861247755958
88.107367030795
88.2051375275147
88.3398486163675
88.4671909783195
88.5612184683554
88.5916259472769
88.5859339951407
88.6057377076207
88.7317023345903
88.8427456435157
88.9187417144149
88.9716887163848
89.0408750556963
89.0970869339232
89.1532341760361
89.2106955488183
89.2492113876371
89.2984689908782
89.3516973872151
89.3599141141535
89.3699065331151
89.4493859616941
89.5658412102907
89.5715418681625
89.5389416723302
89.5978929739148
89.6564267334301
89.6857727722859
89.7138203778251
89.7331387558626
89.8268950348043
89.8910874740407
89.9259513353838
89.9683474454419
89.995049976357
90.0005158243385
90.0631179394148
90.0693089052199
90.041507034231
90.05239761318
90.1156004456735
90.1517572511984
90.1208963875757
90.1338018386359
90.1988982530227
90.2478228320119
90.2831832458532
90.3029766034246
90.3044898636769
90.3050844182367
90.3491088830553
90.4194619626487
90.4670380420605
90.4640320437901
90.4489104603319
90.4198062020433
90.4234392537201
90.4626642925829
90.5467530678649
90.5686845180493
90.5881392429227
90.6302240526851
90.6525853158447
90.6821671356784
90.6917094971389
90.6666450828306
90.6907470508079
90.7230052847974
90.7418942148606
90.7054855079339
90.7478107266111
90.8314224710166
90.8368513478224
90.8118363907207
90.8635351452563
90.8920906108891
90.8874325140513
90.9195470926527
90.9637462378874
91.0166996942773
91.0369212089025
91.0036526828078
91.0470807750617
91.0614357659758
91.0582603926027
91.1346656452484
91.1742275511422
91.1717128849086
91.1683895616278
91.2016646061028
91.207016576983
91.1811924276689
91.2443201583711
91.2938449056715
91.3007749525229
91.2917335039373
91.3001469155158
91.3328216156074
91.364751397485
91.3939983126254
91.4268766945135
91.4710789881715
91.5227948747025
91.5718059214848
91.6205313795574
91.6875968439542
91.756827887308
91.7571327174299
91.7513000493204
91.8108412872643
91.9193506189074
91.9885336171597
92.0329440253851
92.0243609408986
91.9703423218953
91.964990513242
92.0201113453056
92.0667367291311
92.0770001252221
92.1119694153742
92.1882731372733
92.2673495204879
92.3708336320951
92.3519118921356
92.3153699464517
92.3760083534066
92.4103183514175
92.4445223618887
92.4618957891699
92.4667639877255
92.5183034881825
92.621287162367
92.6791488495247
92.6658465889995
92.6417773133289
92.6052359524177
92.6527680207433
92.8084978949768
92.8157265744482
92.7281127447663
92.6979071831006
92.8000804075719
92.909455760943
92.8849162770303
92.8787212863694
92.9618946790233
93.0397047378613
92.9704548032976
92.953339713215
93.0282528707177
93.0614739481232
93.0842527482209
93.1030647694335
93.1420165584338
93.1364288560588
93.0971779289673
93.1088158006047
93.1251734162891
93.1951132526642
93.2497087060346
93.2181785192056
93.2301825343036
93.289260152614
93.3617910087777
93.3268207097505
93.2967848901955
93.377766923302
93.4953817283616
93.4599563016107
93.3387773553755
93.3413799898291
93.3796752327151
93.3852825004238
93.3278158960989
93.2421100401275
93.2868777823663
93.4304836097294
93.540656415601
93.5401556568296
93.5045166525863
93.514385383066
93.560323870323
93.5795197785013
93.5276389130466
93.5881586169415
93.5894766906087
93.6186001092129
93.679191007081
93.65601411813
93.6630806407283
93.6996006827998
93.6943747992117
93.747062415897
93.6225412992254
93.5350721889375
93.6630685981551
93.7386923679157
93.7687285840503
93.7519534256704
93.7473051228721
93.7562569660118
93.6763723686108
93.7222879225778
93.8192133563573
93.849032943102
93.869617087706
93.8645241980836
93.8216123677493
93.7890439522736
93.859871906188
93.9883017771371
94.0269049357849
94.0167156736982
94.0132075273776
94.0895711042593
94.0626054499675
93.9970262089564
93.9997862628339
94.047367687246
94.0721286110771
94.0433968876809
93.9939260988036
94.0484402825449
94.1227624848446
94.1056153113062
94.0928530175076
94.0647221388982
94.0256428940425
94.0878311744607
94.1721968391773
94.1563875929464
94.253716500564
94.2852309570341
94.1315167741624
94.0518445796852
94.0970319120566
94.1512798396184
94.1942953221786
94.1703481990108
94.1453366152602
94.1623601169656
94.1422021300008
94.1638428200317
94.2352851637044
94.2461775962995
94.2219656207383
94.2432052938995
94.3419369453761
94.3411889166073
94.2623830869039
94.3244162870611
94.3735101543095
94.3568604623415
94.2993640327134
94.2393682110186
94.2509585095909
94.3654259338559
94.4103170466005
94.3080495314485
94.173702617102
94.1126220185895
94.1266132310993
94.1096030699883
94.1205156804833
94.1115243995173
94.1024470109855
94.1886052827632
94.2895038294254
94.2719914767836
94.230672803935
94.201715835186
94.0296147695625
93.9074845889864
93.985801907826
94.093467506005
94.2027781050538
94.2422326613845
94.2379227720831
94.273702252055
94.3552793677515
94.2768434252759
94.2516105765651
94.3025904645847
94.3172195279774
94.3533910230716
94.3971347677535
94.4714495458601
94.576508703536
94.4821260555157
94.4593190995077
94.4994206817877
94.5090509945698
94.5908310186541
94.6813754667962
94.7066050394037
94.7093276290206
94.6980506573629
94.7472108725386
94.9339247947309
95.0269807279529
95.0428768297403
95.0866610737961
95.2224440826754
95.2200057119324
95.3313636225075
95.401289962249
95.4134428453994
95.4560596545955
95.4966487200368
95.638920218106
95.7743431575053
95.9207827598381
95.8908047903433
95.8157988850694
95.8423571015671
95.947762252199
96.0390897372936
96.0421274432073
96.0213105596593
96.0017568465116
95.9332441747625
96.060858194806
96.1102050683409
95.9996923864303
96.1692290284258
96.2660494573559
96.3901850909156
96.7196454563456
96.8338830101714
96.7531201423343
96.5015739867215
96.5583490266094
96.7744767846449
96.9675631406711
96.9090218943417
96.8461029624106
96.8044300016562
96.698599027896
96.8188297758541
96.9141993818266
96.9252288143015
97.247433390165
97.4197434777633
97.5489584899033
97.8024598767027
97.822125872811
97.5872182072958
97.5982534235922
97.8850871782829
97.8675543147261
97.7906737379251
98.2273573518433
98.0860003817567
98.1169410299363
98.2443110412031
98.1156602707127
98.3184226456394
98.6557037249243
98.843457660584
98.8148362669128
98.9104622048799
99.1479599461837
99.191829439078
98.9214119541165
98.4461906294666
98.3022742929773
98.4424007687259
98.0851894602809
97.7732175827947
97.6934686453219
97.3989683516233
97.3177382407462
97.2625600645131
97.2772673354808
97.235286728855
97.0343075009373
96.7702351544612
96.4895979153636
96.2829858282362
96.2055859373448
96.1282760003625
96.1223792197716
96.0911356940907
96.1381306334127
96.242564149584
96.0998352655971
95.9828229617314
96.1920523965285
96.3610008142777
96.3039553035981
96.2309053600268
96.2879113541278
96.2819893430449
96.2421988059477
96.2754935243555
96.4133290964325
96.502821961465
96.3087435203953
96.1602159772205
96.2334909615623
96.2750878989259
96.4270228260814
96.5230755030004
96.4695648803697
96.5921583930621
96.8304556619122
96.8750885882265
96.7369639019941
96.7385524504155
96.8598066211355
96.9181373315962
97.1275039986869
97.4457723771231
97.4544552308889
97.1581590355696
97.0491805690795
97.3900294861577
97.7741754534513
97.8553724479588
97.9485455279718
98.3087526025742
98.6244771684763
98.8197347034752
99.0191655683038
99.1172723724172
99.0175068526286
99.2080952498283
99.6266242006692
99.6719824568556
99.7183557581477
99.4615753587826
99.2977209514273
99.5937917591918
99.5418237631221
99.2755947817427
99.24377554699
99.2371472464532
99.1515469157613
99.0499500111072
99.0532164270756
99.1916763456483
99.0539191260192
98.6905400768162
98.4727608919882
98.5601552147115
98.7322265934823
98.5484368866135
98.4431475486511
98.4356830529864
98.5389067347372
98.6161955470637
98.5213587807775
98.4982728665736
98.7509732996837
98.7403070438649
98.7185196509591
98.8343126629726
99.0446900196628
99.1159280497164
99.2649910176982
99.2581150541463
99.1233053961563
99.0267249581978
99.0892210056775
98.8312169784146
98.2638914435063
98.1613190389144
98.3953476861376
98.1046574941353
98.0654103987779
98.0714647533971
97.9137471960728
97.7259888343254
97.7406598869219
97.5401281897277
97.3583118818947
97.3463179640047
97.2749036214926
97.0380059887848
96.933318010896
96.8999202675676
96.8949257679277
96.8700756751007
96.9150167736587
96.7838279989198
96.7634028883451
96.9450307079212
96.9833320342569
96.7107048259206
96.4865462448202
96.5048456881887
96.4862365723847
96.4246154185236
96.4900418347484
96.5572669064022
96.4806552323491
96.3410564672502
96.2446300122653
96.2637858771223
96.2188009182702
96.1645240413071
96.2615121577858
96.2834929382339
96.2915422056836
96.3194267297161
96.2642263340447
96.1139503253904
96.0736513193285
96.1057023656976
96.0909733613923
96.0191717622757
96.0135355713245
96.0148714063609
96.0035690164627
96.0326593585355
96.1366953217135
96.1647603276732
96.0534008719558
96.0074584584085
95.9824284532492
95.9245680363559
95.9285789481495
95.9344538091303
95.9566669366906
95.8930638716859
95.8454410775133
95.8288689905709
95.912421731673
95.9584307400112
95.8769378752999
95.906668595277
95.9276800929103
95.9072820409173
95.9163014288067
95.9053703735436
95.8866389530599
95.8439678175239
95.853482926789
95.8823829295927
95.8428520602911
95.8477005388713
95.8449055205658
95.7992525123953
95.810413657094
95.8679106593081
95.877354798861
95.7941766099142
95.7579825983477
95.7971333572117
95.8112962073826
95.7636694773157
95.719760272895
95.706975888544
95.7405107079978
95.7141356671085
95.6705206429269
95.6531009978414
95.6845100398083
95.7330893788807
95.7296885991879
95.6646324368532
95.6405873981479
95.6487234807024
95.5917535676195
95.5707753362717
95.5652512140208
95.5336758522816
95.5159198645261
95.5323656710501
95.5876387716791
95.5252551515109
95.4160626285934
95.2786324494582
95.1793514084348
95.1364816192807
94.9885141567203
94.7736526341197
94.6249592134232
94.4015834585582
94.1258643560379
93.8307330590896
93.5797011962142
93.2806331436313
92.9718570738633
92.7173709999675
92.5050869026843
92.3139321521702
92.0945801697922
91.8369492948578
91.8637115054348
91.8372888056656
91.7540275534401
91.6654130263438
91.5534476771857
91.5010302819237
91.5402134967076
91.4304710043353
91.3986397012911
91.5195113498117
91.582780659468
91.5937065276989
91.5031272953292
91.3505936672375
91.2021295925987
91.1103343512545
90.9861385049907
90.7148446298375
90.6361027081582
90.4065495326372
90.1435709529889
89.9502813409862
89.606010144338
89.2300761601031
88.9337139123941
88.5381658371502
88.1980279287597
88.0720261299433
87.7441875651096
87.3532814800752
86.907445075885
86.5426815372795
86.2802810263132
85.8439970375443
85.4790509767366
85.2603146896054
84.9107358496965
84.4600039629622
84.1417542735939
83.8966879772882
83.5789084997393
83.1679262041231
82.5944249208721
82.5695415703369
82.8733350902138
82.4399664624671
82.0486437239263
82.108085309459
81.9699992885994
81.6688067987501
81.4319040123872
81.0959018773467
80.8693613330451
81.1126145630752
81.0627481732718
80.8273720737358
80.6811352770552
80.6573935095257
80.5602874138082
80.6222329504101
80.8015114716733
80.6368677993243
80.4365315282235
80.6708225374713
80.7649942645149
80.6140076827665
80.5198463189762
80.4689215063094
80.4147528450238
80.3084366627666
80.2895483174942
80.2973342313538
80.294001478445
80.3085007888477
80.39298079633
80.5626941890284
80.7788394067374
80.9790337983704
81.1665348838314
81.330383908469
81.5299389817124
81.7373090619456
81.9457181050801
81.9098615667928
82.0594066230218
82.7230229473217
82.9076417415432
82.7973725279884
83.0658315057472
83.412451510146
83.5269715403641
83.6500041923828
83.4375208736493
83.120648901177
84.0438875718462
84.4833283490507
84.5105969802736
84.5314082166096
84.5123384227925
84.6551392843822
84.6316359181107
84.5924596415502
84.5588163573058
84.5146355337481
85.1112248731786
85.5738121951961
85.3979983898363
85.3389630115624
85.6466274828942
85.6936969724489
85.5740406872748
85.5910295732759
85.6240379438315
85.3982612359079
85.4116133295759
85.3910473662371
85.2205493955578
85.2549540673387
85.2315331674011
85.2272481348177
85.1494033987535
85.0683972056429
85.7787682486531
86.2172092313901
86.1953688773168
86.1279689469703
86.1287439318065
86.3760076545946
86.6875261169368
86.6765325532228
86.5945035919402
86.7658381459243
86.9343229709861
86.9761259336919
86.8681966747554
86.737116533718
86.5950480743584
86.341237498656
86.0477974502787
85.6757254331916
85.3600598968802
85.0807544363182
84.5735922516179
84.0150456307369
83.6951358360421
83.5799599772464
83.2681371840789
82.8476559634711
82.690723335363
82.9540845746429
82.8518959761374
82.6452981374785
82.4262357476152
82.3094794665239
82.3018924028127
82.2202841486444
82.0901843271729
81.9225181842123
81.6286993912742
81.4160951959306
81.3763568760704
81.1127082330886
80.7558518035037
80.4864731803883
80.2177775630273
79.8745108388058
79.6383040639824
79.3768337082848
79.0232824240594
79.0206099055432
78.9968002971319
78.8233513281886
78.6573540185159
78.5664462636776
78.5273769500905
78.4466635271178
78.4398711661883
78.5348111141448
78.475910699661
78.4574833457395
78.5486407348009
78.5301185223322
78.6634752278207
78.7236407072108
78.5634905412838
78.4136437098862
78.4332508999914
78.3845610743199
78.2169097028905
78.0681127050409
77.9538168263378
77.8830384187608
77.8269760263081
77.9191042335465
78.0186014111551
78.0100929644124
78.062776634192
78.1146723085857
78.1159628606278
78.3072666225298
78.5710842506234
78.7206721598158
78.8077128837476
78.9260416710339
79.0782543867886
79.217742906704
79.3630496509294
79.5208675230864
79.6500251547412
79.7655783296273
79.8319492326615
79.947311930142
80.1411517193748
80.2798777451926
80.3742344327106
80.4186951695603
80.4539178766908
80.5226420651204
80.5794913099294
80.6046134213647
80.6278509595241
80.6415570697859
80.6769479626253
80.7397495585617
80.7605404640722
80.7647311376824
80.7855382172372
80.8132856727043
80.8665620758131
80.926938005471
80.9703921293703
81.0051745930478
81.0530535438322
81.112448105012
81.1631109512446
81.2160409609042
81.2381189944844
81.2487392516881
81.2552157510655
81.2659896262299
81.2601616540794
81.2292716019166
81.1693929594689
81.1067869264787
81.0438530224803
80.9606054407226
80.8642688333672
80.750538535234
80.6454068411612
80.5244779891755
80.3623755134304
80.2102099888057
80.0648466252852
79.888626089846
79.7194838525917
79.5766170736252
79.4382455449878
79.3205097246904
79.2294329669296
79.1718683345145
79.150003772009
79.1546495566858
79.1788005793795
79.2368705643468
79.3198010695606
79.4029169203163
79.5178040153108
79.6633159969485
79.8231661398026
79.9838565462593
80.1454700369102
80.3239783731899
80.4886218559021
80.6435893782446
80.7929656834749
80.9552328823769
81.1177904362042
81.2626135512035
81.4043970079852
81.5607245633573
81.7470620311158
81.9275019093323
82.0610865519889
82.2188407349492
82.4062169435383
82.598385113875
82.7999275325541
82.9967233877684
83.1924594747098
83.3565905874568
83.47245699887
83.5130114584882
83.4645164518433
83.3755551836651
83.2373651986071
83.0231660909477
82.7523303059643
82.4634542230762
82.1632397900344
81.8301014012542
81.4559030253444
81.0474697860345
80.6102331559742
80.151823864331
79.6347583104328
79.078280382751
78.4887290164863
77.8944761474403
77.3387322783818
76.856147566994
76.4332618784023
76.0603121448048
75.7731137737486
75.5679722526479
75.4097202954095
75.2827296883831
75.1809742231813
75.0676223701919
74.9650759838007
74.8160875931934
74.5663695128885
74.2358569746349
73.8584942438318
73.4534770853326
73.0116623228163
72.568097148265
72.1420514742132
71.7458630597919
71.4072795387897
71.0462810354612
70.7067762826934
70.341328585477
69.9478329690988
69.5738559060796
69.2187379548782
68.8564723510938
68.4317381522126
67.9699542937587
67.5157118930237
67.0608679349596
66.6078981155247
66.1398468985117
65.6161022643304
65.079541185587
64.5470685062841
63.9660013746824
63.3324007164014
62.6381838335203
61.921937759584
61.2181835690075
60.5070545871055
59.8200437896401
59.1719163487515
58.6246796770482
58.1856189934899
57.8132997834474
57.4912923638678
57.2033531529643
56.9422236815578
56.6580060726023
56.3444556360826
55.9806885707167
55.5451921431056
55.048513587238
54.5500529227975
54.0188181944644
53.4251036068077
52.7996904925344
52.1785934161411
51.5730861425373
51.0146961302885
50.5292785646639
50.1127331558045
49.7413003127857
49.4420277874793
49.1943656206359
48.981783158841
48.8450831532992
48.7463009748085
48.6566470922471
48.5887637295158
48.5798268944443
48.6511572257121
48.7860962547919
48.9768810471592
49.2201942564187
49.5124351069724
49.861829420898
50.2834518780206
50.7322245856365
51.1944774632388
51.6296018481018
52.0590863171918
52.4718542375114
52.8551899487991
53.2470669061983
53.6653476652598
54.0621594515672
54.4639677502673
54.9122012287222
55.3762112566088
55.8124787763667
56.2472503423521
56.6587676318995
57.0997754012119
57.5711022406801
58.0314682227047
58.5033768102522
58.9983544148628
59.4877678837213
59.9737760089653
60.4627142592118
60.9348473357813
61.3909170466415
61.8798219455775
62.3754982956646
62.8508433149741
63.3291574558245
63.823412729432
64.308714697929
64.8018483441416
65.3022910693362
65.7859181611409
66.2696663298807
66.7655509428152
67.2279987016394
67.6893703850931
68.1673923512455
68.6136632799979
68.9644077693375
69.2906137811774
69.6162719838959
69.9391546161158
70.1860772901154
70.4134144852871
70.6844071356636
70.9466097359556
71.1725577270661
71.3943475062636
71.6065415247819
71.7984138924238
71.9693738774949
72.0989114939863
72.1884358154229
72.2327526450638
72.2349228624205
72.275677507354
72.2970710300354
72.3288887869029
72.4008738331871
72.5480108332372
72.7726864537485
73.071546538101
73.3657283026937
73.6532231407416
73.8969109138302
74.1261033609693
74.3234286875845
74.5077746489036
74.6766456491636
74.7911522721517
74.911709755879
75.0360055317767
75.126754164783
75.1988202786458
75.2419392985714
75.2953380362064
75.3854980989993
75.4950113177177
75.5975576904254
75.7034226727912
75.7830738704206
75.8714744456951
75.9747235963023
76.0486074029715
76.0951762466352
76.0909746249607
76.041159700841
76.0100347250256
75.9730498636339
75.9092942349024
75.8661827097662
75.8779937151325
75.927897145062
75.9838122743966
75.9938728756331
75.9823780758533
75.9416422254989
75.8937148649392
75.8200950954918
75.7196958982096
75.6108616560587
75.5106980573119
75.4044484636582
75.2870413515702
75.194938277364
75.1533585230413
75.1217158910804
75.164483592001
75.2324670674734
75.2425302456872
75.2578830971639
75.2561846592028
75.2444386212553
75.2914765388611
75.3052075352429
75.3193379616377
75.2675220092022
75.2183436678944
75.2130274120611
75.147778566221
75.0504563867198
75.0074888412787
74.9640099832086
74.8972902917735
74.8113919276551
74.790419792865
74.799763914387
74.7567476859328
74.6538554722386
74.6004369429398
74.4940373155308
74.3954805477672
74.3763588367438
74.3398358859483
74.2889270357859
74.3006778316572
74.3318725526421
74.2967289338976
74.2180628714583
74.1762143601025
74.1062101922248
73.9469118234966
73.8236546602859
73.7319886663145
73.6047789509098
73.4559150442974
73.2678504740039
73.0853263342155
72.8962710093836
72.7028607345968
72.4979519408849
72.2670648494086
71.9867515253611
71.789906348845
71.627536152263
71.51467614272
71.3681894902464
71.2179533556536
71.0771502701508
70.9068066801253
70.7380876446014
70.6387058955495
70.5159444079603
70.3796209376095
70.2344738656544
70.1246940544655
70.0511172630947
70.003061425424
69.8859390446663
69.7655718709944
69.6330351906459
69.5297367138167
69.3927835565491
69.26597254053
69.0967110506872
68.9362151130802
68.7605470942012
68.5769660715768
68.4361678822516
68.2326304189407
67.9272142557073
67.9824598641295
67.8596852566494
67.6151380576286
67.4496746970728
67.3281803488587
67.1470800920858
66.9600220350497
66.8783703693029
66.8199080168968
66.6759712925254
