1798
3999.43349933624
650.420452594757
1
128
4
93.5761047500232
93.5248264578361
93.4982764784922
93.4844310487742
93.4400228557562
93.4862993245296
93.5838458605226
93.6264263143898
93.5764817413935
93.5263215851871
93.496190209896
93.5584835475322
93.600379268493
93.5859866746909
93.5000469522508
93.5929678221319
93.6448226124829
93.5786830125056
93.5810163098864
93.5939715087871
93.550102622911
93.5847888444625
93.6957451829178
93.7688663840258
93.6534731891595
93.5992211448549
93.6475442546735
93.7079460428251
93.6110316705583
93.5759226504974
93.5433427496657
93.5990444256702
93.6524774360512
93.773229887581
93.7136830315469
93.6294166623617
93.6812620801389
93.7346939027738
93.6935109497876
93.7680664608796
93.8270122624427
93.7759157605304
93.6864180674394
93.704031357314
93.7301860420921
93.7094296987233
93.6844492344763
93.7575219728899
93.7795590484954
93.7260469480377
93.767032955753
93.756285560404
93.7628566787102
93.885962195583
93.9230356494065
93.874268606492
93.7815387049224
93.8004043344933
93.8280367371579
93.7856631395516
93.7351509456092
93.8511462080615
93.9693701463731
93.997528344513
93.8775437338678
93.8282108463359
93.8736039903365
93.9371478357871
93.8957693764952
93.8700240091829
93.768269901419
93.8452364458425
94.0285153902151
94.0282510171027
93.9198460723711
93.9551812039091
93.8586537512965
93.7736462600012
93.9168613306855
94.101745801053
94.0771334293538
94.0259791134871
93.991140981681
93.9969816214473
93.9354882024636
94.0248812682623
94.1405457174195
94.1303694311392
94.0923217659764
94.1113628941566
94.0119566036419
94.0117500957737
94.0621620102273
94.0411292761342
93.9863839660935
94.0900741209161
94.0489443975677
94.0867812301372
94.1988967083929
94.2286026225806
94.1585904525289
94.1212103649526
94.1785317753202
94.1522789576805
93.9782528558657
94.1126050135446
94.2721316927321
94.1591257631001
94.1442785564849
94.2807217878733
94.2457303962012
94.1718093336724
94.1887214577235
94.2319986998288
94.250134863316
94.259279340807
94.2216858845791
94.3253765315948
94.3320586998874
94.2367163399321
94.1747177300201
94.2207315624127
94.2527012797414
94.1979113178723
94.1193804011181
94.2018563335484
94.251142037366
94.2635572600407
94.3443004971318
94.4188868804285
94.3717730935944
94.3804899047156
94.3307348199736
94.4215406180298
94.4497178139301
94.3503698923174
94.4102366222693
94.4414370448243
94.4641731129411
94.5464040230101
94.3942133141612
94.299271843579
94.2704937866673
94.4479713663578
94.5737718067083
94.5724195220896
94.4550985902501
94.3958714830957
94.2885991851935
94.3422774438622
94.5002453533656
94.5431509568237
94.4811592982212
94.5647139722591
94.6502609999869
94.5353405233638
94.4718609183921
94.5177030531322
94.4758462382427
94.5335610692657
94.5931486264675
94.5364111793607
94.5460489932491
94.5328812040044
94.4960074579182
94.5618517788103
94.5320127270661
94.6380281418542
94.6028938975088
94.6371082575187
94.6173208467019
94.5814375545551
94.5820260356315
94.752301979761
94.7289145827398
94.5153833393592
94.3708475917009
94.3820808926221
94.2886846461826
94.2511640356123
94.2294360056571
94.2842316669497
94.3274111988141
94.2928393941303
94.2865742087098
94.259804058441
94.131497493722
94.1891836754024
94.142397080672
94.0411648633403
93.9483107292231
93.8348174322187
93.6491721757034
93.6687462940704
93.6954020228645
93.6348855730025
93.491850983664
93.3215404222611
93.3364959601345
93.4394859382993
93.2172586222546
92.8606954006802
92.7233278396644
92.9002286813967
92.8336984021248
92.6382127855492
92.5790245778949
92.6951513203082
92.4397469992717
92.1278993278614
92.015319705855
91.9195439988992
91.7749258671924
91.7739105836079
91.8722096214596
91.7800296525878
91.569741788275
91.4686764117884
91.2625089688216
91.1353979336258
91.0518064154096
91.0720269616836
90.9885744069358
90.8303524891836
90.6240296917346
90.4177708336529
90.2656503211452
90.270032243524
90.2265357586504
90.1093973808483
89.7891116485445
89.6758465250924
89.6899768540175
89.6015653410251
89.3810483875571
89.3740990423547
89.2707191463258
88.9721510099822
88.749089007425
88.656547673361
88.5134724979926
88.4210986104872
88.2956666697174
88.1781945850879
88.0295128956942
88.0147980516299
87.9097086704129
87.7136942180066
87.5360481190054
87.4453388663037
87.3570613673961
87.3817488524275
87.190326461814
86.9337333583834
86.7251934697455
86.575064997591
86.4467754023507
86.3935422437225
86.3641312383007
86.2140439534863
85.995244171568
85.8516050559138
85.6744864545313
85.6165220618429
85.4169258095214
85.2028470813174
85.1940412048902
85.1874189200203
84.9678341392478
84.8444333483732
84.7162130488996
84.664790969643
84.5470907329813
84.45337735978
84.3462966512034
84.1460302406768
83.9529184958838
83.8754936454506
83.8326870785511
83.7033850071116
83.4813839510252
83.3794753048337
83.3092866441566
83.2163229705614
83.084277518726
82.9776230234878
82.746147323771
82.6962195284603
82.6084143287576
82.4108333526616
82.2194737452606
82.2477666297748
82.2146795424882
82.0668221636366
81.799315119376
81.6816272352423
81.731270971737
81.7325286369095
81.5909342523116
81.4724203380358
81.243847061418
81.1372109076461
81.0158994716177
80.8807173651186
80.7639893601131
80.7378097529838
80.6362571506666
80.5293091526994
80.4243578515676
80.2737064013629
80.0728016209214
80.1501835430514
80.1478806713781
80.0926432301882
79.9061287856129
79.7518911473096
79.6291185169154
79.5816524856029
79.5405985694393
79.5094893190294
79.3519342246968
79.1430795607157
79.01834858304
79.0160343890123
79.0041788948905
78.9110860655496
78.7882871849248
78.8355600458182
78.7272578933653
78.5886679531789
78.5408073633105
78.5255198957714
78.4623430343326
78.4345356973933
78.4295163755446
78.3951496925624
78.2536462027809
78.1208038189436
78.0038918283262
77.9737574850293
77.931056551286
77.9268875389643
77.897473109592
77.8587516711775
77.785052526603
77.7574660423729
77.6587787061037
77.5729278619351
77.4565609204576
77.4761711781266
77.5755809076981
77.4875409904366
77.2714471710288
77.3085771985109
77.3520709715754
77.3349284108233
77.26206237486
77.2489682789193
77.1468085431584
77.0631417960925
77.033849881144
77.0951358682978
77.0221210428309
76.9906342112987
76.9938309785578
76.9927567133149
76.9431118566272
76.9943261287423
77.0092299799582
76.9676510068609
76.8728418961759
76.8424189516913
76.8464085229281
76.8693270001219
76.8020694591455
76.820235440246
76.8104915693723
76.7568165555329
76.7068297307953
76.6939245514171
76.7002204825871
76.7157036029806
76.5742895101418
76.6075842943914
76.6840848863836
76.692852153824
76.6561123331955
76.6003159336229
76.5716555816206
76.6938565951549
76.7066944394615
76.6442973047844
76.6399225533474
76.702600502322
76.5927042150516
76.5690560627465
76.6238740686413
76.650476374801
76.6376242928656
76.6624251721368
76.6195032519077
76.6530083860443
76.6915378256363
76.7307507281301
76.7358850956867
76.7670394066583
76.7401854668765
76.8445673438187
76.9223222840959
76.9172991714019
76.8617706907332
76.8723760952079
76.8834074674553
76.9589105162692
77.0276989441456
77.0613260828553
77.0782058976088
77.1843143342372
77.221080105909
77.2039392455852
77.1960951876547
77.3017078032224
77.3552904719215
77.36726422683
77.3919438136512
77.4051114211303
77.4623859931377
77.6354215561294
77.7087573354077
77.7889325984214
77.7742392215484
77.8144365150605
77.9321014785002
78.0341725543756
78.0509432619316
78.1336261684965
78.0985166203374
78.1178979196215
78.2420481935164
78.3936195205465
78.4490796557239
78.5241645737922
78.5567520707179
78.6789959438784
78.7491671418552
78.808528874065
78.7961133141142
78.9566573326461
79.0741959780751
79.1907248527875
79.302554871865
79.3241742166407
79.3080982827647
79.508046118922
79.6662646603023
79.7332552263174
79.7397032495303
79.6981195101956
79.7559294381329
79.9564709426187
80.0506174567955
80.1720113530338
80.2724270767079
80.3603950456124
80.3837623054009
80.4292536623016
80.5364051940252
80.6815719601158
80.6741455544081
80.725366537203
80.8633979024373
81.0453458862997
81.130635531598
81.2187704073238
81.3628959889427
81.4868320476958
81.5105516319929
81.5554071339391
81.5215039412063
81.5896290126281
81.7172044380284
81.7985265748992
81.8936135634402
82.0650864867662
82.1170146485252
82.1508551686617
82.3005886073477
82.4824552757066
82.4966994333121
82.5440208142309
82.6115062105136
82.7174337626657
82.7405394575258
82.7695204570646
82.8373575373518
82.9406589716181
83.0299044813107
83.1381069282003
83.1643279991157
83.2230551960202
83.265758582712
83.3907535920205
83.5412983779128
83.6915643580141
83.7789394287713
83.8232606456166
83.8799071885252
83.9217965500245
83.9860706378328
84.0783097700023
84.100239073016
84.2151364889212
84.2954896109154
84.3824711366373
84.4866495088375
84.572829951161
84.6169921870176
84.7139817642894
84.7639795743894
84.8441062348732
84.8943770854027
84.9833012947527
85.0947514885963
85.1656941231333
85.1845603756285
85.2509309602862
85.3088183782746
85.4080536282911
85.5035652533566
85.5517849244075
85.5973001443888
85.6918540255686
85.6650754085656
85.7239527759509
85.7907367528072
85.8613052169486
85.873531822255
85.8957407395651
85.9989392832489
86.0978148255403
86.1047491313687
86.0768699674024
86.0378050119337
86.0015772372335
85.9594795742016
85.9570025533528
86.0183788839385
86.0163779690907
85.9485636520423
85.9100202284173
85.8705604121299
85.8547383981498
85.7895013181318
85.7051353144285
85.6303092760798
85.5796553881739
85.5147063549746
85.5040208920803
85.4221311366057
85.3326862518544
85.1853034619416
85.0972007709922
85.0862589946707
85.0043374483399
84.8846654407583
84.7653173748955
84.6419497390662
84.5203999216751
84.3538511121951
84.1466834488715
83.9742607848846
83.9116448944659
83.7571553128829
83.6002976338901
83.4481929221363
83.3256225918695
83.226528794913
83.1601839317616
83.0368610514202
82.9932278518831
83.0086200101629
83.0730094938974
83.2011960892491
83.3577759215501
83.4051419886788
83.4763572865763
83.5787914641194
83.6682452900728
83.6873973660455
83.7885034952727
83.8642750197028
83.8740777516616
83.9046585499332
83.9565610351628
83.9863441858598
84.057578475317
84.1222505246419
84.138069655394
84.129914881471
84.196587407516
84.1860415451656
84.1757381345624
84.2538748325847
84.3542178784901
84.3808545847077
84.4481587238817
84.4940498920302
84.5562173019849
84.6189603458856
84.6676294220788
84.6998122667836
84.7513514379297
84.8387038218696
84.8970960011451
84.842959338241
84.7822802105543
84.8311181776606
84.9318833564987
85.0728360590998
85.2683552192201
85.3831537350965
85.5032985377829
85.7241226423124
85.9440520654158
86.0492363427838
86.1714404110915
86.2995398646753
86.3769287702886
86.4200331229274
86.5291219993205
86.6299400427163
86.6983791108381
86.7660398548853
86.8692727916671
86.93121732464
86.9896341991745
87.0591351306767
87.115617836382
87.1708231495768
87.2389202000791
87.3097934356639
87.3572709047681
87.3843670102319
87.4478233831837
87.4869508214657
87.5078799569929
87.5620061782161
87.6176571324692
87.6449630527874
87.7623640705457
87.8230704159106
87.824048077414
87.8443944349086
87.9260385411466
87.9238690754285
87.8927256474578
87.9512291523166
88.0516308629432
88.1040039492665
88.1232117367476
88.1385281576592
88.1603205985504
88.172768544053
88.1911605386116
88.2253573336417
88.2941639210267
88.3228994040049
88.3928853924489
88.4134701745801
88.3843884012602
88.3962354392857
88.4440145003966
88.4769422709195
88.5067091088455
88.5120385460765
88.5212833872796
88.5607116209295
88.5982215172229
88.6091361141644
88.6171290023136
88.6211365441142
88.6484362496328
88.6807360045922
88.7082566437461
88.7277398035997
88.7539069785036
88.7784215337154
88.8281114054125
88.875663438733
88.867242209429
88.8271712445617
88.8472487580312
88.8719794722716
88.9203853359428
88.9475402327256
88.9317224881969
88.9767888643769
88.9907163641985
89.0147534121823
89.0776395575492
89.1165421818592
89.1449443376779
89.1006180214344
89.0996565665988
89.1605415561323
89.1686161679467
89.1447250804201
89.1900805675414
89.2387811268464
89.2573489059349
89.3001932438607
89.3671586723156
89.3816316986472
89.4089026493754
89.4387366834349
89.4478450738329
89.4349894256259
89.4676754046572
89.5184758774099
89.4826797018374
89.4702893509442
89.5006530351094
89.4924311675341
89.5388946717654
89.6014747614796
89.6261480034774
89.6487937551674
89.6888945619085
89.7508565121959
89.8496735140131
89.8589988639283
89.8559264026938
89.8915072446144
89.9656887501128
89.9827771005881
90.0315759386559
90.1111538258139
90.1382816274133
90.1152532922585
90.1511275659867
90.1669611698425
90.2019000890969
90.2740194597413
90.327762134713
90.4140704537982
90.4642421579883
90.410957804643
90.4281550585603
90.5101283904205
90.5830672074344
90.6717386767497
90.6676403931078
90.5944754507905
90.6526236205181
90.7841453676234
90.7897970342916
90.7455549522926
90.842601716097
90.8561544368335
90.789835039051
90.8549400234018
90.9717385956692
90.9336940829733
90.9272436651191
90.9001978077378
90.9638028461775
91.142661674317
91.1022690279818
91.1148446912792
91.1612147076121
91.1971214930374
91.1894509168909
91.1652015562092
91.262730951645
91.2800162413444
91.2467255785108
91.3304529992972
91.3620918714045
91.3523727855911
91.3810004339632
91.4055787003338
91.3764838131154
91.3827345004076
91.4498043135565
91.4744125657553
91.4427876408132
91.427416531953
91.4752148058926
91.5016743711153
91.5804234738403
91.6446243083635
91.552488632208
91.5285921806686
91.6029188378829
91.6343679252434
91.587722168322
91.5248632691107
91.546802683521
91.5576773041947
91.6706027037663
91.7067066474636
91.6421142350478
91.6548874503915
91.6928299021242
91.6530187195174
91.7169368533935
91.7569991973031
91.7051662078219
91.6629545204039
91.7322971315088
91.7817504944134
91.7934247881546
91.8627498038455
91.889368863914
91.8007486264474
91.7920411695897
91.8842892446695
91.8497046667705
91.8680571084589
91.97965966991
91.9424289122018
91.9331320326817
91.9651003152431
91.9569981742952
91.9556504636778
91.9572091084997
91.9528329048243
91.9590570553644
91.9760092298961
91.9003228459906
91.8480748271248
91.9861457749044
92.0877415682299
92.0916266934968
92.0976822539323
92.0528829703837
92.0294674166804
92.0193581004408
92.0997543434777
92.1871462672219
92.1683418525389
92.1805586731805
92.2194782234529
92.1689632089146
92.2336445464678
92.3416180847709
92.3199499188108
92.2568607725577
92.2681263797802
92.2026920773269
92.1457580418943
92.1991017972515
92.2124356467983
92.2529806607947
92.3434336122261
92.3554142741114
92.3272936329665
92.3442468243037
92.3539067589167
92.2930389661372
92.2631786081865
92.2680316556967
92.2866043094071
92.3367987950686
92.3397655661771
92.3148066301674
92.3375274721943
92.3438769205684
92.304138473902
92.2693510553521
92.2820741930013
92.3147612557507
92.3267057452417
92.3676691469066
92.4322068116604
92.4863729598652
92.4725254255493
92.4747715964132
92.4078774571688
92.4008942418685
92.4854769914702
92.5406144558038
92.5758819294742
92.5791476984438
92.5394880652269
92.4930361436284
92.4584305847983
92.328053209769
92.2224264778968
92.1936506162103
92.2193044329537
92.2901845425213
92.4051546753405
92.3762689070489
92.3632890177829
92.4590164938099
92.4523164539316
92.3427949993986
92.2682346488861
92.2010761990314
92.2247425444782
92.2585938861407
92.3414791725364
92.4618253625529
92.4819412603731
92.4543786123631
92.508949916805
92.5857219390132
92.6140789660747
92.609233865277
92.5999654446925
92.6390749538737
92.6992559702746
92.6952254931004
92.7117165179845
92.7344611446721
92.8050872907103
92.9273746316269
92.8676083884422
92.7679170291132
92.780967300346
92.8875836329327
93.0648404382016
93.1307052529826
93.2043335071608
93.2988039187001
93.3469960982989
93.3390784708333
93.3676682311889
93.5008382186659
93.5637882677948
93.6394688587464
93.7449358418237
93.8151005753848
93.8105417252209
93.8356392490101
93.9524390602576
94.0496447257483
94.1428087706586
93.9750785481512
93.9615493865143
94.2406256209767
94.5546194617884
94.7306855804744
94.5422674306471
94.2442544612743
94.2785863467269
94.3858903874888
94.5408893448692
94.7080167518356
94.8720110916813
94.9073420136125
94.8736245521392
94.8340136697658
94.7930851265282
94.9124636854623
95.0175741139998
95.1287860935012
95.1578432860304
95.0937874902907
95.1236296077712
95.3881786186076
95.4728330730698
95.4497865066187
95.4859771189114
95.448846914574
95.4923900843304
95.5566959996832
95.7074277567067
95.9164570813051
95.9169413454796
95.8660741322255
96.1166973747885
96.3782710492793
96.174357298825
96.1089394800399
96.4947930534135
96.7406234786038
96.9371339787797
97.0312955624228
97.0404263718531
96.794705092869
96.6471257013854
96.9183936948967
97.2007174845133
97.2952114875576
98.0675899586011
98.8672128916719
98.6254002519645
98.2664619101006
97.8231613394532
97.2467242386491
97.0058996518365
96.9325526057737
96.6828771666302
96.5711046465984
96.2444255863421
96.0986984003938
96.1153438942162
95.7269193402033
95.4439621028671
95.3917420500508
95.2286284708087
95.0594015736866
95.0351251989083
94.8470877774524
94.7159939136434
94.6478291766533
94.6229665641223
94.6050058102984
94.4764711395936
94.3492598047673
94.4272360226152
94.5976281520334
94.6898802233854
94.6853052326259
94.7872561603734
94.8022536835192
94.6196218635798
94.5214736462287
94.6848126788329
94.7935791222496
94.7210102969383
94.7691443549181
94.9110119340533
94.8475468276479
94.7470782557265
94.7061177945606
94.7588495742177
94.9437684909265
95.0655800634143
95.063452223337
95.0968793544146
95.2377327218468
95.3031891280718
95.2518987498816
95.3055502278318
95.4161422476076
95.5986045086918
95.6554346064131
95.7264782325782
96.0114640365767
96.254502862184
96.1948132859762
96.0032695668509
96.2165193889972
96.3929999210833
96.537964038496
96.8588939882576
97.1022768084014
97.4589831974542
97.4979891557158
97.6047286503058
97.9363995011434
98.1044438056114
98.2661179650542
98.1541618435882
97.9000434151376
98.2130393313135
98.3718516177515
98.1425922914365
98.2333999913336
98.1238451930084
97.7368499006628
97.8465181796036
98.0532991115511
98.0343083121483
98.0360423863339
98.0718195252863
97.8861827334812
97.7035753160173
97.5615468103739
97.1643540137544
96.9678432611217
97.1916827285685
97.3588729811821
97.2488119745265
96.9905986526698
96.9298222092252
97.0558263904767
97.4251318842829
97.654994546195
97.829175677984
97.8641573446519
98.0492385278074
98.2520703263453
98.4631433966209
98.2835936163682
97.6669158844011
97.3147798749349
97.5397689020595
97.4821622761416
97.2567852581067
97.1164400814626
97.0168970177598
96.7690664915652
96.6138258249533
96.5508231599689
96.299707334496
96.1034364668986
96.1409364172677
95.9872321618184
95.892216324435
95.9784481670267
95.8654425735187
95.7578605836944
95.7580543420056
95.6137092721723
95.5660363639532
95.5667511951818
95.4844664218721
95.4500258445398
95.4660476376119
95.3424535940005
95.2493384863023
95.2547820152591
95.1793618960442
95.0697897404804
95.0300408048909
95.0174041835919
95.0624915909919
95.0120636597687
94.8858398605835
94.8949098201645
94.9209464871897
94.8471660773572
94.8185954840504
94.8723783303133
94.9688052192292
94.8676382997947
94.7405802465469
94.7521117692254
94.8139139852807
94.8594907730642
94.8404137095151
94.8259018855664
94.7974854468699
94.6901675407799
94.6927017834284
94.6644881302078
94.6144029109746
94.6058640597636
94.6223214829931
94.6435009172175
94.6937082871022
94.6332210383112
94.5583414121903
94.5021485601077
94.5819055864442
94.687312508613
94.6650911656804
94.615187473914
94.681465819189
94.6389217977479
94.60749243097
94.616841586528
94.5789890278923
94.6071207200448
94.6556836470179
94.566778203148
94.530466408567
94.5347893921134
94.5073000010109
94.4631818089289
94.5260399646098
94.5555119762916
94.5666151314326
94.620072150845
94.5620167281353
94.4602760890438
94.4879202993654
94.5199629262289
94.5411903450901
94.5318406158753
94.5028060965993
94.4408275269883
94.4452546404197
94.4375632847528
94.4269003814276
94.3921418263013
94.4157041744232
94.4546263946087
94.4784589653323
94.4342229412414
94.3957960762058
94.434210680007
94.4664721134674
94.4283910190882
94.3824695358549
94.3874051287652
94.4087556700858
94.4493980691
94.4596944844716
94.409765909831
94.3713188169324
94.4156769557508
94.4164594578104
94.3739664894105
94.3703210353555
94.2712159785854
94.1744693791831
94.1303736420678
94.0562593798311
93.9494208151039
93.8522078031483
93.6373226214161
93.4470153473049
93.2450716409321
93.0339645899425
92.7802873156064
92.5272892883879
92.2738539025274
92.1087477832637
92.0169086736973
91.7511083810798
91.5011880146506
91.6308428124459
91.5793523540886
91.4759001656338
91.356841678093
91.1934356132708
91.104834821858
91.1467964512901
91.0195748512226
91.015584061552
91.2204820915166
91.3273239242676
91.2574722606617
91.1303314475169
90.9787922217661
90.8670819753139
90.8143354019809
90.6758496830532
90.4491021076392
90.4880683604634
90.2675958387177
90.1304587767211
89.9354712142392
89.5472534966712
89.1833938331785
88.882785422256
88.4885084025254
88.3034194744659
88.31620332854
87.969396336227
87.5264241355572
87.0216671684485
86.7259815309257
86.4922381811878
86.1007526065046
85.9113893272593
85.7068536686191
85.2269674928643
84.7341031361647
84.5330280402928
84.2760479356706
83.8498623301042
83.2979141026488
82.7424342516263
83.169959478273
83.3614393799227
82.681564125206
82.3662987265056
82.436420613872
82.2237448620132
81.8604621151134
81.4961996160446
81.0568409770735
81.0183482720864
81.4757552371421
81.342580349234
80.9606663495427
80.7492955645282
80.7748074760623
80.6947869085716
80.8259668979195
81.0052559081882
80.7746907915732
80.6189383418466
81.0777390399856
81.2299759621499
81.0160933303626
80.8630696225688
80.807259730809
80.7910855490398
80.7148683571353
80.6741439730766
80.6620426224497
80.6679263500045
80.6741302065368
80.7742692357377
80.9144695077638
81.0284367475304
81.1542961427599
81.3564944956362
81.5283762969021
81.7420118286475
81.9548794119609
82.1006616819768
81.9835834497131
82.1885989047584
82.8869963128165
82.9451030056545
82.7511440325021
83.0737665127717
83.3380694615446
83.3506993355388
83.365985817191
82.984003230441
82.6478348631649
83.7727136134711
84.0518974438339
83.9284735586464
83.8391292772405
83.7193967491229
83.8175995887556
83.7116473525885
83.6307294202922
83.5876276250942
83.573957835906
84.25168075014
84.536165649752
84.1423482964453
84.0529028802847
84.3057029946315
84.2598180564805
84.1009177689618
84.0789361520219
84.021568938728
83.8286796305225
83.979693714641
83.7975662045684
83.5414328120349
83.4883843727345
83.3223697412239
83.205557372993
82.9721783001851
82.963141178328
83.9675890165515
84.1924633566646
83.9022266381325
83.7436343663864
83.8005164826517
84.1123376240558
84.3880571728367
84.2755919538746
84.1727026311942
84.3902430330111
84.5898830392694
84.6216391897259
84.49041106664
84.4019702815656
84.319361783897
84.1132995839507
83.9103338655572
83.6782116308045
83.5950852235786
83.323607941017
82.7571234137951
82.2228588649127
81.9993874252388
81.8745944406605
81.4566924683764
80.9762786572396
81.0283844265751
81.4743454388899
81.2092266223267
80.8622950512452
80.5847106637077
80.5189947885261
80.5379484565714
80.4169248873396
80.2436270715954
80.055844625437
79.6792397943149
79.6015568640654
79.6986002132494
79.3202250282223
78.8884835560707
78.6492442005315
78.4168017872751
78.0280419643874
77.8129565197452
77.4876052626358
77.1797180078162
77.3766170820167
77.3271952343575
77.0702300347591
76.8604119931084
76.7684874525438
76.7192622698703
76.6249866375321
76.6847406667149
76.8570895221047
76.7546641080839
76.7676708566504
76.9593637913757
77.0040450474778
77.2990227813012
77.4192565175715
77.2532157716806
77.1179999640205
77.2770666794319
77.3531248526368
77.2594365707891
77.1672452072355
77.1431797613626
77.1317356900821
77.1084331543566
77.3605878583098
77.5456283558347
77.5656162441664
77.7179790704638
77.8223703436905
77.8414229147351
78.1258604970125
78.5206981341794
78.7101784214802
78.8012604703479
78.98338685554
79.2082867285191
79.3840160238561
79.573890120614
79.753140095275
79.9080537248212
80.0541293851455
80.1267673270511
80.2777241134918
80.5383035457874
80.7148430984429
80.7830017907415
80.818664888179
80.8688222368784
80.9305095290673
80.9903709155011
81.0394686602948
81.0674359544364
81.0915240276269
81.1386305400324
81.2135969304033
81.2690788740531
81.3107061604467
81.3766690698421
81.4296284858609
81.4705727501065
81.5490988818835
81.6339256670379
81.7273901663407
81.7972414789784
81.8405563788859
81.9176779349748
82.0113861242699
82.0671935513979
82.0715976354747
82.0415426484098
82.0447013220714
82.0545121084199
82.0392771493383
82.0048080957283
81.9330574546333
81.847178721476
81.7651868732448
81.6830070127827
81.5915891379219
81.5037235995813
81.3936725971544
81.2751305771789
81.1584161763845
81.0240237472223
80.8519660964222
80.7058730658927
80.580596453753
80.4314085262854
80.3075592770702
80.1953966695158
80.116560611446
80.0862353421599
80.0829731775653
80.0872604212695
80.1054781035752
80.1529984242963
80.2407064113584
80.340700605903
80.4530166056054
80.5738812031456
80.6764890884083
80.814970927923
80.9395867726058
81.0543261239159
81.1722838970472
81.2725911059997
81.365645922329
81.4793140660844
81.5906385817628
81.695338509924
81.8032464229264
81.9025132550573
82.0226063839571
82.1474443315983
82.2628116919979
82.3909930657203
82.548341151995
82.7086346852098
82.8500290363409
82.9811397598456
83.1077486242453
83.1909019321394
83.2057632312958
83.1762272059785
83.0890811781831
82.9083928433705
82.6681307005789
82.402947234756
82.1140669372953
81.8050447882131
81.4885374239058
81.1244143794335
80.6997776757573
80.3034117100083
79.8464574918747
79.3193801526808
78.7716810238653
78.2003315067033
77.6224946817304
77.0580255598324
76.5410207446923
76.088484755551
75.6713486962841
75.3216668453935
75.0614269985232
74.8560171785374
74.6869027033108
74.5514914640966
74.43148108532
74.3165516599046
74.1315878910026
73.8681964975218
73.5526233234515
73.1721218456441
72.7401104676317
72.3014535536867
71.8444479482453
71.4060130328318
70.9795633210323
70.5962210822116
70.2353703360325
69.892667902398
69.5447291335586
69.1831477328465
68.8359570858707
68.4821196374183
68.0884929261331
67.6893983320591
67.2966331548479
66.8969982433275
66.4625178151138
66.018649088833
65.5502805533783
65.0890088378055
64.6080985451122
64.123542556983
63.5727741071487
62.9803705278021
62.3492897639387
61.6616229652778
60.9375499914321
60.2467042093942
59.5628651982137
58.9099262680132
58.3252423120684
57.8531769554557
57.4431503322623
57.1046728432262
56.8314708664633
56.5558423309317
56.2627519217346
55.9734945206101
55.6196222178679
55.2362622199321
54.7996141522371
54.3188576876956
53.7989546688254
53.2307085813142
52.6082445235147
51.9684096541115
51.3173222825985
50.7198422120714
50.1637447256828
49.6785674633003
49.2753955503503
48.9252619011103
48.6229882485218
48.3773108822596
48.1561108679641
48.0029088563121
47.8894546599712
47.7865461027601
47.7050777466046
47.6890215149463
47.7204755309124
47.8284829910798
47.9824138479724
48.2292110549437
48.5601153213411
48.9366454557126
49.3469381953473
49.7789215857564
50.2061810681304
50.6376826237646
51.0372346220077
51.4448256515744
51.826173016261
52.1829613073705
52.5471018299153
52.9624311122881
53.4041411681466
53.8546723455279
54.2979328692031
54.7375955131544
55.1374357135219
55.5298284818336
55.9545181041317
56.4061826820784
56.8509985637872
57.3424828807886
57.8487165165936
58.3346586330663
58.8116764119717
59.3085204738424
59.8164235188996
60.3098959474202
60.7710797815419
61.2296634946077
61.7163899505942
62.2583838638964
62.7715465211657
63.2704971008703
63.7842677443228
64.2795621278862
64.7827723833712
65.3168681961094
65.8629859014493
66.3863254709853
66.8479230835486
67.2935674127393
67.73519099436
68.1590669358361
68.5380195964587
68.8560662644904
69.1263881761409
69.425216520015
69.7191213245671
69.9872453671178
70.2492632677053
70.5227623987066
70.7880518045912
71.025972911558
71.1994207486047
71.3635486637861
71.4871348231493
71.5745308258019
71.6014486886792
71.5895555135932
71.6092943538639
71.669242102537
71.7602845513226
71.8970308692118
72.0953749654715
72.3772765406582
72.6728683493075
72.9793782988379
73.2740041478185
73.490323206527
73.6547081317669
73.8031087713108
73.9198625572024
73.9931791935543
74.0100366532475
74.0301046705827
74.0602787896235
74.0860009171357
74.0747510374889
74.0789182891065
74.1234255191239
74.2316169506822
74.356345395496
74.4936372210895
74.6529603811813
74.8280269154601
75.0244439709283
75.1659038767911
75.2774661754729
75.3850940639166
75.4369657620074
75.4733082328668
75.4660055071562
75.47333834245
75.5081020255957
75.5540874955127
75.6139214452532
75.6391286181266
75.6253110045754
75.6141582472636
75.5659847017701
75.5062473758101
75.4309534358763
75.2912226886128
75.1346350839772
75.0522825000825
74.9223510402134
74.751937771705
74.6241704310193
74.5464647937606
74.4571677412617
74.4191961005637
74.4111782995216
74.4202772636959
74.4565488215377
74.4725347077295
74.4651007928371
74.4340943065481
74.3764408749733
74.3860080743785
74.3784819138994
74.3256471780201
74.2323157670139
74.1381563149225
74.0858188552345
74.0634853661709
73.9894293620685
73.8918539105823
73.8334059624605
73.8034981911664
73.725257512457
73.6589316170028
73.5863901484863
73.5233405928587
73.4310933322693
73.4000870706889
73.3638020625117
73.3175653753265
73.2793329669918
73.2546926701377
73.1946978196468
73.1317438668191
73.0704779883944
73.0258643921892
72.9098581054429
72.7725160980642
72.6695494477462
72.5340175453087
72.4023973749566
72.2487390041315
72.0454671728164
71.8864377255252
71.7196616671683
71.4859795999032
71.2317722817235
71.0482151890002
70.8682429663101
70.6869208511896
70.4415315339928
70.2503416474432
70.0920339936721
69.9681207539022
69.7940839244814
69.6067264006079
69.4739423410891
69.3670716632695
69.1889469595447
69.0713615433263
68.9278374684138
68.7827296085578
68.6999840249366
68.6397934134737
68.5794497020744
68.5250651194108
68.3834735675199
68.2145288075148
68.0895969951158
68.0084637105967
67.8357483185387
67.7000447474407
67.5378917134711
67.4222858957412
67.2819443600033
66.9986570311206
66.6652880013181
66.8447538962449
66.6580730740715
66.2976411204075
66.0783940732381
65.9305033016345
65.8072287793209
65.6469665290116
65.4364547878237
65.2780529963356
65.1011424686746
