1798
3999.43349933624
650.420452594757
1
128
4
94.4814479722033
94.3973633718442
94.3717923903147
94.43489099207
94.4597902934926
94.4811818189916
94.4347292592784
94.3784282157125
94.4299648405046
94.5515045923555
94.5059514550099
94.462881998484
94.5337893210854
94.6037734886722
94.5983381996577
94.5484398826495
94.5057197102073
94.4820098752201
94.4775873324738
94.5211192518571
94.4752263144658
94.4006546548908
94.4305748070055
94.5387268100465
94.6353005790663
94.623708935211
94.4885163277114
94.4725975947736
94.4837934342086
94.4615292494487
94.5270552120154
94.5704821298011
94.5806006872875
94.6608417777754
94.5995501631714
94.5332172840002
94.5510666853244
94.5427837919773
94.5074602929283
94.5251409134219
94.5170858067346
94.5308753314318
94.5915123526038
94.5997757024619
94.6252645509555
94.6734265354691
94.6294243596872
94.5738268514997
94.5155273519504
94.5884112956033
94.6767884259283
94.5784691667895
94.4314787109688
94.562028400344
94.7175745404019
94.7371578283193
94.8152473395946
94.8486107713971
94.7391417758234
94.6281710831998
94.5424928546176
94.5964019018498
94.6602392493219
94.631642313482
94.619747937018
94.7208202941975
94.7312155705481
94.654906520499
94.584000378673
94.5546970701662
94.6461574585934
94.8193976852766
94.6981409661133
94.5193840465237
94.6606861037194
94.8836773700948
94.9392676783875
94.8437818759294
94.5686626886104
94.5184766012305
94.6581981798552
94.7633181788051
94.9065861692512
94.9802474014242
94.8761245819178
94.7763586174175
94.6904601751399
94.6438703970584
94.6784760359338
94.7792362453635
94.8235637405817
94.8144098776707
94.8521260883615
94.9013139462948
94.8647366597088
94.7931616313022
94.8221515415984
94.8921898718395
94.862261954801
94.810471644893
94.8227116115467
94.9308564573473
95.0321199096569
95.0051378437516
94.7798545186239
94.7335579303528
94.8895469769208
94.8730378223413
94.8603919055399
94.9130562450319
94.9273969750113
94.967736899187
94.9982984116727
94.935880585572
94.8762787029789
94.9327589646282
94.9251903660362
94.8596133440007
94.8231506850114
94.921755410517
95.0215841330019
95.0451662703602
95.0577700171385
95.0164476384581
94.908679026171
94.8657033621895
94.983307474832
95.1564741679773
95.0763551929156
94.9493852031846
94.9751836654394
95.0107291820459
94.967558395677
94.9053155981254
94.8113450507563
94.7731863194301
94.9012587069548
95.0493066152832
95.0379178977021
95.1368643926537
95.2583220637395
95.2900887491575
95.1355498496987
95.0206573746894
95.0476222219743
95.1598080385996
95.1618122970877
95.1198619769441
95.0892879928671
95.0195672791463
95.0611511861819
95.2204094813129
95.2718272222706
95.2254333711921
95.1089042338321
94.9388164580175
94.9520553709187
95.1989001888795
95.3028018744834
95.2285071581285
95.1750606315264
95.1648972099676
95.1457705858354
95.2083829863741
95.2559939285586
95.3211165876827
95.2565930244479
95.0805461199313
95.0267986994451
95.1220460757236
95.1738272872536
95.2299445570333
95.3399866073084
95.2456108266039
95.0597209466628
95.1156322080388
95.1887579249124
95.1736378303191
95.0471532618303
94.990932296698
95.0127296509519
95.0581916616837
95.1317683001595
95.1023850736716
94.9064939892077
94.8826366419427
94.9810320833264
94.9034389518755
94.7061403996253
94.7008369440377
94.7110154953888
94.6683119420674
94.6566732233982
94.6828915236264
94.6101560365127
94.5554205518184
94.5684237609535
94.5350875825833
94.4094930589951
94.2387955378694
94.0480834352556
94.0090433158969
94.0835982304736
94.0926684820847
93.9471802026853
93.836820245692
93.7435209829071
93.6469333768155
93.6120713092422
93.637694853931
93.5543327925798
93.2822560820722
93.1417888834131
93.1763443492806
93.1333418316279
93.0920364307735
93.0291402570947
92.9703517337308
92.9204908473991
92.9068895593964
92.7036003136349
92.342234363453
92.1889801069604
92.2688807485638
92.3029728686696
92.1432802599384
91.944756946597
91.8335943118225
91.8057286320465
91.7760813577612
91.6298197011766
91.5478339586114
91.4567602027731
91.4655373902299
91.3523784606138
91.0431975136739
90.8931074500749
90.8564766788559
90.7037390464425
90.5926751398543
90.5222496976896
90.4848108446213
90.4669324969479
90.3444146470327
90.0766779180549
89.9665825214178
89.9560517592753
89.9216730065463
89.7118995479928
89.5218241943115
89.5061501129324
89.3773406721393
89.1249434887811
89.0803281688268
89.030463465615
88.8537715036234
88.7340243298488
88.6758471736017
88.5336142594477
88.4404696995787
88.4031428464463
88.2567289397375
88.030668801813
87.9231913316832
87.8532746457507
87.7223649441605
87.573441963003
87.4964105892748
87.4369890366137
87.3586831505234
87.250237076106
87.1793819504788
86.9742953132672
86.768553725958
86.6921500734519
86.6533522715553
86.620233854002
86.5445695664537
86.3827514120999
86.273258138993
86.147053035258
85.9347301458571
85.8402314754153
85.859319534248
85.7618931507411
85.5940949040971
85.399203630359
85.3433981863512
85.3097894802875
85.3062019606415
85.2794731953734
85.0778104162415
84.8859306380344
84.8781857196847
84.8502163918367
84.7653934599087
84.5919014941343
84.4194886720482
84.26230130326
84.2104284069904
84.2097567463822
84.1168528941748
83.9610981458541
83.9055683784202
83.8077409358344
83.7524075218849
83.7036387670943
83.5920640881719
83.4751191830925
83.4267642434288
83.3552233602323
83.3220171750853
83.2611154421572
83.1678104576514
83.0406903985648
82.9487794478076
82.8568851906637
82.7428646681663
82.6536745903172
82.6647842005539
82.6275867638262
82.5172632548448
82.3089764278765
82.2252707077233
82.2068620407275
82.1114843267495
82.0281608853128
82.0675718155077
82.0633294071409
81.9855411240777
81.8862447970747
81.8513584804206
81.8264089707971
81.8146011649982
81.8024683014353
81.7552734569742
81.5405377399284
81.3591277803681
81.3371991473909
81.3941159022714
81.3748536822255
81.348824351829
81.2681125358899
81.2000451550067
81.1839759672905
81.1989974479421
81.1307502074544
81.086776549029
81.0904328000979
81.0846411600911
80.992259574796
80.9582623342075
80.9401991521913
80.8458670504257
80.8136777860257
80.8200299762023
80.7665971011044
80.7735612089104
80.7669788814039
80.7255547002255
80.7231687331409
80.7250730171458
80.6545428960256
80.6120521021019
80.5871763044035
80.585405183326
80.5205770462304
80.5432478411588
80.5765021576644
80.5806330795778
80.533930073284
80.437748482545
80.37615788252
80.4349814060072
80.4137687189212
80.3578183609338
80.3652956336919
80.4268017916182
80.4497278832851
80.3863399935005
80.2725335844697
80.2333395192638
80.1747333225533
80.2193819171916
80.252591072454
80.2998770081094
80.3162803825269
80.3676207261539
80.3678015044293
80.3369687797212
80.3489954827401
80.4293466582728
80.4389978286209
80.3638931236867
80.3116295505741
80.3020938365402
80.3358364718409
80.4236474490193
80.3808205034291
80.3319935366262
80.3528934352916
80.3494411403369
80.3822935557267
80.4780377071665
80.4855315359548
80.4612123277336
80.4200384362547
80.4513063566575
80.5022758395686
80.5385004993929
80.5864680054749
80.6971570230862
80.7662197457907
80.8507372599453
80.8355259076725
80.7858471859013
80.7661337791537
80.8667712908287
80.996634787859
81.0632891305433
81.0206982524714
80.9886559588643
81.0314548064439
81.0733100051584
81.1102180964855
81.1709749955413
81.2229506799322
81.265396926702
81.2965903371144
81.5148414853249
81.6025443691654
81.527370156148
81.5842439709651
81.7142206013292
81.7680790079986
81.7818649423235
81.7315905689136
81.789150998434
81.9418245867751
81.98867726229
81.9889572881692
82.0853345493593
82.1519658973671
82.2311401643452
82.2704477965729
82.3007996622903
82.3619274526634
82.4679405138933
82.5877798949323
82.6552724371123
82.7037577859466
82.824703587913
82.9211332014515
82.974006742902
82.9335725304064
82.9496969416511
83.1197472038745
83.2541828803046
83.2962637628932
83.369897195264
83.3796278906678
83.418943587394
83.4958832598902
83.6309906205457
83.725207434909
83.756457856341
83.8306728008748
83.8990764249563
83.9425758600672
84.0804009985251
84.2124047390292
84.2673144943954
84.3490609685729
84.4481125660629
84.4388144720499
84.4598066817996
84.5655522735317
84.713136477242
84.8297320470314
84.8818623698195
84.8671177126448
84.8833363836263
84.8994581080948
84.9484542523765
85.0677908930841
85.222022341214
85.3077897557767
85.3473500810811
85.396087189296
85.4602991928946
85.5227801192231
85.634556012719
85.681444426003
85.7530926129391
85.8107151075715
85.7962179321646
85.8809774971807
86.0101440590787
86.0153339035483
86.0086518931219
86.0387611477571
86.1702867284075
86.3366005154066
86.4199761260933
86.3971626738653
86.4213538562033
86.5292344320215
86.6504681766697
86.6935974286688
86.7346655519359
86.7766827995469
86.8561663285977
86.9367027215188
86.9942703473087
87.0385200661366
87.1482244270716
87.1846318457736
87.1865776639453
87.2931576679025
87.4240785730201
87.4465524368732
87.4123134377766
87.4175210094832
87.4730497754156
87.5431751261239
87.6915077956526
87.8278984002338
87.9020761720915
87.9331660394175
87.9192381783394
87.9322669694039
88.0279262881232
88.0734449892491
88.040283981821
88.0198365913114
88.0656278735919
88.0755685994025
88.1404549321286
88.1901439652117
88.2010088741148
88.2417770132888
88.2866690987949
88.2506698844983
88.1910875520616
88.1332739568537
88.1184809296137
88.0806532315024
88.0535846653804
88.046162243719
88.0037144172517
87.9070834423695
87.8696272783256
87.8369439961841
87.7763618951141
87.7201925883532
87.6794587117897
87.5846722348138
87.443241603845
87.239893679032
87.1181365295648
87.0887347699235
87.0358869261605
86.915128285075
86.8184354647966
86.7342564715553
86.6338605599039
86.5069735221791
86.3914070529039
86.2136419582927
86.0603561434644
85.8679995977189
85.6668407197849
85.5722050074316
85.4726723438353
85.3090595506021
85.1336494796308
85.001273200629
84.8973424746488
84.7996587848224
84.6688675786275
84.6210048745474
84.7116593522204
84.8427753203765
84.9763736274118
85.0581508926904
85.1916810580239
85.3493491596215
85.4545054280563
85.4803719586474
85.5376535097887
85.6401793770141
85.6907178332036
85.7110529375115
85.736818280034
85.726630255616
85.7746122885468
85.853188028809
85.9170651780494
85.929349490848
85.9830052768534
86.0389090368167
86.071828326158
86.0678368268111
86.061781021848
86.1095688333845
86.1671035621562
86.2362684879697
86.3323733089527
86.3586440492119
86.3818514338668
86.4477612378873
86.4835425885426
86.4581089750967
86.4365482630084
86.4040083140179
86.339610380617
86.365819383794
86.4822708241227
86.5768014163467
86.7464728196172
86.9058344477353
87.0480535059568
87.2526459248769
87.4539503566748
87.5880169452909
87.712130396245
87.7758472013727
87.8693726638337
87.9776741405018
88.0807923435541
88.1338584248095
88.1613125999945
88.2321019522908
88.3404641936346
88.4090120141935
88.4400471769955
88.5111417416787
88.5849859631644
88.5921684634035
88.6445916652821
88.7098887875628
88.7657887269827
88.8148936895178
88.849999286364
88.8521621737967
88.8966255715564
88.9752230561181
89.0323436799919
89.0710688121184
89.0715580488882
89.1099893899192
89.1944544072078
89.210484296538
89.214710147819
89.228630046545
89.2328788872876
89.2607222337394
89.3264914564195
89.3710767841338
89.4055803548089
89.4204414114618
89.4409730987809
89.4494132387107
89.4538342668923
89.4582125253938
89.4485678374809
89.4684007909064
89.5537205830762
89.5892523297162
89.576300916439
89.603527694035
89.6258369841366
89.6210790352647
89.6849767704773
89.7273747957103
89.7037406315696
89.7368748015881
89.8053584340262
89.8101525762404
89.7970889319395
89.7793740945568
89.7824339444137
89.7844971877503
89.8420988277269
89.9483907252648
89.9644510177246
89.8777581904016
89.8612173317826
89.8897854598667
89.9318124359208
90.0016469452506
90.0353442416689
90.0602788226452
90.0517051225211
90.0361177583666
90.0475806515829
90.0308706707097
90.074729441862
90.1307025440984
90.1404021400494
90.1346840784908
90.1256700019102
90.1428837850996
90.2023945193312
90.2345753894102
90.2496389046986
90.2460940676998
90.2456380529964
90.2633363865454
90.2929295770854
90.3147798628383
90.3491045770877
90.3682650268914
90.3813760384052
90.3673984824482
90.3777180257381
90.4204629704532
90.4261301908518
90.4146268940383
90.3945469754008
90.3436183151158
90.359079952799
90.4172817493339
90.442508968139
90.4612064040367
90.5130963990824
90.536016725765
90.5310135289557
90.5258960931406
90.566405115522
90.632708155356
90.6750715703255
90.7172443631067
90.7405779926683
90.7230275101586
90.7535471529896
90.8212340510355
90.897169911418
90.9354988496722
90.9807539838257
90.9713115694493
90.9816697871787
91.06244812001
91.1396074423386
91.1718198554091
91.1645291645078
91.1338237519479
91.1494939432188
91.1822832712413
91.2355856691541
91.2563806222877
91.2454596107441
91.3060160810682
91.4095813184907
91.5061478181035
91.5239092221203
91.459734461103
91.5063898356027
91.5076492496417
91.4884930830287
91.5736477446516
91.651128399833
91.6623872948312
91.7068672049702
91.7071070900356
91.7258150665605
91.7502497661421
91.7363795852645
91.7650090957864
91.8029381397021
91.7619935278053
91.7636756350951
91.7869155611197
91.861650042594
91.9361540194861
91.9886243302017
91.9847674566912
92.0181817197509
91.9853364198535
91.9056640247338
91.9907596352029
92.0580378981744
91.9723406566777
91.9936254460285
92.063899680901
92.1576811607473
92.1869082483636
92.1346891222797
92.0853439704233
92.0953383791162
92.1529539511795
92.2213390336605
92.2239425713227
92.2246536328638
92.3132387785745
92.3162434669182
92.2283800016274
92.1746635697362
92.1274717455856
92.1298256646054
92.2050510915445
92.3705036712496
92.4526333040704
92.3718876011777
92.2340447100679
92.2416941737908
92.3087855082008
92.3700569824821
92.4643865391143
92.3890665152886
92.2684686598503
92.3200590756741
92.3933370437994
92.3869142757412
92.3602407303568
92.3781169007108
92.4364527601564
92.4451470916312
92.4051295505842
92.3894393641336
92.4094476060046
92.4349918986092
92.4715401072198
92.5092837075097
92.5147638137273
92.5106765156791
92.5281769797174
92.5846368439498
92.549269713215
92.5160212277388
92.563050821934
92.5386420054757
92.5317515047602
92.5694009041951
92.602126679141
92.6579073631465
92.746925739865
92.7628429305314
92.6784362678822
92.6029290258264
92.6371875392254
92.7172768104737
92.7793617327407
92.7293353618977
92.7091495075979
92.7295495504674
92.6800067653172
92.7108889969116
92.8179019143819
92.8027641313816
92.6837149304448
92.6809131476922
92.7879303006938
92.8453332942231
92.8304433183167
92.815053656134
92.8532950752734
92.809149865062
92.8235280045321
92.9026039732663
92.9053027579684
92.8890736425826
92.8802955453159
92.9062592213016
92.8530288729864
92.7714239091298
92.7929637168378
92.8299195660615
92.8262835766221
92.8148409319462
92.7979829598102
92.8232255796183
92.8485695329112
92.8997578529599
92.9860595456589
93.0786142482972
93.1079100635738
93.0597137389838
92.9720525766258
92.9771242897412
93.0777346497509
93.0223070145704
92.9255224677224
92.9488984141542
92.9443257011176
92.9238216002347
92.9601125510605
92.9467977940394
92.881793171931
92.8815604968281
92.8896012587173
92.829235020213
92.8093940494383
92.8697040084497
92.868763180868
92.8617138515758
92.8645857408224
92.831048507847
92.7632364846343
92.6138092875628
92.6104087320755
92.7895049272044
92.8611237048823
92.8696270832231
92.9130819659794
92.9124613216648
92.913264096584
92.9227563532691
92.9807264302159
92.9679959497388
93.0195898766298
93.0219999712152
92.9909938339574
93.0653434078557
93.0321738958493
92.969082554478
93.0809739475532
93.1646709806798
93.0822615790288
93.0827602312633
93.2015626199946
93.1734491830885
93.1575586000117
93.3635695510851
93.5362959423206
93.597622695664
93.6649328027038
93.719199539571
93.7814337563591
93.7540492522114
93.7694241046523
93.9820241611506
94.1132825238693
93.9505705215483
93.8330816677028
94.0245099675497
94.219286018139
94.2957486080228
94.218971372881
94.2079454257721
94.3169742692564
94.3101920301614
94.3881830488939
94.553112861002
94.6784446395519
94.6765343603808
94.7087827599101
94.7161085759476
94.7676120745595
94.8408359940284
94.859258965414
94.8803290184949
95.0094270957124
94.8943721469073
94.7581802938366
94.9446063738235
95.0550645651812
94.9404971494223
95.0785702908013
95.4504397016361
95.6193562074796
95.5673583080948
95.4012822735396
95.3689339546442
95.6241768548251
95.7224761278958
95.6306751056075
95.7711646926608
96.0215288776001
96.0755866172741
96.1590373946096
96.0881563297103
95.8655321330219
95.739495026864
96.028555444687
96.3527836367704
96.6287321822862
96.7268596701299
96.5821213338571
96.7553850653089
96.8676372746368
96.7790517334108
96.6205845812486
96.7783625075938
97.3712694116196
97.5570975500863
97.4600972107839
97.9211782988258
98.6223146641497
98.1786689149034
97.1524242767468
96.9195489006694
97.139797587108
97.1038978376104
96.7188471459702
96.3840796424367
96.1753542213613
96.0156199720204
95.8079598952281
95.7294320067969
95.7537327296979
95.5732697244165
95.5485602701081
95.3753281344025
95.0809792806212
94.97016282107
94.9300581131173
94.8394828918972
94.8116413232923
94.8052564755624
94.8439326503595
94.8256413620317
94.7315017249206
94.6455303981129
94.7566572247563
94.8871221047573
94.9364875293059
94.7965760987057
94.6993663496564
94.6631843754165
94.7939263514423
94.9287325498034
94.9812959794351
94.9324251668487
94.9522821914644
94.9180444921054
94.9034900103694
94.9600841408203
95.0135184669662
94.9773458779858
94.9691257145511
95.0488516005232
95.2156494827746
95.20834767946
95.2916634789702
95.5596983492198
95.6606970516276
95.4889242671318
95.5019213850144
95.5046928755563
95.4605009602733
95.5434373357802
95.8319292326788
96.0064899677181
96.0630310904385
96.1115718593571
96.2577786858533
96.5813804881387
97.273635266985
97.59801274613
97.2643703773458
97.0090943486995
97.1456952572293
97.367815128622
97.8250445229812
98.1760665349623
98.2105837117389
98.0072823124411
97.8344064665706
97.9020551638831
97.8513843378182
97.6108966608083
97.8130521837
97.9575917163948
97.4088155786599
97.1701170667681
97.5734718008316
97.9145338342323
97.9155887702923
97.7113530218225
97.426166465273
97.0824302406882
96.7018238459078
96.509245068328
96.6020830722108
97.0081984427318
97.2365204521161
96.9718936655786
96.9576049913745
96.8714950477035
96.957503690253
97.0721453436106
97.028729045412
97.571319494685
97.8501113745749
97.6197035477885
97.4239819787548
97.5530586721528
97.8437074614014
97.5666896450704
97.1740799719614
96.9712683033852
96.8890115385808
96.8071761895473
96.8452322588109
96.8389964593387
96.6869396924139
96.459212115718
96.4011257065248
96.2845119219951
96.1645984234115
96.1519606357863
96.058991860512
95.9868108139996
96.0193054480679
95.8455153824091
95.7409522957086
95.7109325019702
95.570753897585
95.4284736313568
95.3974676756812
95.4856050649936
95.5222254229152
95.3475074906856
95.3819734668494
95.4489395846078
95.342230356005
95.2244475438744
95.2215857511778
95.2330781362114
95.2884426453295
95.2174045568941
95.1099162890934
95.0547983599492
95.0479454735201
94.9827496534439
94.9866517447484
95.0451322690157
95.0849021682549
95.0128903865398
94.896576796821
94.8164360544678
94.9251186172381
94.9623451716397
94.8991150971263
94.792674979249
94.7875740703819
94.8538118280388
94.8275514632593
94.7815263055056
94.8509897554381
94.9095662650443
94.9045077951206
94.7973533215963
94.7054490694654
94.7573628163765
94.8008677617604
94.8087594294432
94.7608416882493
94.7223128459068
94.7878008183028
94.8227532817159
94.7814560390325
94.7844899215701
94.7585639531488
94.6941970164268
94.6729403652193
94.7236513213102
94.7232879490184
94.7025222890031
94.6754625854082
94.6727912525448
94.7125660078507
94.7269173022452
94.7193556263785
94.7245364097712
94.7417567828517
94.7199384406003
94.664777727049
94.6566934547934
94.7178816812217
94.7391439104484
94.7308677408397
94.7007628544531
94.6594978122209
94.6336797376418
94.6583503572429
94.6776720761789
94.6680601929402
94.6421760028354
94.6141877022125
94.6112242046354
94.6764334458917
94.6740766759062
94.6355097057064
94.6415905279298
94.6644370835747
94.6704595621478
94.6430087355973
94.5784340853162
94.5503757011179
94.6073419568426
94.6914418289064
94.690067488163
94.6637315488998
94.5767465809905
94.5561600147502
94.5356289358029
94.5403594978161
94.5187575057006
94.4490894142867
94.3353738489413
94.229927404687
94.0608309632318
93.9204907512877
93.7196322597485
93.4610739257018
93.1755748978822
92.8927362759339
92.6274153044671
92.3982143556452
92.1553927824172
91.9229185769989
91.7443970597023
91.6012638965103
91.3556392980357
91.2656393439511
91.2080818057946
91.1660309324349
91.1392519178139
91.0675028078462
91.0554009182781
91.1741230690696
91.2031801401016
91.1613694900509
91.2388983186973
91.32170964295
91.4097389134071
91.4105073311424
91.341796062187
91.265095170506
91.1979337292189
91.1894716317974
91.0382305685906
90.9693487515964
90.8239113017023
90.5992347834788
90.5456189841462
90.3118781034364
90.0782643579377
89.9354459658552
89.701170237979
89.3128119815958
89.1213110929613
88.9081182989727
88.7096525294097
88.446320632246
88.0843072193998
87.8966959479274
87.594581139816
87.2630526744831
87.0793827317271
86.8139668547644
86.4538755990511
86.1543288023284
85.8875160256848
85.6374800171833
85.3748696148081
84.9203833808493
84.7123785599739
84.9228595388719
84.6963398914983
84.4348162675107
84.3832412926824
84.2563022127953
84.0564930595937
83.9171535986795
83.6627714138074
83.3668616076864
83.4635768754304
83.4796091799025
83.3398806374215
83.2239447176458
83.1769263770161
83.095744140947
83.1049899905077
83.2602541772569
83.1991664730231
83.0779161723486
83.224241151301
83.2897547720705
83.1780399466968
83.115711028462
83.0525382927598
82.9930075032526
82.9180257998112
82.9158266737209
82.9284495593451
82.9265466863809
82.9485146742604
83.0414247541872
83.1810604959311
83.3179909478364
83.4373208989202
83.6096848370299
83.7750876666992
83.9380013708055
84.1194998354577
84.3090356028921
84.3030548112793
84.3351712724165
84.8566789017083
85.0687931550889
84.9936113718723
85.1445792800833
85.4041314983118
85.5212000925794
85.6829336551454
85.5648706981938
85.2574856877223
85.7953312826607
86.1715399060145
86.2074930992928
86.2619867359586
86.1939664042984
86.2807919820529
86.2592839492184
86.1818487526151
86.1979444305581
86.1126180498902
86.4277590206414
86.8403158724217
86.8067416962681
86.7377744805578
86.9221221303898
86.9702223295645
86.938013452038
86.9810046797179
86.9968414403618
86.8296890927214
86.8147104754953
86.7748954018912
86.5585523991176
86.5610715014512
86.5861143805162
86.6905281407309
86.7341666694551
86.6135258049115
86.9889683728963
87.3894914683369
87.4635313251334
87.4819770570478
87.4738810320346
87.5926806470431
87.8522821771527
87.9325318957213
87.8973253404534
87.9902447358323
88.1300116519631
88.222034853014
88.1908008902827
88.0690510044819
87.9481271629712
87.7669275609167
87.5465464171219
87.2585914044417
86.9047811606576
86.6222352372023
86.2559621567922
85.838238991565
85.5078627082574
85.3830722569205
85.2011432768241
84.91675398663
84.6864283401526
84.7569148981815
84.7209891498378
84.6420762505426
84.5225208212141
84.403664215782
84.3897494995163
84.2974816629859
84.2036333908065
84.1130151340668
83.8867307599644
83.6579995073057
83.6325993844584
83.4429217176644
83.1485216723981
82.9087357623852
82.7152221542053
82.4467363122292
82.2569943716246
82.0823750512736
81.7923175352795
81.7374556874341
81.7450414587788
81.6190997890513
81.4982946852626
81.4202483798022
81.3842996675811
81.3026958420461
81.2895690523526
81.3768620972061
81.3451986626363
81.3171220916643
81.4381386058088
81.4384801330248
81.5060921820746
81.5653977484626
81.4672141021417
81.3325295919099
81.2934677223622
81.2417852672719
81.1003808250295
80.9800409003145
80.8612420652775
80.7778427848866
80.7348307909489
80.7753515050198
80.8191252454396
80.8016683967328
80.8661808936619
80.9389847563851
80.9362081414042
81.0890430302641
81.3425017201997
81.4755532466198
81.5723883640292
81.6873059788156
81.8145291430406
81.920304731
82.0243748856635
82.1550057974784
82.2908786222012
82.3982027187335
82.4516612317272
82.5254390030913
82.6660087038326
82.7770788017027
82.8626879452546
82.8976240953101
82.9338051389536
82.9855963085231
83.0165245530493
83.0282774767633
83.0530238720598
83.0851280190705
83.1062341703455
83.1326431718634
83.1459933679266
83.1328229393854
83.1353488353786
83.1527902238207
83.1646148470937
83.1820209083723
83.228191869306
83.2583451077171
83.287473970264
83.3246814303181
83.3631054733738
83.3740336506949
83.3789502432943
83.3986528905997
83.4116309718968
83.4133980086725
83.3914521511935
83.3504749370973
83.300735236406
83.2505841522853
83.1800693866477
83.0949902462837
83.0145841079092
82.8897024031813
82.7616042967785
82.650419836172
82.4989510002386
82.3507218037842
82.2049579845534
82.0408940179343
81.8815616722434
81.7308657898005
81.5903140885486
81.4786912823864
81.3795280094314
81.312602924092
81.2787762256327
81.2491227020766
81.2428730346812
81.2744330923363
81.3384762976199
81.4211093075928
81.5361993682802
81.672796449505
81.8071859428008
81.9383359645661
82.085205890465
82.2363846303077
82.3930496962831
82.5464105975292
82.7092948035037
82.8743621148431
83.026091806463
83.1914106128463
83.368681981174
83.5178870997621
83.6527465952489
83.815905758252
83.9963484397956
84.1543224095885
84.3112801059892
84.4911199249961
84.6903351080391
84.880755370187
85.0419290557409
85.1907729975732
85.3057790941251
85.3665640936689
85.4059640992777
85.3682410434546
85.2470052228515
85.0936194685373
84.9126509545013
84.6820871927102
84.42338500015
84.1685761358257
83.8815334150358
83.5499347996615
83.1835628497633
82.7642234914637
82.2974671860334
81.7951814898516
81.2872471782787
80.7764169838266
80.2833513165412
79.8248443481667
79.4282853409255
79.0900002284286
78.8211999271721
78.5950345651703
78.4099020307838
78.2710425944133
78.1924141594968
78.1310183751807
78.0521264212643
77.9042416367366
77.6975724024913
77.4659682417395
77.1801590070503
76.8219358917329
76.4133968006367
76.0142752673382
75.6609890278993
75.3401275424284
75.0212165924
74.7120535300029
74.3825737097567
74.063895716188
73.7746588165473
73.4309429424134
73.0597986415602
72.6784054858382
72.2597758877689
71.8388055044537
71.4471289993545
71.0366442269708
70.5919094741677
70.0996608295203
69.6093620484922
69.129619536824
68.6252837429419
68.0584321774189
67.4555524190995
66.8253146189832
66.1690590009706
65.4677420916759
64.7721734760694
64.1213479135838
63.5276240118194
62.987260283652
62.5500750867353
62.2053815481475
61.9218769137667
61.6353070942691
61.3348502991576
61.0023782840998
60.6722320847336
60.2614653406418
59.8197533796855
59.3457014764489
58.8775913338557
58.3314870095632
57.7500377758855
57.1807285989468
56.6129787227423
56.0322849735238
55.4982307142796
54.9984811705823
54.5747073916598
54.1953695934488
53.8638246595562
53.5894065714523
53.3577156365553
53.1520658066646
52.9890555125209
52.8371901787887
52.7196278726036
52.6423612183891
52.6455005290172
52.7004221533057
52.8327986959827
53.0273285995387
53.2679708568327
53.5659284621535
53.9372332232804
54.3206231168637
54.7176111613633
55.1105844802419
55.5026769058789
55.8754702741049
56.2489529809651
56.6206651692577
57.0075306476553
57.3575743742377
57.7619467290975
58.19143910282
58.6262599480138
59.0493046032981
59.4653794819313
59.8783089069266
60.2921214645621
60.6783035240447
61.1103163842169
61.5627002377991
62.0241996755411
62.4812880435106
62.9165472174962
63.3449694911547
63.8172366219451
64.2669389449838
64.7188764943312
65.1436435197803
65.5848765617606
66.0595408346532
66.5467754219467
67.0329522483053
67.5373985062184
67.9842393188313
68.4029527264208
68.8447484561886
69.3231313444542
69.7830881806975
70.2522570015076
70.6821306163205
71.0786457590343
71.4302137777826
71.771467520611
72.0688193258794
72.3445300529861
72.6145535542394
72.8700432928312
73.0840625598045
73.27615691302
73.4931291442721
73.740428487139
73.9551552429506
74.1387759871017
74.2897666395316
74.4084758538909
74.4641291962437
74.512715990617
74.5794511721456
74.6134902175139
74.6427201699856
74.6920702855874
74.7630069550956
74.9089978091261
75.0854159276808
75.3011184157491
75.5636531376756
75.8277487045888
76.0455701291553
76.2915245183665
76.505076750329
76.6790389840363
76.8032905531938
76.9551862301505
77.0832292341537
77.1589031685387
77.2171819741667
77.2724331680881
77.3818466762631
77.4688328487518
77.5468617364558
77.6531373424193
77.7261078058038
77.7903333808793
77.8536764539428
77.9282088621656
78.0136868756242
78.1193534940773
78.1671289132501
78.1923874431266
78.2372355103691
78.2324035280779
78.204804669457
78.1978675598372
78.1955084466039
78.192495294258
78.2014718774416
78.2201132957774
78.2587184487322
78.2545226225403
78.1721510987922
78.093006159645
77.997054750277
77.9210849272735
77.8509199958026
77.7627681055501
77.6336152321341
77.5226157239235
77.4588071549823
77.4016538173533
77.3524098157062
77.358164319361
77.3927089906735
77.4170043546368
77.4230270602039
77.4430086141468
77.4600974463346
77.4797724674073
77.4923129291804
77.5206395552916
77.5027891257557
77.4874075062659
77.4205685248267
77.387518483085
77.3486519771194
77.3053491887066
77.2574780341632
77.2511015268402
77.1935798720493
77.1105502119889
77.0763524333416
77.0639542533504
76.9997082747687
76.9044989619514
76.8505589605693
76.7966483897637
76.7706684294253
76.7985236421786
76.8123839940765
76.8315083630506
76.7711843865227
76.7083302354179
76.6683338414232
76.6758820026547
76.6014816562528
76.4597811616371
76.3618459169717
76.2818179860304
76.1539021887518
76.0221294196636
75.8963416330111
75.7318141553173
75.5311712557338
75.3385448668912
75.1112851595609
74.9222694183118
74.7521351042286
74.5940227131962
74.4273995073206
74.2500900695195
74.0948364674516
73.942466807889
73.7721179814175
73.6977447312114
73.5910808601862
73.4707002310392
73.3173635516163
73.2142100576512
73.1236038735881
73.0241760562643
72.9604368616138
72.9226953760561
72.8186219000474
72.7323641673103
72.6748361346343
72.5719302637603
72.376480743737
72.2351896393855
72.1156762875098
72.0115972339892
71.8667917047043
71.6957192615558
71.52222126913
71.3534225568764
71.1388802921669
71.2205828337139
71.063237311773
70.7657715959299
70.6174365151172
70.5157366175501
70.3247078557968
70.2156716111448
70.1502425467266
70.0642218777682
69.9329484590188
