1798
3999.43349933624
650.420452594757
1
128
4
96.2739521317142
96.2652217276888
96.2177425206824
96.3383412876933
96.4459342789493
96.4430206659996
96.3753615210635
96.3982844998238
96.3362082536855
96.243538303001
96.38298022986
96.6007170964081
96.4677579429155
96.3369774201052
96.3500672842181
96.4137732376236
96.3723254647128
96.3408464066089
96.3773559530087
96.4866679069216
96.4294004576465
96.3060587104213
96.3588504802208
96.472632717882
96.4548086969113
96.4805363867976
96.4441366405533
96.4066144960567
96.4188324479226
96.4590464905595
96.3875507483302
96.4535505473523
96.48276784063
96.3899933631624
96.3993062452717
96.5192892514113
96.4424899303799
96.4089500223812
96.4699243987603
96.5277098767357
96.4974712771644
96.4652658673252
96.4205342880607
96.4648637680671
96.5220137417064
96.5190350192105
96.4778935882346
96.4664024180751
96.5341535494071
96.5541831025438
96.4535356069877
96.4695082220521
96.5169961819376
96.5905591060375
96.6224674749426
96.6064884686539
96.5848163440877
96.5430473175899
96.5148585408883
96.5807958122336
96.5601935940207
96.6124153067058
96.6329087339463
96.693051809214
96.6724717848365
96.6764941954346
96.5936382135485
96.4495617426229
96.5118957419194
96.6573452874624
96.5108392207074
96.5286672206949
96.7417866149573
96.8207059498484
96.7505851838725
96.7109871102691
96.5830919060628
96.5555165379171
96.7571762777842
96.8536540566719
96.6519020169185
96.6432815847437
96.6653444905765
96.7036128265102
96.6878130045782
96.7143914624855
96.6252957774224
96.5670704950477
96.6867036256654
96.7639252060623
96.6819185042296
96.6033071421779
96.6719911090898
96.74185205869
96.6244295885937
96.6102614205877
96.6711849553176
96.7355699841905
96.7138016185309
96.6596892322521
96.5975781574863
96.5723945237775
96.5416034381927
96.6398217565086
96.7437284050875
96.7781396189102
96.6617762993614
96.6435866881917
96.669418326815
96.6869903023533
96.6350129398512
96.6389585319321
96.6304274396759
96.5721184317759
96.5779745152696
96.6247697699457
96.608473735437
96.6458171231895
96.6781140234247
96.7529328536194
96.7861766782912
96.7333432528879
96.7171888107971
96.7730094868923
96.7209608166826
96.6881543277545
96.7023536275541
96.7385177631264
96.8152897939978
96.9444831330266
96.8841080791892
96.8389549815316
96.7648494703895
96.8406146349014
96.9949309694248
96.9448736673335
96.7955823002507
96.8054351466208
96.7763859376685
96.852303103388
96.9071351715698
96.8021290818133
96.6282363983229
96.6848511937654
96.8667628061715
96.9331411874247
96.8290108648017
96.8147062513431
96.7615711914584
96.6830959026672
96.8028836233519
96.8664879989982
96.790475129912
96.9207426699271
97.0239992478185
96.970846630574
96.8395748938903
96.7902290755376
96.8166593559802
96.8050629157343
96.6728224047544
96.6807235394668
96.7302470728634
96.770986291836
96.7694194227131
96.771960187697
96.7494117467781
96.8121938110899
96.6730158918511
96.6102851657715
96.6127399498935
96.6642361126932
96.6358661574702
96.6527598004721
96.5388479907431
96.4328414439225
96.4098558748876
96.2581716204453
96.0687395028574
96.0365974986767
96.0888978505123
96.0984025635747
96.0571519827809
96.0384441045987
96.0139227184471
95.956293664801
95.8896614034461
95.8699845770352
95.8393381930604
95.7110695877126
95.4721766600724
95.2394699598462
95.0823982953179
95.0704241672437
94.9837729614322
95.0637103185985
95.0212691161279
94.8775954931821
94.9038606329236
94.8605970565962
94.7274330349402
94.5744790979028
94.391143790222
94.4136312422407
94.4559205349304
94.393647144899
94.1944560647558
93.9208998212467
93.7800975089032
93.7372895382873
93.510770161056
93.3928095679004
93.241447511846
93.2430225757911
93.1746361122368
93.1367135125653
93.0838835075044
92.9788254822749
92.7240979288748
92.5257662998276
92.4745213491074
92.6056035178958
92.4961021462097
92.1515503034258
91.9958279922713
91.999251330946
91.8908652877011
91.8182653285605
91.6609962937605
91.5094223759218
91.3456108448018
91.3607907896065
91.2857744457255
91.0998375786955
91.025001230428
91.0085512636689
90.8272490154856
90.5986380402268
90.4840266478518
90.4787718464567
90.3550516208368
90.2321607780209
90.1427040498831
90.037004627902
89.7771692443743
89.6352226050372
89.6489877995555
89.5944361170533
89.3380924027523
89.142755607571
89.0835367718111
89.0978691711331
88.9488163201807
88.75359066149
88.6329448735023
88.6310694361217
88.5267752107848
88.4178016178397
88.2085466301868
88.050061697048
87.9400184021127
87.8984118885194
87.8226615359271
87.6075726602127
87.3813692531123
87.355422976936
87.3169325131681
87.2628546276582
87.0602671143746
86.8775951504677
86.7478296155866
86.7862185906292
86.8198336823349
86.835620154754
86.6303946465576
86.3899177954005
86.2654818461139
86.208922590366
86.1105641749195
85.91203163351
85.8166760978345
85.845177574456
85.686153491322
85.5660993003938
85.4319046045616
85.4475129729296
85.4032130293491
85.1659488858692
84.9751593284448
84.9789992725959
84.9918136808605
84.907675288332
84.6599001212945
84.6392967895007
84.5853836637595
84.4747108722555
84.4687350386289
84.3517335621177
84.1616305420346
84.1145625784407
84.0096246391467
83.889625434371
83.7363672552601
83.7354904327924
83.742380801166
83.6244728427147
83.492775810402
83.4217241157794
83.3631459450949
83.281758752539
83.0653371888741
82.991485893192
82.9457927889197
82.9254327922381
82.8144117249674
82.7013358974267
82.6204556933712
82.5887306621157
82.4961702014841
82.4888146868409
82.4054465061195
82.3530342760012
82.3027372543343
82.1557410204697
81.9902654112194
81.9824654213488
82.0195674074425
81.9996465532768
81.8549286483131
81.7601566922981
81.6752388960957
81.6198278158475
81.4532144162931
81.3994670529228
81.4050446707633
81.4775008908862
81.4473378609438
81.3994037235928
81.3313064422717
81.273609995174
81.1409268399774
81.1561877483387
81.1474469219936
81.1520012575697
81.0635292537125
81.040774878796
80.9459917164585
80.8605302673213
80.855744162843
80.8595736940491
80.8113166905744
80.8713680750552
80.8057640538148
80.6827242062084
80.6002151023155
80.6607906464517
80.6445951613953
80.702649255622
80.6599916964781
80.4834046400505
80.4483792579153
80.5362712680854
80.4774310518656
80.4386013148858
80.434754643043
80.4660767758584
80.395281036472
80.4404650745129
80.4855318832773
80.4156675907465
80.3150181533768
80.3747597728733
80.3365436049569
80.1348539522596
80.0250637894397
80.0721302433748
80.0836459841367
80.1642029789975
80.1216926032738
80.1100090097439
80.1613139419034
80.2012875845971
80.0886066316183
79.9742936139939
79.9634613096274
80.0612140362649
80.0017826188187
79.9607175221574
79.9595033819522
80.0254444512778
80.100692418042
80.1529566851182
79.9653013951498
79.9160913449554
79.9352121893296
79.8839753642054
79.8614526125796
79.9461557406296
79.8613722401585
79.9061378236834
79.999005041476
80.0139629750254
79.9545683187342
79.983466139795
79.9416181919399
79.9834076929194
80.0338098447742
80.1156302992372
80.1000814173106
80.056425864746
80.0997177247682
80.2051487683948
80.1972845850844
80.2186493989334
80.2068567020024
80.1701687373564
80.1523477331248
80.2131305996241
80.2021233994629
80.2672477660904
80.3607652203769
80.3512792515884
80.3205479243261
80.3884013340524
80.4220243735779
80.4857470709979
80.5238926702056
80.6243123166219
80.6439821739645
80.6098661620966
80.5994705924891
80.7201130384318
80.8002102090882
80.8259760663544
80.7744937391045
80.8315207700915
80.9416948701452
81.0141093854995
81.0101412956651
81.068548210085
81.095790818641
81.1672044266689
81.2109030656749
81.264750717364
81.301654592075
81.3547980046366
81.3634217767626
81.4242100164172
81.5214251804179
81.6235221049156
81.6894603146723
81.7554442449861
81.7976027865322
81.9044426375672
81.9890168264135
82.051860275528
82.0630549222926
82.1574019430785
82.265804220472
82.3543900930999
82.339658101122
82.4208881110223
82.4850526654822
82.4705354630983
82.4712874610442
82.5340638074685
82.5685572887632
82.661811491128
82.749754740433
82.8531134432626
82.9651662496134
83.0752375322517
83.1988694400936
83.3457664283466
83.3046715313469
83.2475726973227
83.2862133776805
83.4007850559422
83.3976175164826
83.3708929498031
83.3758954392073
83.45135843818
83.5131106652917
83.5836847107158
83.5889057808382
83.6457658088373
83.6997139110567
83.825680942884
83.8286104414184
83.8643899263183
83.9467036627042
84.0247668481137
84.0152386767005
84.0540083816938
84.1098229523126
84.0883344404379
84.1177049878122
84.1903487988923
84.1717389789082
84.263234717909
84.3287614441565
84.3530247052382
84.4162146098832
84.4679831282767
84.523336456388
84.5452116526161
84.5340018900763
84.6187935833868
84.7065858525111
84.7588678710521
84.784538282027
84.8806606015636
84.9067669065936
84.9664119959102
85.0905339303782
85.1405337052546
85.1548449000819
85.2397562824852
85.3039774929589
85.4341049941992
85.4358088321046
85.4308113304013
85.5112697074304
85.5813307997045
85.5509404742952
85.5990034666969
85.6892707486357
85.7747653235601
85.8190604109354
85.9170758589917
85.9843383941381
85.9899258440831
85.9241512367347
85.8601706772837
85.7999717393951
85.8569297339744
85.9311172347924
86.011107896278
86.0054151671975
85.9593629340676
85.9370378812585
85.9105504818104
85.8256780752409
85.8084398713097
85.7190153523896
85.6470047631577
85.5839428296408
85.5308999939359
85.4481889031735
85.321631183745
85.2241963583616
85.1106658196256
84.918920468535
84.7649556757341
84.6102501939879
84.5529995768601
84.5216128865029
84.4256939179943
84.3270413517134
84.2284025452852
84.1770473762971
84.1218884595599
84.0819182758366
84.0567410688599
83.9893730327465
83.9406674353864
83.8150776389377
83.6563937009188
83.5024882556045
83.4336055743458
83.3474450478708
83.2400919668186
83.1405878321077
83.1029327848857
83.0540818738597
83.0026367770209
83.0006844900881
83.061297507532
83.1170647872489
83.2059817758723
83.2605765524772
83.4053506833186
83.5641650911509
83.7188397890679
83.8428908272353
83.943003743359
84.0266674686682
84.1575796140594
84.2523991258539
84.294498566748
84.4253613183001
84.6421679501035
84.7251179946701
84.7826575481624
84.874536084508
84.9734297292945
85.0279251841182
85.0786327874367
85.1173888452893
85.1543969013041
85.1687400572533
85.1996880648818
85.1740885973253
85.1708572635828
85.1866796416668
85.2935967458627
85.3407517975909
85.3713748497998
85.4136880251678
85.4681095081193
85.4999155574967
85.5463385275666
85.6315033928178
85.6843827500648
85.6938559318564
85.7794340176401
85.9201476804879
86.1170036364787
86.2475201035191
86.3729455341003
86.486345092089
86.5962000038693
86.7310441345318
86.9248417352813
87.0505903180308
87.1516754933945
87.2890723309623
87.3842732934517
87.4224290298486
87.5379398022621
87.6180984493644
87.6251939268216
87.6828799440489
87.7728852733075
87.8370705743444
87.9195169086422
87.9699368862293
88.0254382231562
88.0931508966473
88.2098832789912
88.270904970574
88.3230078309863
88.3484751862331
88.4139043382565
88.4853017127168
88.5252665406175
88.5722660514911
88.6722846585746
88.7112014801485
88.7737908729888
88.8251038110983
88.8464961855524
88.8631450543989
88.8852771313363
88.9466925550364
89.0168427704622
89.0517121758073
89.1307086222508
89.1556720963595
89.2076053939221
89.2782201846554
89.2559434566847
89.2342276211437
89.3007937863911
89.3376799513952
89.3754253056418
89.4131497553953
89.4666063224316
89.4631334423061
89.4652194086062
89.5104505712708
89.5717032806191
89.6161291863693
89.6129504420868
89.6342289383765
89.6997502418486
89.7029026041201
89.7350385113646
89.766501481499
89.7994229055742
89.8079392108558
89.8435726202418
89.9080782947222
89.9277308626926
89.9111949822511
89.9722482791383
90.0059438696241
90.0004349434508
89.9896249410944
90.0118088649333
90.0952512653806
90.1392280687395
90.1240466185842
90.1602493569471
90.1923466494606
90.1965021610067
90.2258452713962
90.2868085880591
90.2999306108864
90.3245187193697
90.3676228580863
90.4199875305424
90.4229203337354
90.4550822234382
90.5126372060116
90.5094755930085
90.4603710349077
90.4700969131507
90.5300986866544
90.6120607820493
90.6860414446332
90.7098861630719
90.6729593539253
90.7177837770634
90.7433499190478
90.7531113502823
90.7573630630123
90.7278441302827
90.7400708245047
90.7991930658187
90.8267996139624
90.8352140215587
90.832327029613
90.8432825713439
90.8696890567731
90.8972539925476
90.9367706309212
91.027647867247
91.0472820310319
91.0510790762701
91.0586574227383
91.1292911626534
91.2173168068388
91.2338283011955
91.2571449480433
91.3073157429784
91.3147825540951
91.3541072816411
91.4011577094623
91.4636132128697
91.4956035759199
91.4816226466476
91.4792669901592
91.5778874281628
91.6594687011196
91.6504287890705
91.6263364415087
91.7033429329883
91.7537906008032
91.8568997140441
91.9325446088019
91.8498535782034
91.842948213549
91.9644637010534
92.0727882823512
92.1265687445975
92.1170982875306
92.0941618115426
92.130191845793
92.2739423141678
92.3107134129001
92.1940169063305
92.187168856304
92.2878223783024
92.3501003648517
92.3135406629878
92.310561389827
92.3565456493663
92.4329891710181
92.5029558432916
92.5555459214171
92.587188683636
92.6130309613229
92.6662243974314
92.6747853718696
92.6533522542343
92.6262523642491
92.6080794443325
92.6096055889151
92.683764151969
92.7964132126119
92.8045207083393
92.7632792858894
92.7805780934865
92.8051339493679
92.8000558951565
92.8548328042861
92.9108241063139
92.8508157211725
92.8561534331848
92.9757161885594
92.9831391847065
92.9405561132661
92.9263909753746
92.9243645127188
93.0348397974004
93.052134584676
93.0241030209634
93.0647269267579
93.0715609120849
93.0751580065695
93.117201484853
93.1318007061458
93.1445088831684
93.1041568912423
93.0938228117236
93.2276219903322
93.2650184046424
93.1015517581988
93.0680821266886
93.2012214710052
93.2693871681355
93.3034940250915
93.4025342496109
93.3564547535181
93.2759037996524
93.313204541467
93.27770206346
93.2610858631244
93.384721435575
93.4594707999953
93.387456625175
93.4126035960293
93.4878308031289
93.4336515727341
93.43710044156
93.4113846673653
93.4331323853259
93.4886421628519
93.4858572261601
93.4008727756522
93.4692661243999
93.583991907884
93.577511426071
93.5463162749056
93.5564051223881
93.5883627162244
93.6345854389745
93.6098339534877
93.546135724367
93.6257247230808
93.6961255015917
93.6816513045637
93.6478209490556
93.6859058785395
93.7235223665211
93.749264721037
93.7375526446089
93.6905194365821
93.7774515850863
93.7920783101184
93.7937966539215
93.8927247430545
93.888927046869
93.7989729021733
93.794156286785
93.8909292196519
93.860075248296
93.7951734984016
93.8514112492137
93.9145761813045
93.9072060115015
93.8247486420757
93.7826172349038
93.755828248254
93.851462457977
94.0018636170526
93.9508271701682
93.864091176526
93.8939426385547
93.8951154472444
93.8918139318931
93.8831657996104
93.9006163333643
94.0381839257206
94.1566776830537
94.0874504908309
94.03624972978
94.046863011922
94.1327321168311
94.0882872468774
93.9844661907107
94.0401920092894
94.1889912106946
94.1707879651582
94.1148638619713
94.0599953720603
93.9404916596026
93.879370284332
93.9187313983205
93.9342804205921
93.9384832414742
93.9982951613488
94.028925329481
93.9729402186648
94.0499039195577
94.0946883915999
94.0199480263414
93.8632454261091
93.7733106968479
93.8325873578014
93.8888025221947
93.9324461994153
93.9354411219463
93.9245657630905
93.9593232842893
93.9931399801989
93.9566384484571
94.0640901860986
94.1160674661875
94.0494060089208
94.0192153914199
94.0838933133612
94.1319568742281
94.1206805368789
94.138649221716
94.1050169831294
94.0540540418152
94.0397845148779
94.1334683855404
94.1984273102824
94.1920047830097
94.2960043178415
94.4282723039262
94.4924860088654
94.5307308725914
94.6582760920411
94.742929152045
94.6933272772957
94.8051488138379
94.8154731663039
94.7631578016108
94.8858496202823
95.1075822831159
95.2184203090079
95.087113026366
95.1645513192041
95.2996349598983
95.3877515936099
95.425471473864
95.3537574365575
95.359058968401
95.2714359814006
95.3485143877469
95.6401595268518
95.589485289959
95.5387631371227
95.7808866267797
95.9246983323038
95.8856008995135
95.8697871189762
95.8902985325421
96.1721766341833
96.3405213956251
95.9394914896568
95.7275603310957
95.8756969669625
95.9836041126421
96.1421054656861
96.303649300123
96.4523275273102
96.4898386463831
96.709882012688
96.8950306631897
96.8886102262004
96.5772881944126
96.5590409273965
96.7549895327871
96.7140999726128
96.7627630016256
96.8382235383612
96.7856297060426
96.9480701830004
97.0572558477455
97.2621720274341
97.5632388857407
97.5282176012527
97.3994109041349
97.4839524442887
97.5876243701606
97.7074386311295
97.6777747712903
97.496288423988
97.4752440540561
97.8374770141603
98.0096392953025
98.1302661502465
98.7537453860566
99.095899739553
98.675121955729
98.1827480999266
98.0984276598376
97.9141858020285
97.8134049425803
97.7847423096552
97.3772816430299
97.2122716680101
97.1082907545995
96.7866824296999
96.7543754949991
96.8050984716665
96.797951617398
96.8302012946837
96.6267432863804
96.3840841394352
96.192934173108
96.2365447610152
96.1237827938327
95.9504448299347
95.8556500147523
95.6766790627685
95.6691971812345
95.8598969545347
95.8707957794089
95.9376951222826
95.948630032425
95.9640598133229
95.8966643111303
95.9488379204534
96.1021462744236
95.947364156025
95.8481161387228
95.893773281258
95.9282026324827
96.0228794451788
96.126633017129
96.1466794868144
96.0099465510079
96.1096879222958
96.3227391130739
96.2194334497586
96.1157803147687
96.372549399271
96.6854386558945
96.7294147036277
96.5340678348567
96.4276796181267
96.3887034132051
96.4022920893257
96.5841807890916
96.8948660594692
97.1049634152491
97.2409328032301
97.2886689405056
97.2999833935807
97.2517175229679
97.3326073196375
97.6070959099457
98.0020421970452
98.1620850362958
98.0412626218628
98.0171827132243
98.142090377325
98.1497450035199
98.1411399020131
98.2271705285809
98.2474403665156
98.462233139116
98.6956689579403
98.6184059799255
99.0261671146389
99.3690333773544
99.0441765980974
98.6162620691901
98.6581180772769
98.4619469396492
98.3091834690309
98.5642650678504
98.5689726678033
98.312832430628
98.3928576339316
98.323056695568
98.1064045249993
97.8878962043465
97.6046695528854
97.6518022706872
98.0335341873535
98.1581712940663
97.9998655726237
98.064704107828
98.2040788191239
98.0306210101163
98.0956701268434
98.3732782684225
98.7637013498671
99.0112742096476
98.8913619193737
98.6851264919384
98.4723990447887
98.156893735885
98.2639053137564
98.406865574868
98.2775042228027
98.0999115921671
98.1800648583123
98.0473741818271
97.869117048556
97.6305156053901
97.5978553344333
97.4318000401806
97.4532528289608
97.479693188305
97.2887764144042
97.1261908894749
97.1168261532167
97.1241529137476
97.0476657318556
96.8932089897054
96.8634386035015
96.8605634325875
96.7539823286266
96.7032543381337
96.714133681476
96.6816515930593
96.6390219440841
96.5620849874412
96.5767290199182
96.5722384595764
96.5740133606283
96.5155185357351
96.4103398170288
96.3560377848436
96.3342694123887
96.2751965921976
96.2880343092408
96.3582852252295
96.4377594060621
96.3783050692345
96.2751663358746
96.2293323720458
96.2881586085482
96.2881594100052
96.2344817510315
96.2931996462771
96.1662900057369
96.1214153110349
96.3306052967823
96.3043600614938
96.1976892734737
96.0832463190398
96.0873017364463
96.1599285847325
96.1919241716672
96.2372204553675
96.2853772104329
96.1730288586726
96.0874660398903
96.0962344450342
96.1234097150096
96.0643026770453
96.0217225014835
96.1251060902095
96.2022171450503
96.160577356174
96.1415767544677
96.1729518951978
96.2099466197061
96.1640152128293
96.1338024104482
96.1795951176742
96.155101300242
96.0628344085012
96.1275957263457
96.1820011194003
96.1352562395291
96.1477747619384
96.1252083239301
96.0945236595587
96.1252031309384
96.0868162523776
96.0318289765505
96.0487807357319
96.0431554285855
96.0212667404156
96.0577128423676
96.0637869581718
96.0288007408337
95.9883688009067
96.0340646440373
96.0586793983269
96.0267934036298
95.9962356512748
95.9856847047181
95.9572639548366
95.9532413683031
95.9994297029361
95.9889904194137
95.9506079448398
95.9318340891566
95.8854714908772
95.8206868054752
95.8106680371317
95.7992253420121
95.7878926777527
95.7921548582234
95.7826716882168
95.7568681475404
95.6578305032172
95.5450434074105
95.4450744955429
95.3368750899443
95.2679445979915
95.2152037168449
95.1396571801594
95.0308440936458
94.8937843832799
94.842608559863
94.7838980825843
94.6661610334411
94.5344790963615
94.4164073954146
94.2691146406335
94.1282142690939
94.0040116562766
93.8689728850972
93.7579426293496
93.7011110929397
93.5349144702376
93.3489586149248
93.198721764929
93.0607634053216
92.8851124226613
92.6940809519165
92.4639093012702
92.2518987714677
92.0097737170525
91.7404397489682
91.4396474294908
91.1061597209057
90.7119612669264
90.4159248246661
90.0459506900527
89.6409440726225
89.2502745474779
88.7583302614617
88.4292567923257
87.99773725505
87.3839772118897
86.8719685519795
86.3177294451093
85.7735836452955
85.2883351953885
84.8255273437974
84.3477650914077
83.9506715053014
83.3842178600061
82.8383319871491
82.286049052975
81.8138041293972
81.3911010167221
80.8611885406481
80.4101333618315
80.0426989192229
79.5690462622616
79.0362135567995
78.6347470554238
78.3017415906459
77.8431125926875
77.2613965173221
76.7599975404209
76.8762765149963
76.7407656526123
76.313420859636
75.9696042139546
75.8131954299875
75.5504939998783
75.1961609579932
74.808600308742
74.5017696384751
74.5072280258532
74.5320579108928
74.2997479480034
74.0046685569571
73.739249685623
73.5212415409298
73.3523100352951
73.2698614543332
73.0624322772584
72.735447902822
72.538701021483
72.5040665383023
72.3167651244344
72.0078706372028
71.7112773737422
71.4975670854842
71.2890002383945
71.0860109033568
70.8682786855247
70.669231698031
70.4790709988064
70.2657825492324
70.0264467677856
69.8403827544952
69.6407594285234
69.4278190068495
69.1846825545429
68.9572878873833
68.7035231306139
68.4165360524008
68.0255228036609
67.6382277453753
67.5480059313861
67.4911026288995
67.1338628728354
66.8247817357981
66.7631522222448
66.6687376643719
66.4524914881309
66.0640773924184
65.3661240569814
66.0556726375422
66.9399290931258
67.2092128321368
67.2374282686515
67.3680917942161
67.6771062456728
67.8617927467959
67.9357426428826
68.0984009020296
68.2796939050112
69.5208567721784
70.6527459488735
70.7483454938799
70.7288221172971
71.3549875691553
71.7745732641269
71.8795633680034
72.1141001664927
72.5182425083685
72.5991459071591
73.1936546155219
73.8706147221631
74.1492790662067
74.5414707007223
74.8141396310675
74.9436260486642
74.857298603947
74.6356336732925
76.0600889458686
77.2820284976542
77.4342692041363
77.3003111862655
77.2968865528107
77.7576971923119
78.4742721487484
78.6471437835733
78.5299944205498
78.8596158416735
79.4578872187891
79.8494634022448
79.9706134190449
80.0101835559336
80.0845956443435
80.0329222226185
79.9261720535574
79.7915881729596
79.8335631791321
79.9859188863462
79.7314117440303
79.2279016695326
78.8390679616402
78.7422345334178
78.4443095214931
77.8265045582268
77.3390563958527
77.663064202856
77.7460432318708
77.4784446882315
77.1434273231245
76.9665221095723
76.9726466097505
77.0024306373276
76.9481090153681
76.8325166455818
76.5998506038401
76.4883454488286
76.7838137764094
76.8210655012168
76.5650311931162
76.3273654443236
76.1214976433143
75.8093192445652
75.4195865231903
75.007223991588
74.4635466583182
74.0276101847426
73.7081962022841
73.177192851587
72.4928753745653
71.811215327678
71.1726921399812
70.5651480139225
70.0437385836877
69.6957812151481
69.3461967088401
68.9853814140946
68.8457532131699
68.7817632007121
68.8432539666666
68.9602894137784
68.9029917285435
68.7704908382027
68.8828102554157
69.0866935961371
69.1785620944573
69.2581762074807
69.341206525769
69.4152763568738
69.4989664956234
69.7751055874854
70.0919450468558
70.2382535484324
70.4138801609031
70.5953991198348
70.6710497982694
70.9378703336365
71.3821397348786
71.6506941080467
71.7676770998314
71.9115881108512
72.1339023706585
72.3120924327875
72.4758449413245
72.6580382156932
72.8528297050451
73.0350925742351
73.1389730546167
73.2783136895034
73.6037933951145
73.8895307751132
74.0521979687406
74.1401522238995
74.2297699173055
74.3236563331534
74.3823529081389
74.383058804058
74.3984573072984
74.384508846788
74.3345364837141
74.3387084460058
74.3478358169168
74.3005095355038
74.299027508367
74.308596554296
74.316948319656
74.3639596690974
74.4354563719373
74.5360258866322
74.6577037236035
74.7989606937286
74.9685639264902
75.1285477067972
75.2703858626071
75.424285542855
75.6122478613538
75.7900312351526
75.9503606308278
76.0866340314855
76.1937257816887
76.2829512300364
76.3711406313155
76.4343395550279
76.4951295326417
76.5249180376385
76.5498362223747
76.6083650427987
76.6606295778918
76.6844649783642
76.6981787711775
76.7124943370602
76.7429195010263
76.768602413981
76.8154401381968
76.8597940291056
76.8998651516981
76.9288242071889
76.9474970035178
76.952203502416
76.9543507352124
76.972640184265
76.9886844228237
76.9811423199962
76.9682062799098
76.9666667689582
76.9917308599413
77.004124955597
77.0355705538648
77.087684661322
77.1290482562456
77.1945489450673
77.2840278361099
77.3956063874888
77.5016949720871
77.608803072876
77.757864394837
77.9068617651603
78.0528962466766
78.2007181935722
78.3594580532065
78.514773433806
78.6994531864259
78.9069141944999
79.071630075673
79.2136555796242
79.3677774257126
79.5198968167818
79.6894178147037
79.8364237866711
79.9371466329885
80.0356289549452
80.1079920284266
80.1190148774224
80.1231321052083
80.1136215228518
80.0556324707398
79.9621884643701
79.8390453213256
79.678131896914
79.5063682735125
79.3498777700023
79.2213090434667
79.064051092859
78.8699343180763
78.6956304727611
78.525897720492
78.3187262523334
78.122111802104
77.9065000962184
77.6698870851073
77.4398519883755
77.2428533214084
77.0527626342975
76.8453748539277
76.635685255832
76.4256877693946
76.1940744620122
75.9353953728192
75.6965688587728
75.4764155334221
75.2532890101549
75.0450479951472
74.8464969809014
74.6709990491607
74.5183677945599
74.3746855440119
74.2591951449353
74.1503252459801
74.0586938412151
74.0118532563976
73.9486687151505
73.8503422159996
73.7317835071968
73.5783239652043
73.3569832971889
73.1050377358053
72.8403565490193
72.5712033514603
72.2896507523533
72.0226593003057
71.7715614529118
71.485898926571
71.1887597577244
70.9141617337031
70.6396930105079
70.368966408135
70.0986676024752
69.8132621301682
69.5327568554211
69.2542711882029
68.9391574087701
68.6236105845106
68.3126365442342
68.0148151262646
67.7083696813554
67.3871951421326
67.074713546943
66.7645873943623
66.4543980315832
66.1572442880942
65.9100217369099
65.698217257173
65.5128605976626
65.3822086274319
65.2430125554571
65.10513951022
64.9799460847037
64.8320721325488
64.6924614846092
64.601286085012
64.4876037296216
64.3901593657374
64.3385399688979
64.2810301456819
64.2495743403213
64.2625169240997
64.2887775519651
64.3477090005299
64.4587184412568
64.5941230583078
64.7670552028898
64.9971528602312
65.2529123319738
65.5541613528629
65.8540754971469
66.1860907384143
66.532664894364
66.8461309568529
67.1329826270698
67.4459098494425
67.7534242637998
68.0191700147123
68.2631824836525
68.4814119290386
68.674550057916
68.8520874733022
69.0015399789855
69.1286393437918
69.2130441800305
69.2616223538598
69.2974703582
69.3565899014122
69.4650820187165
69.6036814691099
69.7546833307217
69.9761591459516
70.2539440385243
70.5503506755296
70.8695392772324
71.1802803607102
71.4830071621824
71.8037349370477
72.1208285019332
72.4214341115752
72.6869526867374
72.976594922011
73.2896606596246
73.5600272115873
73.787484721687
74.0332183324449
74.2768155680057
74.5092627946571
74.6943605464349
74.8570557090324
75.0391879216388
75.2246924842649
75.3442417631209
75.4407877013318
75.5213193718958
75.6131014121772
75.6581110711336
75.6563050554275
75.7003547197916
75.8006917163124
75.8853818394776
75.9534392068786
76.032689078159
76.1468712354106
76.2737461555122
76.3986619659418
76.5454698130993
76.7099319630435
76.8440342552973
76.9706277176179
77.0450084776265
77.1088695207255
77.1714274703616
77.246012001012
77.2897030619565
77.348665850005
77.4321740251847
77.5343447459619
77.6057885298717
77.657518606174
77.7006979058339
77.7619611821936
77.8192257756753
77.8557372690578
77.8830417862619
77.9285466257955
77.9685927639288
78.0088784893295
78.0339415688646
78.0582068983782
78.1037781646513
78.1693762073477
78.1970470293075
78.211634517657
78.1861074494057
78.0880510471766
78.0169303403508
77.9218525177187
77.7311241118851
77.5538871282548
77.3867567068193
77.2325066711858
77.0360010007009
76.852693425044
76.7720146769415
76.7213021857684
76.6665378160162
76.6823492533235
76.6950902911943
76.7161932883723
76.692865523074
76.6747386925983
76.6453553299804
76.5716085934821
76.4842004059578
76.3755202153218
76.2261349044941
76.0663743085825
75.9546245965314
75.871538339052
75.813695903952
75.8315784919176
75.832709326991
75.786217395687
75.7505510535181
75.7619055157987
75.7488372852839
75.7154202971928
75.6731154596479
75.5839577272498
75.4600394961182
75.372571265883
75.308506229456
75.2568787660588
75.1849510999025
75.1227112335478
75.1011361603938
75.0321850769999
74.9576509158424
74.9123748268614
74.8277192128262
74.7496821509211
74.681234907348
74.6151032510823
74.530742575198
74.458509903457
74.3712974670763
74.3027269408864
74.1823768508113
74.1256933608188
74.0782630654451
73.9823543715499
73.8859468833451
73.8082420931309
73.7884706535942
73.7918990263651
73.7291745217559
73.66452273656
73.5219663329263
73.4233802163325
73.3225679911117
73.2708614627297
73.2065325471882
73.0969646461183
72.9851555603817
72.8336966123806
72.6936085230491
72.6122029678214
72.4896373491392
72.3611452436677
72.2018232691952
72.0850769601251
71.9403416543043
71.8223501539974
71.6445047930227
71.4525074772946
71.3153601102219
71.1824800701045
71.062666032407
70.9738072342415
70.9285441903674
70.9216808088327
70.8382530113101
70.7330491141786
70.6343092195599
70.5838211899091
70.43220139726
70.2767490986133
70.1238665467816
70.0564666845167
69.9426053022789
69.8160263641401
69.7323488779812
69.6191765606214
69.3854147016546
69.5814012242678
69.6151770791712
69.3490738146005
69.168634512655
69.1099003140201
69.072665767829
68.9905153800995
68.935213723709
68.8324021867969
68.6587264836899
