1798
3999.43349933624
650.420452594757
1
128
4
94.6175662585843
94.631340468811
94.6845157509163
94.6843303134482
94.6824165953709
94.6935321286605
94.6442216445431
94.5715984870146
94.5592399221406
94.542782385725
94.5459518420356
94.5836391069645
94.6234069733691
94.6877654298579
94.6349503413113
94.5261426002366
94.5950510474212
94.7399575387528
94.7207927073159
94.6934448048815
94.6909902830641
94.6159926208282
94.585515605297
94.6748502905551
94.6533373244611
94.6235518769457
94.6852433616909
94.6430408216648
94.6117951830795
94.6990934937371
94.735341947103
94.7227938576294
94.7144666933584
94.7192552376309
94.6691378341511
94.6134266021938
94.7229752640283
94.8468883892424
94.7834709035812
94.7727311589288
94.8015706893797
94.7363589996125
94.6703900260832
94.7096926885134
94.8013437395318
94.8441168773205
94.8513499053992
94.8519820077037
94.8053677690325
94.7286941726258
94.7196910266803
94.7210361380586
94.7594252651361
94.8899906903347
94.9238443496293
94.8839584381923
94.7854476025917
94.8096743182081
94.9094585377412
94.8177943905312
94.7326863947813
94.8096532113926
94.8222541319401
94.8393043436139
94.9841936665223
95.0052552498888
94.8890916891933
94.8240787963628
94.8156875758485
94.8433875317446
94.9374064012107
94.9774010060162
94.9341120409695
94.9549350583906
95.0752568563311
95.075568486083
94.8975702443353
94.7516302452097
94.8555280229391
95.004923692441
94.9759268886706
94.8779849948499
94.8463642167412
94.8924527268336
94.8369177933275
94.8247808538309
94.9709741965943
95.0223043379104
94.9709427083013
95.0364139232721
95.1009234822967
95.0907096391867
95.0397112188561
94.9679596324858
94.8533959098095
94.8892636448251
94.9810418619438
94.9075124425973
94.9664576807974
95.1052576224637
95.1238048676995
95.0820823226905
95.0596667090902
95.1875669591833
95.1582708349541
95.0244673426183
95.123447906466
95.2157263869207
95.1029115724993
94.9247348559805
94.8620621517469
94.9269487093707
95.0409978130994
95.1145096701673
95.1252139263689
95.1890737381435
95.1666304977705
95.0745152811776
95.1510092354465
95.2472778664473
95.2277407692073
95.1720580756765
95.12791980558
95.1653172815689
95.2178117582858
95.2444683315536
95.2407102446872
95.2121806163055
95.1768933697023
95.3181766018018
95.4154660920635
95.2996738477478
95.3268728995509
95.5431758267418
95.5071542669596
95.2082058106912
95.1583359839496
95.2971586062675
95.2544312210704
95.1262316052221
94.9853122883599
95.062372453949
95.3117481770792
95.3978853117931
95.2599680505205
95.1406459224299
95.146599670016
95.1988653212408
95.3184545316389
95.3703467197192
95.3614327360554
95.4015677474626
95.3720081314599
95.3268964025056
95.3319550446391
95.4132400479574
95.3762773320703
95.2378416959252
95.1530833531971
95.2042749243027
95.3917777133636
95.5011365327798
95.5334550504111
95.5059556437787
95.3133268717013
95.2073620568652
95.3806605118401
95.6246784277479
95.6281614597524
95.5088591407289
95.4111088108614
95.3760803860941
95.2685509867408
95.2693715050198
95.450321346701
95.3619505802301
95.2112280954184
95.257893446595
95.2597947914731
95.2002039150848
95.1983742246723
95.1365663169362
95.0534072235289
95.2188806460307
95.4360371683034
95.3484759959215
95.0649894800393
94.9599090026435
94.9517058403124
94.9207818541405
94.8610383585112
94.664830857327
94.5682594047412
94.7051680062991
94.8345175484597
94.7935560958513
94.5581194419132
94.3925294910565
94.4455817597115
94.4362928150486
94.2414417143756
94.1005971577216
93.9671158731747
93.9943366681996
94.1571639441912
94.0511596046508
93.7606680902479
93.5592930634115
93.5538016337441
93.6207021926305
93.6099506951495
93.4585096189742
93.2426652423721
93.1920660905613
93.2044266892006
93.0398553451699
92.8412715883325
92.7982304431257
92.773446545655
92.626505010109
92.5050694553788
92.5291345580493
92.3875518549157
92.1595931250892
92.0283163718061
91.9973773337641
91.8579446902461
91.7724544969785
91.7960204819901
91.6586526164076
91.3695819614566
91.2238720086346
91.2077456377764
91.1760155416806
91.0777199737308
90.9173058705716
90.791239516391
90.7354005638637
90.689759319288
90.5437466956192
90.3161798041163
90.1248914043738
89.9272862378122
89.8790689670704
89.9109932903163
89.8655456473645
89.6159487315542
89.4888256415259
89.4753216008738
89.2908499216337
89.1308032108985
89.0743256532079
88.9515878808588
88.8530698618566
88.6862172830094
88.5258704508868
88.4843414583981
88.4459431399415
88.3753581889466
88.3158845954897
88.1130941871856
87.8750224918432
87.8110221792928
87.7877444317675
87.6343848082891
87.5528879960953
87.4151666006282
87.1997228022888
87.053597172344
87.0382906678494
86.9543235687837
86.801596920248
86.7085390759217
86.5608297526447
86.3499845848194
86.2807282605118
86.2739010549273
86.1650455646176
86.0788700809231
85.9621277223193
85.7881398889501
85.725409830933
85.6536504008507
85.5556333772712
85.4739786041614
85.4194405898596
85.2349499209749
85.0053911565922
84.8641451245831
84.8661640321461
84.8647856677316
84.7621807815661
84.5746491747803
84.4685626501365
84.4001624571879
84.3796546948852
84.2853316385366
84.1428914536243
84.0117955795153
83.8882292808469
83.7605817995607
83.7423506460438
83.6644629140738
83.5648518825396
83.5482177610041
83.4961446333271
83.3694132553508
83.2972433099133
83.1866690157037
83.0454427645073
82.9126149006231
82.8746814541582
82.8857575661959
82.883896971564
82.7759936560568
82.6116895034786
82.4583493425524
82.4386363976602
82.3413913363
82.2470321442152
82.1831197346211
82.0514480682212
81.9319927884922
81.9479264930644
81.906417944083
81.8342499118377
81.6978864217032
81.6148799464169
81.5665606288037
81.5854283789236
81.6039725285782
81.6121427273709
81.5472719419908
81.4135159870994
81.2393534017352
81.144680792268
81.1266592321031
81.1423663573035
81.1334762495958
81.071174785991
80.9774070004478
80.8821842344297
80.802678169349
80.8890553964972
80.971663235776
80.8845709195823
80.7167673630427
80.6581180865567
80.6570433627974
80.6334885317381
80.5952436527581
80.5469449057181
80.5533565260781
80.5125291504364
80.3909911020424
80.3989958212162
80.4173974158921
80.4161376869841
80.4067033071991
80.3389495118363
80.2151192593603
80.2131052417682
80.2355151877932
80.2247586638197
80.1884975189007
80.1909556978092
80.1938956822165
80.173947423738
80.1516311732366
80.0459799245606
79.9419569197482
80.0056686588551
80.0636871344474
80.0553315693006
80.0213965963715
79.9746442207629
79.9020902040299
79.9562575760608
79.9837348124989
80.0004449343237
79.9781607841379
79.9101192292352
79.9492446351956
80.0079588427783
79.9305861964068
79.8948139312593
79.9261044080274
79.9533030535959
79.9326400358796
79.9043918865305
79.8805437796369
79.8662587913846
79.8402061959145
79.8640883865041
79.9198094739159
79.955286763272
79.8464805843661
79.8646444920439
79.976530432788
80.0028694435521
79.9431912211758
79.9818405767288
80.0514916582951
80.0961133952413
80.0699472907848
80.0919527973664
80.1425470914695
80.2019049027461
80.2085020288259
80.1883764690694
80.2266718545829
80.3325103928607
80.4078863552342
80.3671203488742
80.3007697793022
80.3659930053655
80.4686660371265
80.5606028047554
80.5490934671202
80.5799970423444
80.623336995532
80.6198776105213
80.6104517840085
80.6853659301749
80.7480571675418
80.811593816043
80.875113704682
80.9446819901704
80.9425162374403
81.0240181622062
81.1266722586563
81.1628561064669
81.1693483885448
81.2217148814327
81.2722222409086
81.3122858658667
81.4123864228643
81.4900170986189
81.4534840003602
81.5599904450185
81.7390812768295
81.7888943530931
81.7929929428367
81.8191099411213
81.8651932313962
81.9409864691494
81.9973320685795
82.0504387150809
82.1769803957886
82.2925848959208
82.2954937381638
82.3293073545812
82.4285157133936
82.5275245724351
82.6114779399764
82.674782611697
82.7286034922996
82.8113055773443
82.8721821115487
82.9723021719084
83.0732612094268
83.1420990904029
83.2439526547735
83.3418544050689
83.322218233945
83.3913360706114
83.4908380382176
83.5697135494326
83.6631498841866
83.7574934199645
83.7562559773228
83.7850826899329
83.9170211308865
84.0550420430411
84.1761030329135
84.3068031648876
84.3639776292021
84.3898059695483
84.3852948175771
84.4632386504958
84.5130065919118
84.5473192541255
84.6791951402722
84.8550787142203
84.8587145880839
84.8548749217372
84.916514545639
85.0073669159237
85.1466478604063
85.2602200437953
85.2680018110852
85.2854604344617
85.3568936259668
85.4279968115046
85.4497322345088
85.4955708723384
85.5737817914935
85.6271571152197
85.6868498228357
85.8334795060885
85.9145971706137
85.9785400411455
86.0323233884823
86.1158193854327
86.1927962043422
86.2594936309289
86.3358549306317
86.3792842344823
86.4721903920823
86.6295758380234
86.7102487930948
86.7660629891331
86.7463468174376
86.7720073611564
86.79824920564
86.8617040519031
86.9874863827258
87.0547575445972
87.0665472267552
87.1736287385744
87.2532860617107
87.3015281725786
87.3466609691304
87.369765232572
87.4031395732812
87.5147350053766
87.5587082160029
87.6161278679395
87.7272965200343
87.8065316631898
87.8179064250381
87.8175873979185
87.8532078976675
87.9147360550991
87.9371315631969
87.9536861945952
87.9948279679148
88.0666335328832
88.0878012738749
88.0968362176192
88.0425336350204
87.9971224699919
88.0285160522664
88.0545014400303
88.0080927403545
87.9967747373247
88.0190293875002
88.0018615466344
87.9129984212736
87.9053669615813
87.8756976789399
87.7626352680951
87.7030271083904
87.7276454422276
87.6886547034751
87.5619820628602
87.3807806805381
87.3181852807969
87.3197908202282
87.1865788402104
87.0417113657135
87.0411011917729
86.9675557295035
86.8048057566713
86.7423980239752
86.6574195821215
86.4621826935027
86.3379520090398
86.2316827899213
86.0992414437607
85.9365074736169
85.7707295188381
85.5947988637014
85.4702395004266
85.3717653105901
85.2212607272475
85.0373725456851
84.8594855941618
84.7809489940818
84.7527928472278
84.751681037616
84.8363125962641
84.8591088363058
84.9180017013248
85.0624083756134
85.2242152517186
85.3552436616353
85.4240857514712
85.4851060280098
85.5459543116825
85.6055737001652
85.6814697783819
85.7332993110481
85.7861155780256
85.8195211883225
85.8349018089337
85.8361317874605
85.871111785337
85.9525508509426
86.0495711326555
86.0900570074626
86.1034428982219
86.0834653473508
86.110065504172
86.1886397382942
86.222519049465
86.2432836720512
86.32453122888
86.396753947177
86.4203606950413
86.4544462588022
86.5176800780231
86.5598412150974
86.5331438547616
86.4920571410913
86.441282076572
86.3644133452443
86.4478933041293
86.6202248571634
86.7850630425169
86.9426330676838
87.0920190742891
87.2763410031487
87.5018877247046
87.6350343930803
87.7580868624067
87.8757813411598
87.9411600045966
88.0068322566274
88.1140625288893
88.2255499448924
88.31296251034
88.380790717024
88.4246559975206
88.4482543613735
88.4921398684724
88.5857752576363
88.6720682056661
88.6972820264514
88.722141645389
88.7858870941904
88.837455944638
88.8427021787534
88.9070532513689
88.9796928674028
89.031448025814
89.0571378195386
89.0983142707952
89.1246019374905
89.1444473854464
89.194271597305
89.2442321727375
89.279975537196
89.28752134571
89.2843265299072
89.2823479721392
89.3616787320465
89.5010243490851
89.5309344418331
89.4715798577592
89.4611837164265
89.4852525895647
89.5452757800536
89.6272070977699
89.6424118682548
89.6462329901761
89.7115679451215
89.7207061931085
89.6905629950066
89.7237219689489
89.7459040084361
89.7892819279994
89.8179679213678
89.7962989581955
89.8207970857867
89.8452121475317
89.8403639916436
89.8825242941751
89.8714098577734
89.8710437732888
89.9188594712254
89.9425143941374
89.9997598571666
90.0422042154992
90.0257045032619
90.0681725514283
90.1182533565767
90.1113465375706
90.1121300099426
90.1377844597859
90.1491475864449
90.1677606227023
90.1783813404172
90.1604423664442
90.1738942929851
90.2387893894613
90.2804316750932
90.2806815460866
90.2849877256119
90.3000642055717
90.3170520482508
90.3249329303505
90.3401396166312
90.3614928825156
90.394037199851
90.4072964582946
90.4186221673959
90.4509928785452
90.5070489247639
90.5201833543337
90.5005709674815
90.5328451417152
90.5542040462808
90.5424030563161
90.5444687627482
90.5810210699936
90.6077052866187
90.6226386436285
90.6361143087884
90.6255270336449
90.6271858912692
90.642502971553
90.6715909621908
90.6936932598805
90.7154302675732
90.7502314389338
90.8213520407033
90.8445079225616
90.8162808875297
90.8025805253957
90.8418720391971
90.9114734941595
90.9366250730517
90.9893798237867
91.0383965001555
91.0672262689847
91.0970957753516
91.141326069029
91.2110479915143
91.2691579708331
91.2510584629141
91.214437809348
91.2440809905258
91.3652240968339
91.4892155463914
91.5238948728341
91.4869297937887
91.4431681296832
91.4156763782242
91.5277053718076
91.6372284629329
91.6277566288063
91.6458192072799
91.7141564847592
91.7211697582152
91.7373182659391
91.8126567454641
91.8323990091471
91.8135518063509
91.822782898473
91.8211831972643
91.8490991670125
91.9074546034772
91.9000661128605
91.9060655695206
92.0069339453336
92.0226732038704
91.9697875164085
91.9705196922331
92.0204822532358
92.0315074930442
92.0015553979531
92.1296735389711
92.2274862099904
92.1990689920842
92.2083941008772
92.2169557159892
92.233556287944
92.2272383028304
92.2642617676307
92.3742305622503
92.3500335856363
92.2765071619038
92.3058024454296
92.3832444139769
92.4113304362958
92.4372179231594
92.4061431513318
92.3663794750119
92.3868305609399
92.4709991884702
92.4945703230181
92.4785519693687
92.5434215080095
92.5787915396574
92.4774085428063
92.4452719007258
92.5485437319543
92.6212203894812
92.5961773444365
92.556204082129
92.5924863566888
92.5947345886427
92.5719444997059
92.6321787847101
92.6931225902311
92.7092368589916
92.7084899330499
92.6673537657682
92.6477150633733
92.6864083657363
92.645363144141
92.6049645581241
92.6209607516541
92.7232167469494
92.8158065707042
92.8034982198065
92.7442651490275
92.6972085265292
92.726783396476
92.758673663062
92.7278038869573
92.7432072288613
92.7952033716819
92.8074198287596
92.8142980054508
92.8311177977783
92.8857043837762
92.8379968535174
92.8673578901449
92.9535770161395
92.9379611547475
92.8978227478755
92.9292614066672
92.9384778375266
92.9547499355189
92.9650540355539
92.9612428614058
93.0200149167005
93.0333149127454
93.0395730385459
93.0833126287553
93.0469571688851
93.0391245923311
93.1382882695843
93.175414030277
93.0666810794821
92.9913969312663
93.0188476932929
93.0770754424733
93.1841738273341
93.2027790333809
93.0684719795092
93.0504029029139
93.1381604683991
93.1376665526075
93.1631132501286
93.2225866612683
93.1915365021559
93.1280021261442
93.1335267345989
93.1659127865886
93.1358248686128
93.1267827205954
93.1858062653433
93.2185362515703
93.1857622590071
93.1783002236281
93.1868938512316
93.16019751609
93.1883103789574
93.1868418562729
93.2041900719662
93.3145825842779
93.4216331136231
93.3927270622622
93.334158284106
93.4003105249161
93.5028032227523
93.5513881943483
93.4422887031164
93.2534128502174
93.1719269254725
93.2737753068656
93.3564492451461
93.2545281206902
93.0843608279114
93.0907191534457
93.2361455376257
93.2935317115685
93.2770890635864
93.2305642925818
93.244477174755
93.2206639405829
93.2071392962631
93.234404087168
93.2874472384262
93.2726074962359
93.0933930679072
92.98157333122
93.0517301182041
93.1518530006446
93.2797248193491
93.3577034567951
93.2775755586514
93.1755205354337
93.2572602841017
93.3529925285728
93.3233058606836
93.295355065327
93.3402649294799
93.3910673190107
93.4332921183635
93.4759930205705
93.5072618968454
93.5446375729421
93.5837504461163
93.5791058092084
93.5277502244337
93.5499601925586
93.6117885461603
93.7380753714492
93.8515067802689
93.8808493563376
93.9239611807048
94.0527492215788
94.1927110032531
94.1957204423184
94.2630326567048
94.3565648123744
94.2576374198072
94.3421616803284
94.4015786145442
94.2761737619187
94.3477146818583
94.4968734483183
94.616297195012
94.7009745131837
94.7748301108318
94.6246560886269
94.6351270998661
94.7350328984193
94.8483866213539
94.9746396101915
95.1450342645443
95.3094017335154
95.327273897001
95.0642267978822
95.0952767472475
95.2343872719977
95.2831991645322
95.4359093031366
95.5575016015274
95.3896160358613
95.4888825336407
95.7453992136981
95.5763627606022
95.442438967146
95.6220273694914
95.6620412282526
95.7543267596759
95.9893793833388
96.021221585342
96.1506048135339
96.2627572763538
96.0874916577233
96.0800484746603
96.1310291318887
96.2492281506644
96.3466288815201
96.4252736158923
96.5386946724181
96.5507675967464
96.6076880295134
96.8224171442695
96.9134693977657
96.6810256010807
96.8306642594945
97.1937841988035
97.3324526554997
97.4154638765193
97.3790577399176
97.2789747352568
97.3602445517056
97.575638189721
97.7684703966327
98.037229321424
97.9730698039374
98.2954690188278
98.6377940295795
98.2982754166681
97.6218725489942
97.5038946070924
97.2065661830216
96.6053447895016
96.3748411893442
96.4811947939155
96.3208805136776
96.2521595306835
96.0886369274256
96.0759953825194
96.0793438154108
95.7679711215439
95.4995860016179
95.4137911135688
95.4209314192832
95.3595477184301
95.2701501881652
95.1177614633835
95.0699862332572
95.0523796649407
95.0397432591079
95.1282285675269
95.0705033270125
94.9207409776402
94.9245305222999
95.0486772175333
95.2180572883732
95.380086489353
95.4063798360411
95.3132140868264
95.3225813679008
95.4097283402663
95.3933790400104
95.314646353887
95.2675783305499
95.3962014892722
95.4996756438222
95.5381957177349
95.4887729640632
95.6358293457215
95.777164453062
95.6829254386035
95.6643158067549
95.6708157469195
95.5127499368449
95.6527339189395
96.004709546891
96.1990512206973
96.1705535340659
96.2711008359965
96.2810959380177
96.5239445156366
96.7264091280464
96.6213756330341
96.5568222677037
96.7107259319757
96.9768863515968
97.3396809781162
97.5506477967815
97.7094446530057
97.7462399631679
97.8022852772181
97.8141032049436
98.1778171101777
98.7254832149175
98.686284199429
98.1515897470409
97.9747558231198
98.0499386650584
98.1994583043355
98.2748715376779
98.2612202374332
98.1981650270113
98.4316843717525
98.3861453924752
98.2957384300259
98.2218937611077
97.8592499802222
97.6223312865187
97.8101874761085
97.6946783430845
97.4610599371917
97.3580154998683
97.4048511087484
97.183418926651
97.0595734385908
97.3594008429702
97.4098474896128
97.3628964107239
97.6125499603083
97.9034477093052
97.9057688211003
97.7212083909711
98.0008178943625
98.2600021973232
98.3475086768722
98.311700512937
97.8686838356462
97.5326364261498
97.7850045274649
97.6693266635244
97.1962438097675
96.9807899044857
97.0661652299728
96.9431672973585
96.818825351955
96.7200426365938
96.6483990918701
96.5845395565432
96.6346679172686
96.5423660020357
96.4397448153979
96.3064363335836
96.1507046254719
96.0484231660764
96.1035378522353
96.0029411154013
95.7103371188929
95.7881286570326
95.9146690427112
95.7729618834976
95.6287375959541
95.7613946085675
95.798584149633
95.5347002108341
95.4556195772066
95.5275230402486
95.5761880578305
95.5868559320235
95.5749471814088
95.4080162544573
95.3139220143117
95.3587588420684
95.3746670321967
95.3835230693585
95.422067551978
95.4767406419205
95.437291335383
95.2728065615919
95.2505507785582
95.2271531385892
95.2492121535415
95.278091677026
95.2360871232905
95.1705351972193
95.1392241537158
95.1017935890157
95.1135951233286
95.197545820831
95.2181225483619
95.1170508861314
95.1046416458259
95.1675203207814
95.1854183222657
95.1256667547444
95.1064717283063
95.0072514194055
94.9641526412835
95.0152912886876
95.1104008441259
95.13547638524
95.143580691346
95.149536113755
95.1097682851884
94.9964619732899
94.9861257792241
95.123507155541
95.0718887478227
94.9631777557843
95.0231792277819
95.0778330711098
95.0377838743043
94.9781372789885
95.0544850660766
95.0830494999537
94.9487323485823
94.8989659480698
94.9262661740265
94.9335782807412
94.9603104282336
95.0261134335764
95.0338635557003
94.9287961630406
94.9397148796612
94.9813164421742
94.956749962828
94.935816695009
94.9059093089743
94.8740063126816
94.930515233272
94.9943200387224
94.9687389422111
94.8412954134482
94.8231551883759
94.9370697761008
94.9476488096157
94.894363965745
94.9040129279934
94.9136535003211
94.8854020577452
94.9387534422303
94.9809086733524
94.8924480656933
94.7940153059681
94.8343261830905
94.8956705868535
94.8242285815258
94.7974555644965
94.6900394611761
94.5794163704557
94.5877409845207
94.5367288818497
94.4016619213563
94.2525911084527
93.9495923956525
93.6524907634419
93.4831228899342
93.3253094185793
93.0067813997009
92.6711314655945
92.3885622079713
92.2215037680291
92.1123595506164
91.7881861510788
91.4566429319298
91.6220813734708
91.6200576470888
91.4719748497554
91.3574528297301
91.3127522652388
91.351838640767
91.4167295087085
91.3196425536993
91.2947119823889
91.5396290384919
91.6952276486504
91.6504963914604
91.5346323404614
91.4540291202965
91.4199424970798
91.4927526614401
91.3729841303949
91.0649905299141
91.1520004601871
90.9724848133644
90.7806049561162
90.6664410160433
90.338691302792
90.0699563013993
89.7911733061149
89.3795696675262
89.2264186398112
89.4055231349423
89.0333410248404
88.5893646525573
88.1545886900397
87.9577764278992
87.759126483643
87.3235841098965
87.1299411256816
87.0414429963363
86.6336462782376
86.1487423595625
86.0303380587824
85.956830219552
85.5638160467048
84.9668143622514
84.3546547594607
84.8248892842227
85.2075965764974
84.4563425294359
83.9905236515998
84.2334138238553
84.1916261362892
83.8598753085478
83.5199013944499
83.0706071707162
82.9920810700239
83.5448670980913
83.4095560368999
82.9761325888971
82.7869958184329
82.8337191346995
82.7506356687
82.9095617165741
83.1071064186989
82.8020185243044
82.5789270749205
82.9925874660031
83.0711471724122
82.807510106097
82.6767800193175
82.6714460369374
82.6854267161327
82.6054510543484
82.5891883242324
82.6084799153629
82.6140590552412
82.6022298334532
82.697961522918
82.8274681039722
82.9417357514052
83.0843620243644
83.2625242928107
83.4427471282967
83.6441922089388
83.8222687650481
83.905730353557
83.7728515720474
83.990937219781
84.7053362274189
84.7154446791143
84.4425869892814
84.765179715262
85.193099152344
85.2876140967696
85.294338244445
84.8913422865923
84.6243105518135
85.7724143028993
86.0496918527904
85.8573131403416
85.8493638710319
85.8479273383835
85.9989033573445
85.9454353909409
85.8638034412749
85.7655006149472
85.7611547453516
86.4804518948053
86.7459567565046
86.35166174207
86.2991672768882
86.7239852595539
86.7565312669845
86.6495282663982
86.6737585457258
86.6784875876403
86.4983555887763
86.6571656147061
86.5754335568081
86.369697435755
86.4533321156931
86.4140388972108
86.3607425156291
86.1620169230242
86.1118147688386
87.0997367692725
87.435153882364
87.1292261743625
86.9346754440491
87.0181376945122
87.395230852325
87.6860029535133
87.535343224456
87.4206417100692
87.7020348896733
87.9543849124047
87.9783740314003
87.8362062724775
87.7592681294019
87.7213879700726
87.5359733534298
87.2673432888289
86.9906106359265
86.9176823968503
86.6878903509962
86.095428984682
85.5377926222107
85.3860109758853
85.3886284533593
84.9689596513245
84.4579568685856
84.4776162053085
84.9730221856529
84.760357663472
84.4101608897084
84.163671430563
84.1451126630931
84.2539854139439
84.2049973742364
84.0785837597312
83.8946527736001
83.5878196302597
83.5619819679043
83.7113400084763
83.3611732758631
82.9592301599051
82.7544111150025
82.5849519937657
82.3058275663619
82.1291894584517
81.8139064927342
81.4688470607136
81.63395395557
81.6455652715205
81.3920820047375
81.1870793327645
81.1280659708701
81.0872101222744
80.9756956906283
80.9992388676745
81.1171111780864
81.0281170066699
80.9522388648548
81.0849856286715
81.1088594991732
81.2971806195845
81.3380791969052
81.1101282970663
80.9350347483685
81.0188257749857
80.9891923007731
80.8071048180043
80.673694231539
80.5711054565405
80.4679077640587
80.4009882135318
80.5370718478187
80.5948037373092
80.529024258861
80.5617480787946
80.5886128894815
80.5737290146531
80.8190904437419
81.1181520954698
81.1931452383717
81.2170208916748
81.3164972858933
81.4632025797392
81.5908784636749
81.7095929851095
81.8457013556217
81.9758851064776
82.0713007463361
82.1107362229054
82.2205294724495
82.4312490612637
82.5538679238327
82.5834652975882
82.5850208367228
82.6426078137355
82.711527434052
82.7715609686203
82.8209684873192
82.8514251152272
82.8385059776764
82.8441651038465
82.8918127926251
82.9174012590012
82.9198180885364
82.9395005105795
82.9562551726423
82.9822170237118
82.9996766704337
83.0166335074892
83.0477614383657
83.0915629777189
83.1308462285243
83.1550060405307
83.1929487126258
83.2381141297194
83.2478077064048
83.231685201681
83.2467926250273
83.2622392253624
83.2336511999304
83.1846183648862
83.1332038496214
83.0873131115851
83.0103061392313
82.9279772109359
82.8482844122718
82.7457615773008
82.6335598326007
82.503732092703
82.3672818897992
82.2153306849533
82.0527815294041
81.9046561447553
81.7610113501341
81.6053493352483
81.5029335193296
81.4439424798218
81.3725584200384
81.3165882180829
81.2948785612598
81.3062882933939
81.3626884826266
81.4356124417366
81.5089679260264
81.5946753886989
81.7129016847232
81.8507929321871
81.9839371854855
82.1478701465745
82.2971294661907
82.4432582693227
82.5947056704297
82.7587632496822
82.9118350111891
83.0374439748181
83.1796495339962
83.3429651626695
83.481458236945
83.6328768721871
83.790730779395
83.9231614194873
84.0668854940045
84.2242627072275
84.3844013238206
84.5686643279045
84.7676337875222
84.9615771830656
85.1140040124886
85.2188735121946
85.3010089370244
85.3071611364911
85.2687673868384
85.1992388767766
85.0345989732345
84.8267123138822
84.6366518875561
84.4225932205705
84.1466925944403
83.8639797435653
83.5592092223659
83.225607891946
82.8341470657005
82.3897180252877
81.9325352491502
81.4404723871217
80.9312089054277
80.4875975542906
80.0526851408101
79.6335750999716
79.3023505206533
79.0622423828419
78.8543649132796
78.7044659875795
78.5762962955618
78.4731998725307
78.4132253930807
78.3412186232754
78.2040187814035
78.0008088431866
77.7707099971848
77.491261251205
77.1432266109072
76.7667469994158
76.3987913915924
76.052133981863
75.7090942072738
75.3916768845958
75.1019637272357
74.8038759124725
74.4750905866428
74.1507046739418
73.8441839963907
73.5205379447595
73.1605789141529
72.7752386937538
72.378734454723
71.9876894618928
71.5907617352027
71.1973180733958
70.7490723818566
70.2767025958669
69.8072585909019
69.3287559591547
68.8132772393004
68.2685253653546
67.6629326738231
67.0168794989655
66.3530606587675
65.7261282987363
65.1143460386809
64.5205741986137
63.9804745342237
63.552425141068
63.2022600929188
62.8948942946608
62.6163856730574
62.3568629018149
62.0569694975748
61.7358708455292
61.3543851772143
60.9571793383502
60.5027107698316
60.0189815869201
59.5079354121252
58.9757436424643
58.4055212468862
57.8379813290927
57.2640493632504
56.7203896085565
56.228272228012
55.814723772358
55.4252827302005
55.1251641996906
54.8631147056236
54.6051634151175
54.3956907197231
54.2350418048616
54.1061990128271
54.0301948475762
53.9619006207785
53.9397062204512
53.9717610706239
54.0685119113675
54.2033278471484
54.4120946057126
54.6644647657188
54.9894336873489
55.373303008457
55.7562736733023
56.1155624530775
56.4826649862761
56.8397894218204
57.1841410217811
57.4914584248809
57.8243207628061
58.1462499215133
58.5193408076647
58.9276234603633
59.3267711548988
59.7261300523201
60.1099091136712
60.4688596286255
60.8480223287933
61.2185728111395
61.6173685948827
62.0311926197656
62.4619777128386
62.8775038982719
63.3114878252559
63.7219333213635
64.142191700511
64.5407329781411
64.9518861821037
65.3958803085786
65.8223303823993
66.2233894868683
66.6616194496641
67.1250073402038
67.6025025775257
67.9983096440882
68.4024556138757
68.8303335633537
69.2751375559811
69.7176653532045
70.1391770588169
70.5450542502227
70.9252921676149
71.2630034740561
71.5891057088341
71.8815878002069
72.1536879581341
72.4016303105213
72.6176464160784
72.8160117757182
73.049969225162
73.2842950001373
73.5052690167913
73.7024945719973
73.8696133083447
74.0290338323832
74.177834620748
74.2632765262188
74.3269996712408
74.3821107974465
74.4274402455955
74.4642856347227
74.4938754270765
74.5527691643392
74.6968476101508
74.8569174003125
75.0859918957493
75.3678921465665
75.6026547716695
75.7850081800164
76.0011842774283
76.204681193832
76.392512731117
76.5420634975392
76.6609777519819
76.7827370123659
76.8819813703661
76.8977687848576
76.9276663905862
76.9949598604653
77.0885155535298
77.1855992789454
77.3021934930495
77.4152672585379
77.5036833859604
77.5585003265389
77.6852249980684
77.7853147715025
77.8307563484084
77.8670218107915
77.894749244079
77.8937604974642
77.8960359024379
77.8872089493628
77.8501814811225
77.8275828493337
77.8607772646149
77.8858534269527
77.9000167504195
77.8845034470046
77.8930862320471
77.8766861678346
77.833041098383
77.7879246888523
77.725765282473
77.6238184654691
77.5516847908761
77.4580933886168
77.3412344856669
77.2348393274501
77.2230507773576
77.2359057311159
77.2312198645251
77.2121651190077
77.2342033781163
77.2447313077884
77.290650128839
77.3299947494871
77.3629943659433
77.3504003889795
77.3272110706169
77.318918044272
77.3083488363529
77.2882254722381
77.2565269733589
77.1816933381834
77.1369498004984
77.1154879877458
77.0885259304799
76.9993109694146
76.9474703942998
76.9180593241175
76.859260818861
76.8166170762611
76.7978032380862
76.7249834275317
76.6553644993236
76.5990372364352
76.5914143829326
76.639915626678
76.6567138558288
76.6113189732632
76.5760854267797
76.5181498947758
76.449763509423
76.3760184706254
76.3026263457087
76.2302335970224
76.187041433015
76.0522974774146
75.8947949210119
75.7680158115859
75.6254916329384
75.4761669774336
75.3767995362591
75.1791842617414
74.934694540879
74.6752713156485
74.5134731916584
74.4026396701904
74.2817847641483
74.1290643594633
73.9611070534517
73.7817738111995
73.6654964504837
73.561808868335
73.4539213432568
73.3144687665128
73.230461733147
73.165724922379
73.0762793126118
72.993143355417
72.9610178740856
72.8940062337057
72.855782232445
72.7363898829689
72.5734607763159
72.4143756385771
72.3088363307218
72.1571090852909
72.0028911125241
71.8970058077531
71.8412781966905
71.6673440811021
71.3604054492636
71.0564437196917
71.3594423162291
71.2102311744364
70.8831201128856
70.7797173495612
70.6772371849147
70.5014574313945
70.3749897792129
70.2795580219248
70.2071709467054
70.0868654883926
