1798
3999.43349933624
650.420452594757
1
128
4
93.1576364683069
93.1242627492043
93.2249035770791
93.2959903403501
93.2005504819812
93.1500776246176
93.1122759071777
93.1090973500764
93.1795749543096
93.2018739660019
93.1132042248962
93.0844162167474
93.1360996937314
93.1981911231189
93.2068223876456
93.1886597668811
93.1392641279374
93.1962119652447
93.2199963991423
93.2158932283045
93.2151383346899
93.1771819109606
93.1569267585309
93.1694159148717
93.1367698418923
93.1231225020429
93.0495908102958
93.0643749825032
93.2086757747969
93.2969453917322
93.3061505940087
93.2492002061231
93.1767986274717
93.2212373800886
93.2271426817196
93.2238675749595
93.2084482720506
93.1741109313023
93.1799788973929
93.2452319939402
93.2285120878905
93.2393247368507
93.2452598313735
93.2034030812605
93.1709794508526
93.2037598572021
93.2542697481282
93.2866954496547
93.2395835028394
93.2111255901752
93.1978076269043
93.1361875434142
93.0960239850144
93.1701554499723
93.210248635333
93.3429212475369
93.4412989936518
93.2845684565797
93.1019708640787
93.2581937042867
93.4287258714999
93.4344968693957
93.3258145088136
93.2235467432305
93.2421048497264
93.3601139070383
93.4275718927106
93.4489915897257
93.3411869695544
93.2748268308852
93.2992937884636
93.4151284906592
93.4488036953436
93.4249824474098
93.3340845394349
93.3067698103301
93.4671645481649
93.5897008656034
93.3225428852772
93.0734122632969
93.1830865620622
93.5056824776755
93.7619322649116
93.6259239806958
93.353322492217
93.3441868460461
93.3950896399051
93.465195508994
93.5590556921269
93.6219229323965
93.6218747770093
93.5528156511834
93.5391511601704
93.6315241268474
93.6615862264824
93.5748577316513
93.4293295201586
93.4516951476879
93.460174705874
93.4277767617575
93.5017780341568
93.7188493986918
93.7807468596971
93.5872583786824
93.5122210656218
93.6013014762503
93.5963253157145
93.6327962070022
93.6902752490316
93.7170653396682
93.6895218990117
93.7208694277398
93.7627712540116
93.785950882776
93.7103793986371
93.6002856102015
93.64534922401
93.769267362519
93.6671840386298
93.6119133539466
93.7227368140057
93.7503317368929
93.7237395513079
93.7018923764234
93.5864732528049
93.5975201590379
93.6782518373018
93.7967790396832
93.8138183150816
93.6795032640089
93.5828119799636
93.6840114961054
93.7679925760531
93.6165308367914
93.4231804635433
93.6278630424098
93.9190783080851
93.7891986142983
93.6110726144521
93.7995489179598
94.0767127606437
94.1082031189774
93.8935016512689
93.7407666495213
93.8088127452265
94.1082037100754
94.2569717792055
94.1946813297439
94.0095381668073
93.8828412342331
93.7680285738245
93.8609510565019
94.0364379927259
94.0544185559104
93.9706569144175
93.8386287060116
93.8183546820091
94.064691631738
94.2154035905466
94.1680068363115
94.0119166412233
93.9564591168248
93.9785107227643
94.0859109088987
94.1754135808816
94.2343509522189
94.1070819926109
93.8815425169257
93.8498949971717
94.0249649912033
94.1069154639792
94.0832728416223
94.0800184500328
93.9682863579303
93.6669057310132
93.6664096680276
93.9337069596735
94.051936515165
93.9703649115072
93.9532013093515
94.0050747261639
94.0478944745011
93.9933828518737
93.8694191260476
93.6461376109355
93.6202154707871
93.7747012574083
93.8050595306517
93.5390568306585
93.3141197952909
93.4599755105699
93.6751401469635
93.6357919590128
93.5449975701745
93.3960776367609
93.2709983731787
93.2787050910969
93.5281235045345
93.5128714789328
93.0798969770574
92.8009315204398
92.8744401631805
93.0519012517737
92.9749369467329
92.6954138849271
92.6684770028901
92.7378355164684
92.7744441404517
92.7050103444077
92.5804466583524
92.4704758143062
92.3483362320695
92.2964790534423
92.2521810657335
92.0581372586619
91.9746408903302
91.9192933005225
91.8133523574366
91.7737604287945
91.8207428559268
91.5682538540414
91.226975525687
91.1665969033991
91.2735855701414
91.2819711199738
91.2545795868239
91.1477314424184
90.9194045572761
90.7655627477981
90.7732605265637
90.7252668773663
90.5469992652923
90.2443640277164
90.1014095348037
90.1004723782579
90.1921486892035
90.1280501012634
89.9261008496291
89.7830984917856
89.6378452596472
89.4198061623865
89.3928329115192
89.4509452483828
89.2824330607492
88.9912750750668
88.9417157787756
88.8759955017856
88.701861745156
88.5640841935691
88.5424094083755
88.4766993749786
88.2820200765725
88.0796366238293
88.0031001668211
87.8460819597824
87.6811487223035
87.6048103560149
87.5785770479509
87.4625455088368
87.2983836000859
87.1444778614353
87.0655364215983
86.9140715366266
86.7489355938538
86.6372518576725
86.5451592285187
86.4103022753418
86.3551846854157
86.2765115268122
86.1554730062897
86.1209644514903
86.0421313700516
85.7785518744544
85.6693734075014
85.5745501869397
85.3349517175379
85.1521005937276
85.1739237065713
85.1068078102852
84.9115866697478
84.804681351509
84.7633626073617
84.6617870248106
84.5721993810081
84.4771663586979
84.3446364227301
84.204190731281
84.0583993657139
83.9173292146724
83.9146650431109
83.8269714472489
83.6709990660976
83.5679871838827
83.4894432976604
83.3764212897128
83.3145078801537
83.2201987083318
83.1093114522796
83.0046273463604
83.0092450349783
82.9610560371794
82.7536095079004
82.5324258402297
82.5112128791609
82.5364563764955
82.4335349757993
82.2773627796969
82.1507506982124
82.0360647677258
82.0038468769429
81.8920627001987
81.7155084431446
81.6199315137982
81.6231937420215
81.5029865385275
81.4364087507958
81.3732872436582
81.2848664905265
81.2473342718089
81.1916708835944
81.0504837365531
80.9397431579428
80.8661511399762
80.8330872302089
80.7388511544114
80.7093387942086
80.6373000156877
80.5816263184781
80.5649569722504
80.5261699476488
80.5378031631548
80.4635711817079
80.2623299327427
80.1997089875815
80.1367744371228
80.117084150364
80.1161170293265
79.9992372167332
79.8208368439029
79.8485469720508
79.8733992640494
79.7536709990142
79.6704165586162
79.7474128634944
79.746212052399
79.6322435967458
79.5052630715027
79.4989683697022
79.5255634067067
79.5086166392696
79.4563046357177
79.4137982757937
79.3046843860254
79.2629302058305
79.310520872436
79.3439274039561
79.2652928353719
79.2319674984405
79.1839779687516
79.1609352356689
79.1653852045891
79.0634604739207
78.9615041130276
79.082724785906
79.1084855684348
79.0494349021535
79.0008968387207
78.9447305942702
78.8674298345828
78.8636862524828
78.9208425717649
78.9577101349468
78.8850765529851
78.9220756935966
78.9574871379323
78.8995159754783
78.8292360381091
78.8595981714777
78.8261744164824
78.8047432832753
78.8081050246677
78.7922878502492
78.8156003500233
78.8524425305346
78.7655222962479
78.7319560812772
78.7731497260913
78.8178856777064
78.7615424889015
78.7542290029717
78.7800997870019
78.7500747017055
78.6995609699937
78.7969708880645
78.8595232296904
78.8972168692465
78.8792150157902
78.9208049567787
79.0060995608022
79.0281148692095
78.9904769893813
79.035255599513
79.1080004935801
79.1460169477877
79.1092059460463
79.153824493272
79.1674034568102
79.1911455755722
79.2369062152781
79.2889491123792
79.327768874757
79.3846729769678
79.3701487474411
79.4431063176183
79.5456145733829
79.5604829226664
79.4880952912348
79.5194365804819
79.6537109911537
79.7642145244909
79.7861164980125
79.8273483976715
79.8608711231278
79.9540880743858
80.0508066187347
80.0494748459032
79.9444297746006
80.0415210323448
80.2126210471337
80.284818968434
80.3207817682366
80.3249451315708
80.2732041452824
80.3999731618021
80.5436352475531
80.6099863938192
80.6223678323698
80.6555335275328
80.7105624143161
80.8511272720737
80.9657458415447
81.03695805423
81.0343417147068
81.0783575117242
81.2174515622947
81.3275155005389
81.2803553192326
81.3238453318769
81.4825175514637
81.620773636661
81.6671808446722
81.7822558317853
81.8589049158185
81.9031498962377
81.9133971242368
81.9614323987411
82.060406298145
82.170110753111
82.2448036504346
82.3747585762312
82.4594708558074
82.4659586892094
82.5008409679376
82.5942313081309
82.6488100379599
82.795827752278
82.874620622458
82.9474569996373
83.0698182446057
83.1736043508803
83.2312097806197
83.2661256323715
83.3050175385194
83.4123360602176
83.4423694888496
83.5239652459335
83.5847705380097
83.6555345388433
83.7678061584217
83.8296210429944
83.8749512456139
83.9869790265662
84.0743056293293
84.1695804259516
84.193915747807
84.260808898677
84.3277156626897
84.3772460057834
84.4328843391825
84.5037477290501
84.5902433870547
84.7421974436003
84.7711411386946
84.7720306739472
84.8284838361728
84.8596791415296
84.9299656196707
85.055570403332
85.1179216544536
85.2386641774123
85.3272972042498
85.3101617763159
85.3150345335227
85.4264970955702
85.4822387527169
85.5816165462238
85.6734669142932
85.7175282060808
85.7173489598043
85.7441605579088
85.8362930507532
86.0029343971896
86.1219413698075
86.1909996628254
86.2150224948541
86.2176838599762
86.228614842739
86.3000389818859
86.3929992575079
86.5382714727462
86.6004988473561
86.5760518332541
86.5857605624509
86.6865084276219
86.7366414731601
86.7855061185687
86.8273284881144
86.850834937046
86.9288586072502
87.0357191275377
87.0207120618255
87.041820229307
87.115633952403
87.1685092081307
87.1770401762609
87.1982971466621
87.2506765481563
87.2391269902776
87.1556301141014
87.1892345373622
87.2628020250592
87.2608990043541
87.257073954338
87.2468726301377
87.1644768384834
87.1430970933219
87.1255436410171
87.0650156857673
87.0331369467091
86.994006968193
86.9262271671375
86.8707059720134
86.7876007689526
86.7066780000573
86.5498944767268
86.4885948991475
86.4747558667702
86.3808037081633
86.2250757677353
86.050797364751
85.9118295999141
85.7985766273688
85.6786952241708
85.6526865892671
85.5939128196698
85.3724144553146
85.1754704515156
85.0993496463512
84.9281105880791
84.700588446402
84.4854007777896
84.3216016710658
84.1096791584218
83.9510061278515
83.8258040182526
83.6856256575758
83.4821331444249
83.3161696782078
83.2087985280201
83.1552370679559
83.1266304560833
83.2169836817017
83.3806474248868
83.5203530718111
83.6459949151147
83.7869792511444
83.9164544076743
84.0470948011654
84.1127690245915
84.1951757313199
84.2725854301935
84.3127550247912
84.341535414088
84.4492340782332
84.5122297645129
84.4800899624234
84.4750749441102
84.5690497900993
84.6205542285076
84.647945018623
84.7094149502667
84.8071540765029
84.8351170396868
84.8511657006736
84.8442081296433
84.8906201475955
85.0147096315099
85.1212664371706
85.1281491956343
85.1136472804795
85.1526376086063
85.1792983805653
85.1389152296211
85.1204868467485
85.0953290409773
85.0602279751757
85.0200168043297
85.0889560457516
85.2729449941041
85.5075268416673
85.761594291438
86.03025741068
86.2195973902787
86.3328252662535
86.3974294533378
86.53172237593
86.7106890030514
86.8395086372069
86.8999502798263
86.9823960906292
87.0745472201261
87.125975456583
87.1582322697811
87.2713590617816
87.3315583153196
87.3557335035685
87.4227030066891
87.5126528442724
87.5677525408197
87.6464324442959
87.7288470260956
87.7327608938535
87.7464546647581
87.8362907464404
87.8770841098064
87.886303227159
87.911098251234
87.9891268522486
88.0363380469753
88.0925525477653
88.1366117599969
88.1571058844031
88.1622806647092
88.2239207095952
88.2891967516133
88.3148218032112
88.2849751719311
88.3416177539935
88.408531822098
88.3940429547319
88.3907315333832
88.4331503678903
88.4331684006818
88.4209182441666
88.4242252728792
88.4718758631645
88.5325720246069
88.5866791167103
88.6205906779061
88.6536910623204
88.6569486227425
88.6656949388272
88.6921665266153
88.6943235520776
88.6793122373341
88.7351520057023
88.7931716517665
88.8339277588386
88.8393784432681
88.8258780198518
88.8067465780959
88.794396279887
88.8008425572882
88.8667757731422
88.9070058269839
88.9164870479882
88.9464316739522
88.971796451682
88.9678771643849
88.9826544931598
88.9948512912464
88.9949558652686
89.0341135679025
89.0582613050351
89.0610221034095
89.0912437324622
89.123248262117
89.1216488328194
89.1091599036201
89.1474104158037
89.2394150380644
89.2693002084971
89.2429827991236
89.2618763422121
89.2621484199936
89.256774762908
89.2704226103605
89.284152068695
89.3133392678485
89.3729742244873
89.4129223521657
89.4199148450268
89.397381158632
89.4288276509096
89.4248427964779
89.4218622218648
89.4573303242928
89.478792999858
89.4772022936241
89.4718678593896
89.4635881997235
89.4937058697072
89.4963682845721
89.4860331491969
89.5003124354815
89.5323014355703
89.5590526579689
89.6134669021939
89.6525088711229
89.6966311138827
89.7414242063427
89.7737328901994
89.8242747790848
89.8546696018305
89.8842403528064
89.9279422521854
89.9369959151613
89.9552629984109
89.9981165257907
90.0892943902408
90.1564695381634
90.1517003510255
90.151304354013
90.1616080545295
90.2176293757451
90.2716818540507
90.2480317064616
90.3015316356163
90.3534862691638
90.3564055706611
90.4273681402747
90.5412506276683
90.5641115001158
90.5255797665196
90.528379882648
90.576730459542
90.6750905967864
90.7452026925129
90.7181915773164
90.7291591436636
90.669025570012
90.6513922279283
90.7951437064464
90.8526068508217
90.8575985570236
90.9132528284621
90.9634659760104
90.9284200875266
90.9197047906971
91.0132697854994
91.0492511795289
91.0503754652994
91.0709302667124
91.1116754958967
91.1609163973452
91.1252059909201
91.0480455948958
91.1164877156451
91.210460365675
91.1972449973066
91.0887800821625
91.1301240480973
91.306850484704
91.337329811752
91.3208009809217
91.3069797531827
91.3153079176224
91.3199120532028
91.2877673098958
91.3193410619056
91.3906820259224
91.4115588156991
91.3922729254175
91.3796128372174
91.4296290455699
91.487718232293
91.50003179009
91.4588020706547
91.4016774848314
91.4348165880438
91.4556895541412
91.4304907523663
91.5061590100317
91.6198695102313
91.6197694450074
91.5673691162434
91.5777925936216
91.6134309775166
91.5852988544476
91.508272496347
91.4475615152245
91.4924510044278
91.6455845107064
91.7364860999129
91.6860516954487
91.664114489406
91.7313272630072
91.6580749229049
91.6103305842787
91.7112068226523
91.7357362045992
91.6857090698806
91.6355899229908
91.6846507655611
91.7255697685732
91.7563097239383
91.826864382422
91.8566171029188
91.7690023945094
91.7171557979256
91.7828016872166
91.821348099709
91.8062723353587
91.8729317997175
91.9136333052293
91.8696222800761
91.8492590420498
91.861333312055
91.9214225083187
91.9347608637945
91.9147065287552
91.9561205089517
92.0204554449749
92.0347315370568
92.0438752247562
92.0569987036471
91.9947499969312
91.9480367614209
91.9697892769876
92.0660474445226
92.1000065235309
92.1132262808176
92.0955713002955
92.0053403059856
91.9882154561101
92.0938139874407
92.1270685710434
92.1452130014536
92.1997006564185
92.1866171200826
92.142787428797
92.1298909208757
92.0976128982599
92.0759988233888
92.1173541392009
92.0712472571539
91.9756849305876
91.9774756314725
92.0448978696712
92.0665895010447
92.0345906175315
91.9990570802504
92.059639478071
92.1538019155835
92.1548258109511
92.1376937647065
92.1694150824633
92.2374934705388
92.3539209845876
92.4345777640919
92.4822476693427
92.5367142955898
92.4645757123934
92.4116979440874
92.3994633366116
92.3406507476337
92.3061120890185
92.2654683177398
92.1874933693376
92.1501598358661
92.1794180517552
92.2389015190546
92.2619633510094
92.2430311403235
92.2179116556562
92.209772045917
92.2338649787586
92.190143046624
92.1000365463572
92.0515499515661
92.0683977357123
92.1416181121155
92.1806140621671
92.136187260606
92.1512266789383
92.2481352950987
92.3532533858227
92.3610783792554
92.330229500688
92.3807920549575
92.3695765601433
92.3777443024594
92.4510854674631
92.4077990621957
92.4065828037296
92.4773470400228
92.4304829044885
92.4595127289759
92.5860036099672
92.5714522498229
92.5536263357444
92.6292116144818
92.6374920621494
92.6479242669845
92.7563278843387
92.9683922586249
93.1194238451222
93.1634627601247
93.1536923545419
93.1090360831456
93.1979668787348
93.3625597835635
93.4308836330441
93.5544249754183
93.6907617183357
93.7129429837408
93.7390327829301
93.7189990424355
93.7427518066926
93.9431385295683
94.0874630921106
93.976183548439
93.8850150279328
93.9120004863177
93.8992868111077
93.8996527111366
94.0330210099257
94.2604773679818
94.2657091014653
94.0945806637613
94.2099410860075
94.5183449626932
94.6303495190746
94.5136354140284
94.6703953243067
94.9078803402465
94.7757425831229
94.6730557675149
94.8193425878319
94.9191467648426
94.8813748675102
94.857897077926
94.9146125272228
94.9499997584566
95.1009651170471
95.2600952774541
95.352835059383
95.3524050730136
95.4578466221573
95.6406403905687
95.8034742145118
95.640134287563
95.3628572533322
95.6917614179942
96.3000107408373
96.3941049969749
96.3001177843284
96.2828586025867
96.2701687602296
96.3258342129126
96.2904074075602
96.3948121142205
96.680796875552
97.0001234509872
97.5208014473198
97.5865750962588
97.3881070839676
97.4393294326687
97.5491925577969
97.6412691542409
97.3709591173063
96.7089514105612
96.2681130002818
96.2967785849605
96.2829028413612
95.9133686488848
95.8903360274788
96.0636032567142
95.8995234235201
95.70388691803
95.5094333894682
95.2574516800187
95.0938097890328
94.8730408755096
94.7032400134831
94.6683445106945
94.5639427441541
94.4364699231431
94.4071915592764
94.4097331975818
94.3932904435362
94.1845819307644
94.107164776309
94.2129529021998
94.3887644639996
94.4338406380725
94.4237989642686
94.4208032016743
94.4145687912306
94.4963106935208
94.5409963318938
94.5865507577688
94.6923660503619
94.7409220505283
94.6312297364544
94.5397017878654
94.4832328182147
94.5673334779688
94.6037015112692
94.5979926938239
94.734618030005
94.8592028544782
95.0363710538986
95.1259288888635
95.1749513965899
95.281809057247
95.3806781442244
95.2731458419713
95.2368636254231
95.2813842666221
95.357019696684
95.4278194525985
95.5818779411484
95.6879798814097
95.9195313269341
96.1180075960734
96.3238456979091
96.5999108671033
96.7768687643869
96.9676141398064
97.2276701979434
97.1978013801531
97.1673259828574
97.4196389674003
97.7118552356055
97.8919004077431
97.9899867473792
98.1549559079236
98.1320216700591
97.7874116742244
97.9040573606187
98.0503191546366
97.9410391052022
97.7803383767491
97.6164286554339
97.6097933016116
97.8700394141231
97.8361499933976
97.6709882999173
97.3166671912631
97.1509129464371
97.1633561718832
97.1341316096939
96.9587196423041
96.9294972234603
96.8807136302937
96.8364820239023
96.8401585286038
96.7233540863906
96.7245198297362
97.0075784645546
97.1501299350129
97.2859199106081
97.3286619396117
97.2812673122873
97.4346122016891
97.5253034691404
97.5408066186793
97.8484671690827
97.7946540270377
97.4093224824181
96.9036787111214
96.586203639718
96.7114242637721
97.0808391895376
97.0100323330913
96.5675113008919
96.2497111237164
96.1022019148847
96.0316475613728
95.9848935446442
96.0188888473322
96.0977319332084
95.9049940246774
95.6182474505437
95.5294736381797
95.5368815595326
95.4686081550896
95.4906584499983
95.4003916466578
95.1657962721456
95.0541957364478
95.0508027352022
95.0084671183334
94.9579903929794
94.9195334847827
94.8785928114271
94.8797152052822
94.9204856360353
94.8447415971826
94.8088814254942
94.8229676826962
94.763481170855
94.6967876558561
94.6570962447357
94.5866999245266
94.5491288576902
94.5828362731443
94.5505652027909
94.4441881140186
94.5275015442525
94.5782136554362
94.4920374523065
94.4447771686456
94.4977019852422
94.4726442315425
94.4276111093973
94.4041074011901
94.4371436343466
94.3785466238351
94.3116784952306
94.3704093518706
94.5016464543684
94.5026298529635
94.3448156171709
94.2704378786787
94.318988033158
94.4033693684311
94.4236501673056
94.3881929104208
94.3740095744562
94.3060363857954
94.2565993277036
94.3000019111282
94.3188245348661
94.3406571596042
94.35961729962
94.2768547442918
94.236093847243
94.2767538246447
94.3540720566485
94.3243691893678
94.325592700877
94.3158971703512
94.2231254908977
94.2142233085742
94.2031582460027
94.2226578929381
94.2983234610323
94.2802536714432
94.2954062755133
94.2995901095126
94.2953994535744
94.2611411343879
94.2476713356062
94.2440007351077
94.1973978059373
94.1968592698728
94.2512661668085
94.2414765091933
94.1789884987213
94.1422368160686
94.1875742299445
94.2554029175102
94.1853932531304
94.1040312172896
94.1549096380191
94.2151933022057
94.214579841293
94.1645057007216
94.1208299061663
94.0930702735912
94.1606088541033
94.2207337368928
94.2624931544682
94.1356293673419
94.055170158055
94.0140119815492
94.0934568344788
94.11500601396
93.9758230492353
93.7930360054364
93.6522883524573
93.4221808235405
93.3089225403512
93.1837556245992
92.8807505705302
92.4689472685264
92.1058262759601
91.8604785870597
91.6487592619081
91.3718568752328
91.0362665249752
90.829182480803
90.8307738735306
90.5636501987415
90.3805099212566
90.356860518035
90.3824326101411
90.4137187908469
90.3168553862237
90.2323060683904
90.3245382011356
90.4263491576476
90.381370472625
90.4065109455202
90.5019497598778
90.6497732247615
90.742428421534
90.7080690774596
90.5288744301949
90.3756387554251
90.4288368504178
90.2903809370976
90.1661840790373
90.1147424408537
89.8202003543894
89.7525409381677
89.5606731319229
89.310966755605
89.1379353556802
88.92359218765
88.4135987325811
88.1197566688048
88.0039724228123
87.885887272252
87.6435397951111
87.1482125280398
86.898833404135
86.6617177381204
86.2899643007958
86.0178788512858
85.8337419753373
85.5298174186454
85.1192746749316
84.7719885659179
84.5654332855412
84.4241905177065
83.968300218218
83.3519613775212
83.6621550472022
83.7346558461057
83.4847963178321
83.2542767815521
83.1177475452209
82.9868287413055
82.8665978421092
82.6521981721206
82.2575630074775
82.1983158089682
82.3036197207856
82.2644381537958
82.1338820901128
82.0715331608163
82.0053155416165
81.9098461398076
82.061449460795
82.1167705993524
81.9771047815835
82.0028148018114
82.1547226991112
82.1347324030192
82.0568103005078
81.9271926714948
81.8687392960827
81.8080244237258
81.7683214028675
81.7771019035194
81.8210251862647
81.8746250970174
81.9668410202996
82.1239017120868
82.2990866983107
82.4871250630782
82.7138289272919
82.8596887683034
82.9898192536505
83.1761543386459
83.4057972577416
83.4920824261787
83.435419674229
83.8820582593804
84.2664479194715
84.2943781643556
84.3834804687824
84.6071570022741
84.6835351579844
84.9049826839521
84.9065577928264
84.4575440355484
84.755287401957
85.2735056632965
85.4427631656332
85.6023481313886
85.4998741793316
85.4776331909027
85.4477416602294
85.3856763089079
85.4123976020446
85.2274438631982
85.4012748892016
85.9778921515887
86.1111766639502
86.0061503129098
86.1548736742767
86.1954251177436
86.1578785881629
86.1577441872443
86.1635464345646
85.9724317517214
85.9149567246382
85.9445105949618
85.7154648617479
85.7201678150918
85.7587250420828
85.8595136303458
85.9395768888705
85.7650853408866
86.0608677506135
86.5663227027347
86.7913981369205
86.9036373177105
86.8225250467381
86.8110714916474
87.0884878251608
87.2921612830505
87.3239933663007
87.3793097733552
87.4337174458747
87.5216622671769
87.5070066678424
87.3606775610818
87.2101265331133
86.9997126233686
86.744925250469
86.385279296259
85.8913778809882
85.6569187262372
85.3761298855634
84.938885468469
84.4380308534663
84.2452827801065
84.1368361226482
83.8849269325939
83.4905453638728
83.5257441620073
83.635236723508
83.6054905684432
83.4983791986963
83.3094088003951
83.199672429515
83.0797964756662
82.9864893504367
82.9119999914766
82.6990665138977
82.3557837012554
82.278328247867
82.1411196481982
81.8806974397204
81.6171130593859
81.383279755572
81.0954932155583
80.8755919807092
80.735146843422
80.4218254661671
80.2289621617778
80.2655328615477
80.2255692166266
80.1180126427016
80.0106795454077
79.9933635349068
79.9130613084771
79.8436855674965
79.9306738830166
79.9672511337112
79.9283648392401
80.0164931150491
80.0206358883126
80.0959500236098
80.1721460032387
80.0925698311517
79.9358909688713
79.8456073296783
79.8001001696088
79.6670068263799
79.5197806453359
79.3953747876504
79.3362652827212
79.2446453718719
79.2387618093288
79.3389092188519
79.3768095086955
79.4324093246008
79.5059786940203
79.5192196003973
79.648065862651
79.916805261065
80.0991011218594
80.2212633831722
80.3345604729546
80.4972478352223
80.6472766956033
80.7454262063261
80.8583254255767
80.9865982797712
81.1072173874962
81.1908364647978
81.2475687229438
81.3782636537419
81.5092649654376
81.6187206081444
81.6802275187535
81.71111249425
81.7408599686637
81.7849721019608
81.8205560926961
81.8326920610184
81.8353896998493
81.8405256188324
81.8657895610654
81.8775095073563
81.8705037557356
81.8702631185843
81.9060943512128
81.9368827553768
81.9442003471739
81.9705602725136
82.0139143819024
82.0542628954325
82.0701080166549
82.0981614436741
82.1361001879857
82.1529251602129
82.155748471526
82.1532937100512
82.137095070866
82.1352103984294
82.0963795214452
82.0359559409102
81.9698120136586
81.8901191815604
81.7884440573152
81.6755319320674
81.5544212620712
81.4234929301491
81.2755985003388
81.1157341296765
80.9635274356945
80.789814745768
80.5790031297126
80.4061547338701
80.2508397828336
80.0927228635964
79.9539352909242
79.8570690129209
79.7966196734588
79.746696438742
79.7241472226697
79.7196731204809
79.7590930696026
79.8446056654789
79.9276529005009
80.0248285829074
80.1285457995349
80.2758783316081
80.4394518502249
80.6013777872061
80.7743716033419
80.9482512578234
81.1227578382979
81.306989576466
81.4912294887158
81.6801433587374
81.8592466043099
82.0163223040728
82.1810652004298
82.3569204459865
82.5086462484037
82.6738870066005
82.8775600909877
83.0555414439812
83.2363302424066
83.4394679659471
83.6259465005027
83.8106354234856
83.976937538845
84.1052401153987
84.1717608744121
84.1847275797878
84.1434965292295
84.0441113384657
83.853176266577
83.6131225913651
83.3525338142813
83.0654925898611
82.7372200278417
82.3702384919845
81.9762178001248
81.5583903985433
81.102738684776
80.5902620729595
80.0225736167298
79.4480532074981
78.8646153247072
78.3143611532797
77.8094395171947
77.3460608181461
76.9462108527626
76.6339631466969
76.3674214616124
76.1739358173129
76.0537036215716
75.9407617480912
75.8186896612272
75.7134662157109
75.5690214202339
75.3430999182089
75.0674325027497
74.7442848239617
74.3545102452062
73.9128195010145
73.4673148009784
73.0752987659902
72.7144914782029
72.3756435238019
72.0260281504507
71.6695983685544
71.2803967546872
70.9108448098342
70.5270400636981
70.1021271072978
69.6588522118766
69.2286810699182
68.7705547954682
68.2812418184108
67.8013669541724
67.3149079762408
66.775066531842
66.2099407555594
65.6227191586988
65.0266110993962
64.3965460939087
63.7262817569775
63.0063757267779
62.2684862265287
61.4974261914708
60.745321563628
60.0114859231109
59.3456916988335
58.7630204250666
58.285667745274
57.8997141430238
57.5649859049478
57.2281756283196
56.8919972626236
56.5332305450186
56.1292163011256
55.6721794727644
55.2035466240064
54.67206854669
54.1067926140174
53.5072826134806
52.9169315075333
52.3231393950116
51.7121880571687
51.0831549177893
50.5150759769286
49.9754495267561
49.5137660567592
49.1003890121066
48.7373928267249
48.429433156033
48.1749206618234
47.9402034279925
47.7708575794827
47.6424295529741
47.5453734078064
47.4911431024336
47.5096506908849
47.5813550078842
47.7508588520595
47.9767627878697
48.2853053045655
48.62711330839
49.0315594536219
49.4915688866304
49.9648995273099
50.4077606164349
50.8549014423253
51.303720018333
51.7513121571594
52.16388060243
52.6021027630849
53.070285552464
53.5726632915633
54.0549769262079
54.5631141158536
55.0799572351986
55.6011692230008
56.0816406052013
56.5678245194599
57.074563834372
57.5956280893958
58.0879047130922
58.6073599542863
59.1491434389827
59.7055367783291
60.2345778802515
60.7622087696204
61.281898525932
61.7819970162699
62.2904165729986
62.8470186861721
63.3973330696829
63.9569798074693
64.4994256712841
65.0357074272991
65.5231932139239
66.0372752130856
66.5502252071093
67.0651313801545
67.5827084169827
68.0801164159578
68.5599232727494
69.0531359630506
69.4491583574794
69.7929526690413
70.1364281455195
70.4542954686517
70.7281304024017
70.9918327630003
71.2385921464473
71.4894822116707
71.7473729547036
72.0037214425955
72.1993520220576
72.421001129938
72.6103194253229
72.7291291777715
72.8219642268067
72.8989131540168
72.9567312883482
72.9738694266475
72.9864025117501
73.0852584025474
73.2099202667024
73.3660332826898
73.5744856831637
73.8171026065825
74.0483645889632
74.3290206369624
74.612982339597
74.8878046250354
75.1211591473611
75.3319326098535
75.4942873393792
75.6444723855543
75.7505832305458
75.8679491430354
75.9901295388996
76.0759526677001
76.1421565833249
76.2499548877056
76.3486143074432
76.4189640461253
76.5302514743698
76.6679321084667
76.8027876000426
76.8961685602831
76.9053410196987
76.9506208406457
77.0236154400375
77.0772016161527
77.1259065292054
77.1242475944433
77.0906905173053
77.1075266825444
77.1253256321556
77.1484462698734
77.1660632038559
77.1733053399363
77.1489625854926
77.1384077304669
77.1062394777143
77.0513871559754
76.9965339585128
76.9275662388998
76.7805880664459
76.6290902388805
76.4914208851893
76.3848138277782
76.3308253756288
76.2904008456079
76.2185961606342
76.2127471235727
76.27114188021
76.3296486779599
76.3658186402278
76.38634503907
76.4068922658647
76.4640590486213
76.5110498991319
76.5149833381994
76.5002596638808
76.5253827603636
76.4929831194675
76.4443978806601
76.3898341900592
76.3638031835969
76.3270386579529
76.2699517516917
76.2036184205906
76.1445610502379
76.1097322936025
76.08739242238
75.9929018373266
75.925546827204
75.9224692354179
75.8914974171534
75.8307990089411
75.8247165102698
75.8220437325326
75.8179354403236
75.8022794821458
75.7875274374031
75.7681803597607
75.7341345246581
75.6514222668029
75.5836130478388
75.5015967466281
75.374794229937
75.2160290344111
75.0597089418901
74.851415890358
74.6551062891995
74.4809889984966
74.2741918186553
74.0753885953293
73.8778821442956
73.5817859132196
73.3504952792173
73.1670041409026
73.0166129208483
72.8583800572678
72.7113568891065
72.5386170451553
72.411314805556
72.2563042717347
72.1331574445819
72.0127887754995
71.9372884187681
71.8603555008242
71.8013479718948
71.686277881527
71.6118046806913
71.5349773983115
71.4440153805201
71.3501347037904
71.2391751887292
71.0626460171557
70.9343998639348
70.784507409499
70.6230576395779
70.462979464794
70.267351129405
70.0915818490856
69.9696292570701
69.6759024481463
69.6755154683612
69.52951946392
69.2041610227629
69.0448671750801
68.9329673684675
68.7804940106682
68.5778562229669
68.4478342292232
68.4471681819913
68.3064506827868
