1798
3999.43349933624
650.420452594757
1
128
4
95.0746603724504
95.030058049842
95.0652350737815
95.1214576627722
95.0486382385002
94.9811336758129
95.0115369571156
95.0653052795025
95.0513447177584
95.0546406855372
95.0882055265568
95.0823332845463
95.0611772645181
95.075228149181
95.1208175171683
95.2015024843757
95.1437149176472
95.1323906490238
95.0850317497119
95.026098389641
95.051609296871
95.0795993795487
95.0840680627759
95.130649429311
95.1486488702316
95.0974498638142
95.0104193187598
95.0570875742859
95.1200776744292
95.1741948814167
95.1423556249954
95.1646915765745
95.2354965331876
95.24141317622
95.1230163788584
95.0951902218811
95.1600815697114
95.2151205136201
95.2304051736897
95.2187891708795
95.142335562059
95.1338275591533
95.206266001975
95.323767990094
95.3107841783147
95.2541936619754
95.2472542245571
95.2972101787064
95.3188827052482
95.3100356596141
95.2096598799
95.1667493832483
95.1208605184606
95.1094670837967
95.1931387968936
95.3436735459582
95.3569793648927
95.3425173867762
95.3039343207639
95.2678851572476
95.3094679581261
95.371398246228
95.3687064199969
95.4402271975899
95.4080460171453
95.3087330424879
95.2989922134132
95.3198827861034
95.3018665471588
95.2246272497699
95.2836375154272
95.4416995986456
95.3517217080728
95.3227127930732
95.3539048739267
95.3458319926282
95.3271818675883
95.3055469274764
95.3835690577189
95.4673073411579
95.5762582535378
95.6654253096078
95.599081805591
95.4731175399119
95.3528740092518
95.3158738717648
95.3750567530508
95.4805545188529
95.4236232632009
95.3300511195127
95.3822512683591
95.5107015299021
95.5539284828353
95.6228079794199
95.5665351503931
95.5309316196634
95.5613557740852
95.5359547554529
95.4098271330433
95.4611929624011
95.5359756809533
95.4873379535068
95.414362656218
95.48152124103
95.4350229533955
95.3966060293456
95.5285656495834
95.6152056344141
95.5191776837152
95.4962236253273
95.552202084365
95.6119156632452
95.5962203915465
95.5985076417838
95.625149103574
95.6255260270415
95.5621624641314
95.5092359725234
95.4692669405221
95.53517192955
95.6459583482638
95.726061477605
95.6638215439669
95.6310959271393
95.6509731952741
95.5934214397248
95.574831926184
95.5732167193214
95.5238693247185
95.5891686311503
95.7254332745221
95.8233813668639
95.7863806602801
95.6408357239228
95.5715385673089
95.6715331301794
95.5784527747432
95.5844943250979
95.7725550332662
95.7272816510383
95.5976630917513
95.6798261169168
95.7292507315577
95.7347708623728
95.6755524836879
95.6617997039964
95.732996239208
95.9448850252456
95.8856782082789
95.7367339028468
95.696708048281
95.6890263719959
95.7576994830169
95.8555346500339
95.7727406054111
95.7461487625997
95.7642553319999
95.786162239599
95.6804807556088
95.7301766971862
95.8639867949939
95.8286447256334
95.7252070987235
95.784473463256
95.8296726057109
95.8404346316647
95.7811251843034
95.8352840060912
95.8885133838682
95.8068289833557
95.7796883272407
95.9664574549199
96.001723863848
95.7509618301493
95.5568143500807
95.5325455201447
95.4707751711304
95.5017526861399
95.5632169690591
95.568149501649
95.5232657431093
95.6772797426129
95.6289611491006
95.3425620922623
95.1650427283657
95.2364479857252
95.2041937141537
95.0280064857966
94.7776381300981
94.8900297981699
95.0798501871992
94.9588472170781
94.8659833012115
94.8655185593488
94.6656221267638
94.649154438566
94.6464918861746
94.4310438028195
94.2464029877853
94.2425262948009
94.3065293768372
94.3854955686571
94.323223464626
94.0978687376321
93.8950666651506
93.754335776004
93.6229018412375
93.6089615917224
93.4489817112588
93.2649215234174
93.145033712496
93.1659146629486
93.1398523299405
93.0578459410576
92.9852051382166
92.8762525054223
92.73330570523
92.5998588798862
92.424962228093
92.2956054547593
92.2028657850704
92.0574883585139
91.9543061264532
91.9620438465444
91.7323617761862
91.5806606437188
91.4809624575443
91.280868763734
91.1355401894726
91.0234553150996
90.8464540404576
90.751279523913
90.6305458294216
90.511982931633
90.5607344860029
90.5884846788121
90.2695850333776
89.9569067656312
89.8223091935231
89.8170700310341
89.7341818485359
89.5532417305404
89.3190333197804
89.12569717661
89.1044081724348
89.1103677538646
88.9253385682067
88.6965535018008
88.5232003568004
88.4245056376739
88.3077503612905
88.2194571746528
88.0187251654606
87.8412895235317
87.6965260781298
87.5971532633855
87.4774712520128
87.4672888787452
87.4394094911025
87.2888997785395
87.0468109451027
86.8585808791788
86.7276159594407
86.6664868147229
86.4157560021975
86.2559429433711
86.1757108572243
86.1348244148879
85.9987835439411
85.8580385891773
85.7324365355603
85.6213259650388
85.3558783748559
85.2124590409456
85.1389999715414
85.080288753499
84.9128938081744
84.8030100186389
84.7081048647124
84.4835082621449
84.2675202245344
84.3567550986798
84.3204448396192
84.1712004210889
84.0129609750542
83.8155250043508
83.6209507955286
83.6044043334354
83.529577265979
83.4022902112925
83.2022792948965
83.0694569244732
82.9865494843235
82.9130599047839
82.7989693107873
82.6922151332698
82.5540278314108
82.5072277744865
82.4273030933178
82.296408859774
82.1634464542781
82.0204243725743
81.8273009805309
81.7610381875208
81.7097351600118
81.6830811240068
81.591472297134
81.5429401483737
81.5316244571218
81.3928998131084
81.1715763628659
81.109671512515
81.0639048847552
80.9941698323855
80.8310082426262
80.7080286336644
80.6071158152539
80.5252784275771
80.4287167619998
80.3420249743788
80.2311981782238
80.2007072648438
80.1543955216427
80.1273924372397
80.089883713167
80.0455258862253
79.7952539002523
79.6919659992112
79.7151287162828
79.6921980546792
79.5198720882188
79.5390255892939
79.6326548272116
79.5523833560765
79.471091291693
79.4447261720507
79.2463325377499
79.1987402011024
79.120502790147
79.0607982807362
79.0412040499232
79.0817070152872
79.081855576671
78.9790397160693
78.8124738219585
78.7954221447046
78.8068930904599
78.8220397792032
78.7502457005826
78.6431042913403
78.575468384879
78.5895434732098
78.5650004653856
78.501114233522
78.4345464268395
78.4921380692514
78.4683802120415
78.3795589340464
78.3018232305951
78.2736147404653
78.2792831173598
78.3889893640969
78.3659450277878
78.2955849909478
78.3019048138086
78.3217306242021
78.2745097187027
78.3098826488044
78.2862809522399
78.2593924862816
78.2017689785442
78.1948618825986
78.2085833907989
78.2493935906529
78.1705399040601
78.0693257228005
78.0749187380193
78.1765267718484
78.1429173471246
78.1438001973325
78.0927204832795
78.138929290219
78.1750198020425
78.115803428523
78.0321852388013
78.0464920499009
78.0764309054339
78.175106025813
78.2175093479232
78.1178930519689
77.9593349446969
78.0819217374537
78.1732553155355
78.1394455848269
78.1729514248298
78.2617740665145
78.2325918566691
78.2537258391396
78.24289128395
78.233549625205
78.2632615712824
78.3628224923231
78.4012329566023
78.4689367913418
78.3978531714779
78.3753403289912
78.4591873354115
78.5796152518153
78.5994691274025
78.586084376365
78.5506076875834
78.6593699872936
78.7168203973289
78.8106033583472
78.7979799918675
78.8043396905426
78.8341901356953
78.9610574384123
78.9792566698724
79.0777852394027
79.1701022948121
79.1426484975369
79.2104256759964
79.3207224586236
79.2942751140327
79.37223220841
79.4854062409905
79.5624327270502
79.5561647506819
79.5887146247583
79.6643046681002
79.8486185815427
79.8961222795968
79.9298421822529
80.0337058404313
80.1413280695185
80.1391372334604
80.211982751439
80.2921081604912
80.3454469421829
80.4937600830332
80.5938459181461
80.615543480323
80.6622321591732
80.6407890914778
80.8077602628435
80.9677209818987
81.1019280072863
81.1781353578502
81.1817297775905
81.2451965776158
81.3935174790919
81.438378114609
81.5424866134752
81.6466180350797
81.775339430909
81.8302870748954
81.8952485069879
81.9935911129442
82.0996427324212
82.1791449311233
82.3473057182397
82.3628260559276
82.4040898002799
82.5218689400894
82.6921537001762
82.7889852133934
82.8624646024692
82.9043069000384
82.9611827470272
83.0111391783474
83.1748343521426
83.3331825496593
83.3642409449052
83.3639073504774
83.5120138200575
83.6617208044774
83.7952074803291
83.8256711285186
83.8151398259949
83.8410839596033
83.9683887861835
84.0512732498861
84.1917032357386
84.2954665050873
84.3762278916978
84.5044167212178
84.6172424127608
84.6440794683695
84.6999624912936
84.7421419967491
84.8781524386403
84.9863275415552
85.0263501246549
84.9983041410023
85.1114758716142
85.2178689381481
85.2630406469571
85.3799115669875
85.4876236098944
85.5292128465073
85.6281425834835
85.6652346159565
85.7745915329928
85.8959975362301
85.9412500195253
85.9853933498562
86.1303794484659
86.2639933225787
86.3290974621293
86.3734669998901
86.4880627351682
86.568754698781
86.6173263837387
86.6905344401507
86.7523911348406
86.8073955465218
86.910634240069
86.9236137301013
87.0031722751223
87.143291914103
87.2453119940118
87.2448527505297
87.1998068264684
87.2454279013762
87.4211228078317
87.558675388796
87.6427273334829
87.6947728307261
87.7351885173291
87.7590502283203
87.7578366162866
87.807602376277
87.920775603856
87.9482704409912
87.9592352182876
87.9672339950346
87.9826444032684
88.0467805646731
88.0671959836394
88.0577380173884
88.0344127278115
88.041156317253
88.1252730900817
88.1269070364904
88.0207206933383
87.895973207291
87.8457929735283
87.8137272002552
87.7745808376313
87.7373494949904
87.690022990506
87.6172324986593
87.6109583147768
87.4897408194739
87.3899061974821
87.2488730843626
87.100170069664
86.9960207577177
86.9776853541485
86.8156241685101
86.724539978126
86.6679054034747
86.5440916854308
86.3964263606477
86.2717712141957
86.1433822408538
85.988300531736
85.7600409111204
85.5386315604299
85.3573037727149
85.1856991810988
84.9878700434765
84.8499028944323
84.6982220720316
84.5561579795893
84.4413269215771
84.3410922957762
84.2840624456731
84.2312121612019
84.1971020789877
84.3348882209251
84.4162743258364
84.480479310917
84.564835642345
84.7697903621234
84.9108530782758
84.9391946141566
85.0391201377071
85.1648657971827
85.220571744423
85.2989897921117
85.3618850768013
85.4469794810382
85.4710248719584
85.4799473897213
85.5055908661927
85.5607929591655
85.6414412383607
85.7298819353136
85.6974178972712
85.7126432987503
85.7672308946523
85.8535136312273
85.9148979180249
85.9788890547647
86.0155366821177
86.0474750227485
86.1373162067928
86.2786698958668
86.3569279879788
86.372115927901
86.3445933475026
86.3327832251516
86.3228434288243
86.2971263074097
86.2591888568316
86.3458423327252
86.484395958539
86.6777715327503
86.8588035245817
87.0982156873566
87.3750311627232
87.5849182444504
87.6694747763123
87.7657660697788
87.9263881170221
88.0674316880886
88.1927716571587
88.3030625563348
88.3615958965784
88.4204984652589
88.45996224956
88.5448228979736
88.6600578721924
88.7763350068515
88.8400800002314
88.9446880590407
89.0243222965707
89.0610939795835
89.0614239860881
89.1143897501677
89.2066718637946
89.261126665364
89.2571215181781
89.3246676684838
89.3784477088769
89.4014587399651
89.4557470446577
89.5499793659109
89.6020515663218
89.6310942515499
89.6461331655363
89.6366533112497
89.6170974967703
89.6649533638072
89.7947338454604
89.8761184870181
89.85206006075
89.8848919364768
89.9319422631941
89.9307022894899
89.9118135257593
89.9434274728684
89.9803217625625
90.0153396300213
90.0466644452009
90.0611274764511
90.0429970937206
90.0657855975051
90.1377942165253
90.1779729208719
90.2142320786901
90.2914891136243
90.3175244076302
90.3254405148395
90.2955164449883
90.3254359208554
90.3639996533554
90.3623089960037
90.3832396744625
90.4022732079649
90.420199605534
90.4248414114116
90.4155132570567
90.4383779868023
90.4848284486185
90.5105604669259
90.5184523955351
90.5642458326705
90.6025551664577
90.6213857936005
90.6110781459039
90.6033463912492
90.631880548443
90.6598189625871
90.6925238435573
90.7231739181382
90.7706569888638
90.820406564328
90.820104684773
90.8123155427029
90.8247951717635
90.8671022210739
90.9053804543891
90.8926109734231
90.8931797979148
90.8709608017801
90.8763433964802
90.9703056206462
91.0315476029984
91.0778156759049
91.1250371713578
91.132643015054
91.1207832986038
91.1289148911935
91.1531679701836
91.1307754567944
91.1045576319754
91.1780709918983
91.2380173269245
91.2064375974677
91.2024519536941
91.2055443939723
91.2465624052869
91.3331763667046
91.4204578023826
91.4669285332616
91.4511697936483
91.4761689634209
91.5171600350123
91.519275142718
91.521033341688
91.5974100443581
91.6775263520514
91.7325763550073
91.7732335846947
91.7864684062196
91.824487979241
91.9117969512592
91.8956166407526
91.8623767689634
91.9077439503341
91.9642958377832
92.0523941793386
92.1133649336019
92.0715700255308
92.098168485368
92.2466374193366
92.3243019547679
92.2248901354044
92.1911302979778
92.2731154170485
92.3746473853452
92.4782724894032
92.5531013554343
92.5201952001825
92.4650403353467
92.5010897688673
92.5043694239061
92.5594178649505
92.6962577143753
92.6829804728891
92.6357520226247
92.6472277726658
92.6750500748801
92.7323978955098
92.752650829353
92.7816112855373
92.8361724959524
92.8536688415147
92.899054229257
92.8555622407425
92.7972673263119
92.8856495133179
92.930886026166
92.8711183928615
92.9445350454307
93.0997705997899
93.0418268230695
92.9349479036873
93.0207859475534
93.1459818509522
93.180481293916
93.1073452986721
93.081964552936
93.1071244362791
93.0923505262484
93.1253772688705
93.1126793965421
93.1667295848527
93.2199564849442
93.2130854817119
93.3059127752032
93.3461970504851
93.3074212949093
93.3081272236057
93.311008894035
93.3358176174492
93.3959934838469
93.4224423226902
93.3896420149517
93.285904746249
93.265614465702
93.3311539991424
93.4315998011531
93.4105738199532
93.364995766647
93.4280603617035
93.439540659554
93.4023141309162
93.4259895655433
93.4739258894423
93.4473644809256
93.4770440359179
93.5298418767436
93.4830038140273
93.5145753896902
93.5995336568997
93.5679827987416
93.5789016958518
93.5675804243989
93.5250695389183
93.5078728183536
93.5957144865804
93.6849197053832
93.7457917250256
93.7104382110721
93.6098296612676
93.5833762957084
93.6022402632573
93.6546869990514
93.6738964835748
93.7235608965931
93.7756351813368
93.8020910224206
93.851709298265
93.8649505825862
93.8237512766279
93.7756039769293
93.7801311678959
93.7852785108528
93.7457814680108
93.7478019700957
93.8240460903218
93.868806228621
93.8763834498891
93.9805444982867
94.0419289368715
93.9448044467297
93.8657775859919
93.8851453023014
93.9865810232025
93.9865600926571
93.9849277020261
93.9599987707964
93.921054790402
93.9733590886687
93.9412499192369
93.9445074260456
93.9775747383096
93.9851689889961
94.0032528263261
94.001822411364
93.9815642707059
93.9511225429647
93.8830437659541
93.8565368079252
93.9307334665338
94.0048152743817
93.9520405911836
93.9088065701892
93.9572038835584
94.0128710657002
94.075207852761
94.1308530903737
94.1885806780975
94.2039798909603
94.2909979887556
94.3669743951674
94.2417568610797
94.1684346450142
94.2390516535652
94.269844036651
94.1438181527023
94.0924076009908
94.0570863065974
93.9837567177272
93.9667481460025
93.9819272534966
93.9434124945424
93.9963409013569
94.0696709227342
94.1044249536642
94.1049075635399
94.090599567419
94.0480666202188
94.0000433268098
93.9888888314066
93.9563491215458
93.9611495830838
93.9907897557868
94.0511713516072
94.1946148492727
94.2669853433844
94.1994734997785
94.151087356287
94.1550891316521
94.1034559487768
94.1701422027632
94.2139129683131
94.1721195824569
94.2640260934636
94.3249565937908
94.2981404694711
94.3191887216237
94.4025745026678
94.4614729785546
94.4226601747273
94.4349573619631
94.5254785930673
94.5604129359807
94.6293226301593
94.7517970693443
94.8336865352039
94.8854735613868
94.9145516884085
95.0914287330592
95.096219830782
94.968882963224
95.0209594002522
95.0938638968614
95.2122609768081
95.2442459312858
95.2664037013953
95.4489604878536
95.5674985210866
95.5597652592612
95.6146719542388
95.5795018012912
95.5135688455607
95.4664873754111
95.657612758983
96.0551781148571
96.1160686267043
95.8850392228415
95.8788757654551
95.9991646190088
96.0171627394567
95.9862476845542
95.918496478386
96.08727315624
96.1618595346468
96.0840680168567
96.1872673183214
96.3917692523719
96.2945732761387
96.0832835056685
96.3400038961976
96.6301369528386
96.6859437254699
96.5698512155662
96.7116020487803
96.8684164012351
96.667026701103
96.842022730918
97.0448492947607
96.8951597683248
97.067383411007
97.3003208259215
97.2749800234285
97.2972246099733
97.3039058820497
97.4458748542794
97.652308043521
97.5477575191225
97.5965161413766
97.7068267148156
97.8217619639531
97.7671504555364
97.589956995779
97.6313788954464
97.9874748715545
98.1460842959645
98.1637031047222
98.2644822461367
98.8317287070582
99.1004907265515
99.1049249270775
99.0770367982051
98.9266458662966
98.411406993586
97.9279904561155
98.1288011120402
97.9593277805436
97.4375162149886
97.2749140361842
97.0300729106863
96.9823342774646
96.796179389933
96.7366768116731
96.7048084831108
96.5722401979332
96.4211480479826
96.2838067640867
96.0431176499024
95.9684463334459
96.0220118925189
95.9814508722549
95.8625829130682
95.8612433949649
95.8628254786262
95.8584574315872
95.9119626840722
96.0021974044198
95.979849937382
95.9841213092993
96.0252690391054
96.1700928246512
96.1263712749356
96.0468902110938
96.1209293940281
96.1634680185745
96.1379616411109
96.0918534380621
96.084485313314
96.2617928657157
96.1592228396201
96.1096474024333
96.2261280734558
96.3089280157651
96.4011322806958
96.5139601140597
96.6421684460578
96.6594463348146
96.7403094773453
96.853059327808
96.728263910813
96.8345143142364
96.8422332576235
96.8062202833006
96.9646768019758
97.1184717748493
97.3980514129403
97.6052784235259
97.508388764112
97.6166200767165
98.1304029261799
98.3746775534157
98.4783274015787
98.2896543653654
98.5168950007983
99.3025767871221
99.5345854008489
99.4505528520883
99.047161380302
99.0081560757089
99.2949656794925
99.0444900255518
98.9855501253871
99.2010647312585
99.1791751632902
99.2944908715916
99.5145733094211
99.3178614013956
99.3797167743222
99.3733937652343
98.7623021168905
98.5272682466523
98.7519458613781
98.6566688621183
98.3480590086865
98.2887917376511
98.2790124658479
98.2328369448955
98.2314189351775
98.3709408652379
98.1765779242708
98.1480969873771
98.5457635941964
98.7390684618862
98.6376470674896
98.7219247270027
99.1249090000994
99.1096726467196
99.0806815916861
98.9829707156604
98.6955279860714
98.8265843140292
98.5546400209838
98.3874932014227
98.4944000609262
98.2877602339893
98.0511569239088
97.8721240897732
97.7949064385944
97.7190965280311
97.6031197019917
97.3635044867701
97.1815318394919
97.1870403327618
97.2071267566234
97.1947961835914
97.2451769279336
97.192863125341
96.9063233612862
96.7554125231998
96.7296499202931
96.723042767342
96.6461994606932
96.6046887423693
96.613251249925
96.5768363963924
96.4882631159243
96.3551138460449
96.2980757857876
96.3635630314116
96.355773173091
96.3377583288583
96.2020841478007
96.2106330647426
96.2587365767235
96.1991990913101
96.0775790535333
96.0904142703385
96.104246070436
96.1350850567389
96.1204580334766
96.0401304169069
95.9715739106007
95.9856918533811
96.1140083777184
96.1152883029531
95.9931348542691
95.9229711984228
95.9799684432102
96.0172418268483
96.0042196099704
96.0564568940598
95.9905038615141
95.895684130988
95.829765468248
95.8616259409744
95.901996476582
95.9008607927416
95.89868734122
95.898987692614
95.8825861236259
95.8686093128752
95.832785058289
95.8159822403631
95.7965062638782
95.7975698871868
95.8311763559119
95.8750479574717
95.8414137942382
95.744317453937
95.763160809781
95.8193630332035
95.8026952024944
95.8071541473473
95.8350602196325
95.7964574808441
95.7509450133914
95.8115806890795
95.7603784514403
95.7331252308487
95.766515561575
95.7930681743099
95.7227928736504
95.6710068237299
95.6932763990794
95.7020369711042
95.663571314456
95.6812160669481
95.6777156427859
95.6702523090072
95.6543938689681
95.6262535252916
95.5956146083115
95.6333316074962
95.6876832368565
95.6342613429181
95.5309330182583
95.5439164323294
95.6652933619787
95.6542594741937
95.5774142922724
95.553153942259
95.5275647235223
95.5110536673079
95.5313035670965
95.5482327346256
95.5432862840817
95.5288490651061
95.5087851710301
95.4741044071043
95.435749244261
95.4036961036583
95.3188521710548
95.2032870884752
95.1153688062513
95.000801773385
94.8399307996737
94.6564886214746
94.3867655985343
94.1290812187473
93.8949327898562
93.6538139889168
93.3639521726039
93.0450404490066
92.7285721870104
92.5033496356638
92.3726199379622
92.1502654122886
91.9053452950988
91.9657598685659
91.882387988972
91.7675178186423
91.6929105793528
91.6259133155038
91.5891122912693
91.6328481874185
91.5399598551366
91.5316151733788
91.7481710517923
91.8582742372682
91.8030781461534
91.7162305506838
91.6053672276579
91.4624828086231
91.4462194634832
91.370826628212
91.0826622964201
91.0951496847488
90.9144275200192
90.6277840696481
90.4530991282382
90.1206228727151
89.7522897180902
89.4706755004202
89.0850260979086
88.807570880051
88.8154210241522
88.5309556982122
88.1149432878227
87.5983075613939
87.2480425921411
87.0345571455781
86.6093109154873
86.3072692224926
86.120844995783
85.6888236093887
85.1749744867857
84.8917653128294
84.6730370640421
84.3243949223028
83.8238305219236
83.1677372991905
83.3947615256813
83.842022889758
83.2408529062297
82.7625456862474
82.9189275771024
82.8461417213692
82.5233676048997
82.174193282464
81.7403539316647
81.5993767607569
82.0260453325914
81.9831293815888
81.6536716492166
81.4571320109537
81.4749582717756
81.3840551390796
81.5167245237947
81.7575967457936
81.5391883517517
81.3151237537612
81.7189169831988
81.9230763477572
81.7278951397087
81.5525955252093
81.4800979675021
81.4673749918111
81.4030535175648
81.3560042659526
81.3581468573836
81.386707876047
81.3686176734022
81.4453625365281
81.5945042277117
81.7643826991569
81.9312768112971
82.128149099367
82.3311495315452
82.5539252713385
82.751090770784
82.9319525701317
82.8345901266376
82.9889539946329
83.7985034762888
83.970150174102
83.7322867565225
84.060562752559
84.4616257538673
84.5611831312858
84.6776687012987
84.3503597061046
83.8809300332752
84.9869732861444
85.4844344448159
85.4436179840058
85.4070069005652
85.3424359504055
85.4971477390377
85.4485634625984
85.371613505711
85.3624091619867
85.3351164442526
85.979894254009
86.416450016003
86.1488804828803
86.0993456367086
86.4823169768355
86.5273784777885
86.4144760327334
86.4511395544176
86.486750462991
86.3140878669336
86.4217406417071
86.347483517932
86.1472620472053
86.1834859698609
86.1232930053153
86.1113562436792
85.9783822304795
85.8861879713222
86.7697633301324
87.2189036463398
87.1262002426275
87.0149211482074
87.004855777131
87.276544868769
87.6345668013341
87.6016531766198
87.4708394106046
87.6575617402517
87.9007510172045
87.9644165025749
87.8344369178486
87.6876080819451
87.5355989568163
87.2746911602941
86.9833894039184
86.6458335990174
86.3800195509984
86.0651907261989
85.4868030323829
84.8791532492017
84.5545402858755
84.4817529961773
84.1416653740715
83.6402902547321
83.5297409515649
83.9745476400063
83.8345181271183
83.5587176729842
83.2991871370463
83.2166697648813
83.2436320202543
83.1478447329983
83.013232922283
82.8690464365279
82.5213558484443
82.3870000858918
82.4897145448604
82.1602975291613
81.7295134538519
81.4705415780649
81.2587739251961
80.9254121580997
80.7005179394682
80.4298267360909
80.0830011216392
80.2113575493532
80.2380816095542
80.037847188561
79.8460942522741
79.7542847175137
79.7227672773155
79.6296281360082
79.6538173238697
79.8357204561811
79.8075234505457
79.7570109281383
79.8701899501656
79.8852556139119
80.0704221518099
80.1435015070115
79.9282559013504
79.724836211061
79.7898870881529
79.7659416545765
79.5746896658569
79.4022643703247
79.2737869652823
79.1948765213969
79.1058338575923
79.2147445703345
79.3163806794295
79.2840550549197
79.3317054022747
79.3878223618491
79.3742504999909
79.5961338018959
79.8944279743954
80.0036080669194
80.0739081112714
80.2145802714696
80.3645903609231
80.4913771145336
80.649433599722
80.8042542873101
80.9089849629732
81.0035586989343
81.0500591777794
81.1437086602522
81.3646748914994
81.5066064237151
81.5567828025249
81.5700429064591
81.599480484205
81.648262752797
81.6879004534843
81.697660896262
81.7172903630947
81.7330244090245
81.7656221686428
81.8228127321749
81.8325414448041
81.8090703090649
81.8548444702122
81.8986827066226
81.9108426965622
81.9545007478836
81.9982170285718
82.0446066581271
82.1014581338703
82.1573517525154
82.2076931651707
82.2492526303186
82.2617620955326
82.2599934211358
82.2429130884722
82.237144795999
82.2470899304077
82.1999338139814
82.121206747916
82.0646345550942
81.9730356107694
81.868472038879
81.7580475220116
81.6252288790501
81.5021626794978
81.3874933690412
81.2728919300906
81.1047696240591
80.9128784174218
80.744987651968
80.5715656239059
80.3937358401889
80.2295512862392
80.0953205201919
79.9888089599313
79.924569665549
79.9185692823983
79.8972218070272
79.8987510609142
79.9690763483832
80.0595062726488
80.1716602047222
80.3146167708104
80.4535484402973
80.600114611078
80.7703409901645
80.949794439281
81.115041576692
81.2874949336446
81.465884645228
81.6393572599882
81.8141314441715
81.9719176997724
82.1231259613836
82.2827704204077
82.4366731470228
82.5909750081807
82.7517560623728
82.9255039644344
83.1046898402103
83.2926933513115
83.498470692423
83.7164674700556
83.9110780692556
84.0966007977253
84.2743990994755
84.3937973638476
84.4361886866093
84.4060156232241
84.3325838280028
84.1807047367503
83.9468356018754
83.6929641709022
83.4227966123103
83.1336418471918
82.7760405565059
82.382586249949
81.9801184344905
81.5495578193137
81.0766792296943
80.5597144877316
79.9755362916384
79.3494930794135
78.7141677445799
78.1237456692824
77.5959499676635
77.1243562299765
76.7374118984432
76.4285063155988
76.1754467369562
76.0076879764234
75.8938951115596
75.8130221311443
75.7386467206321
75.6399905740775
75.5055086714684
75.3011972440581
75.012908075618
74.6413116775273
74.2258833015951
73.7884988441417
73.3390513879894
72.9222744583663
72.5154874545828
72.1331406801492
71.7660642901095
71.4133289889654
71.0605953994866
70.6903146523603
70.2883744300439
69.8646759138879
69.4352877807301
69.0280014204285
68.5877567894277
68.1019013138147
67.6391409696886
67.1717255393852
66.6552720626095
66.1188928789025
65.5672994109984
65.0093206514682
64.3895223538263
63.7187843224002
63.0168917772045
62.2807381375223
61.4953554649955
60.7154393919378
59.9595592857685
59.2735051608698
58.6935275737296
58.2173300968004
57.8317462919267
57.5303042498198
57.2507547462479
56.9632909195522
56.6327156451926
56.3017943429431
55.9092968415001
55.4734494004336
55.0091120817007
54.4813478463807
53.9088987352267
53.298222973578
52.647116782442
52.0030645333718
51.3538379850706
50.7491160786677
50.2246547137308
49.7627980167673
49.3756832853637
49.0752690963756
48.8385102975985
48.6418263092598
48.4713874538099
48.3511505208914
48.2587707580147
48.2253964151627
48.2421249620933
48.3352459408613
48.4821249029778
48.6859161317277
48.9770730639525
49.3519587166854
49.785912240607
50.2768815056146
50.7841638402147
51.3005270438315
51.8041879461194
52.3010663371198
52.7726414464672
53.2590245742661
53.7196444594213
54.1656240326887
54.6249448510059
55.0861165018951
55.5843307376373
56.119512910081
56.6380557315749
57.1404745882834
57.5947101827612
58.0769980088331
58.5927883603325
59.1004054862492
59.5947222783718
60.1077522631205
60.6449409289327
61.1849122367338
61.7220893460264
62.2674125891548
62.7756079730541
63.2802907412461
63.7749626257754
64.3115605075467
64.8766531433857
65.4194037897081
65.9248721763935
66.4693535123677
66.9961531502345
67.5172627894599
68.0536591265013
68.5910689648414
69.11944986427
69.631363094792
70.0959482350893
70.5142982558771
70.913478633436
71.2872380487481
71.6262745490904
71.9315832459451
72.1975585417899
72.4563712340452
72.7126615841602
72.9772626064506
73.1980185073359
73.4147823082438
73.6439983232874
73.8377112172384
73.9745709398293
74.0954141464345
74.1559986564526
74.2080591854225
74.2439109574613
74.2368984439579
74.2195075370303
74.2640698090374
74.3413795249631
74.4462149797082
74.6145206990461
74.899629555735
75.2248310569547
75.5211845923655
75.7852301535784
76.0354046844469
76.2429934012119
76.4363919137063
76.6221718846982
76.7577883746801
76.8566692960095
76.9599337768179
77.0302738110033
77.0570739745807
77.1427214934176
77.2255318813993
77.2660831463374
77.3418645131268
77.4220474432314
77.5208068520872
77.6062731292268
77.6391912253866
77.6868142814024
77.7484196619569
77.7476738446755
77.7254762182638
77.7338152473714
77.7181544789286
77.6459595786389
77.5644926003315
77.5161650395279
77.5022576065739
77.4997345477424
77.5436667753926
77.5575476771552
77.5324635067106
77.4558619325789
77.3569559019129
77.2601975280125
77.1465370090633
76.9720186495092
76.8388090167533
76.729864125539
76.5804121490533
76.4524148022551
76.3522709257828
76.2801453283991
76.2891713397461
76.3094840846823
76.3056086103042
76.3174957667932
76.3330876482463
76.3327386355553
76.3322852155852
76.3143809570048
76.2957619817406
76.2623098460188
76.2199457593369
76.1369720558694
76.0558057499451
75.9949263921733
75.9453708390976
75.8429258125242
75.7560717923808
75.678101440085
75.5981345442589
75.5635350254117
75.4994042159711
75.3572241709126
75.2680041776277
75.203204546709
75.1767997996138
75.1132487922029
75.0374506199803
75.0043125206183
75.0013067030178
74.9788251536004
74.9377147003771
74.8512537980308
74.8063328831914
74.7569374460378
74.6160725683474
74.4372861221257
74.3270180187879
74.1939912379197
73.9959675757106
73.7763751257664
73.637304834008
73.4441620720304
73.1992528668861
72.9601054259247
72.7305899675784
72.4892099905581
72.2880874908904
72.0739497692148
71.9486914603413
71.7997871868258
71.622804532741
71.4318958566103
71.2789988129552
71.1446291572005
71.0080525586032
70.8901447719344
70.8080147242934
70.6607455098427
70.5254790311349
70.4429648866681
70.3885348535994
70.2431758315797
70.1258941460139
70.0865796269152
69.9637322346017
69.7278337178572
69.6023066936056
69.4670546463314
69.314029420175
69.1892697168247
69.057646648649
68.8778713710718
68.5698136805535
68.2107993987273
68.3880218066305
68.2469338266676
67.947414043243
67.7995961337123
67.6782416789624
67.5352984696295
67.4218021653396
67.2934784857405
67.1548123879017
67.0012121263559
