1798
3999.43349933624
650.420452594757
1
128
4
97.4472245475905
97.4678171564274
97.4093841428332
97.3156271254975
97.174116593614
97.2532952449407
97.3299559251355
97.2500094295904
97.2204763557804
97.2577981932602
97.2046931683865
97.2544679166762
97.2446819739069
97.3011469953816
97.3586349924757
97.3568643054163
97.248492223739
97.1898805054031
97.1898124442759
97.2160867181423
97.2315886359143
97.3485960895605
97.3223595021063
97.2247084280908
97.2255160964013
97.3770138627773
97.4525805454325
97.425701634806
97.3721242837953
97.3935018397817
97.3064007256868
97.3418490654391
97.3709272066335
97.2943871548123
97.3207168707584
97.4808108502199
97.4218468870932
97.3324401120908
97.3416318310034
97.3343574700487
97.3048006834578
97.3750828592265
97.3599157323389
97.31827067955
97.2856497348614
97.4156441657062
97.4492899917713
97.4185775624764
97.3880082787796
97.4463128072424
97.5444816847032
97.6484327694274
97.5451829146898
97.3999241303286
97.3246781231388
97.3269417312457
97.4029474464402
97.4863796142033
97.5310233813989
97.6000825806803
97.5369502804176
97.4599529478961
97.4172652804148
97.4969342630506
97.5544263908844
97.6147121669571
97.6210244071182
97.5812855131461
97.5142163885706
97.5180170863541
97.4308616600195
97.4080749094261
97.3603634905567
97.4325093256145
97.6229169604832
97.6814361277804
97.6223041760364
97.5272746681865
97.379646692975
97.3705345941392
97.3393241862088
97.4407884971641
97.5465896105183
97.6018869863894
97.5768120837191
97.5393208922715
97.5348456427003
97.4383024513871
97.3289700789599
97.4376498796093
97.5363219069907
97.6106125937003
97.6558117066626
97.6520919827341
97.5898606957681
97.4745440270742
97.3684651792167
97.3702201756847
97.330302439115
97.3708653035825
97.4965654975721
97.611259625482
97.6483133843365
97.6497169418704
97.6383432758313
97.5733070264225
97.4004632707974
97.3116144177046
97.3961326489341
97.4323417133706
97.4184692474976
97.4922135708525
97.5726542625776
97.5651226188355
97.5073099201848
97.6003745759567
97.696657099082
97.706335191646
97.6344185543075
97.539766270357
97.4731364735903
97.4975331484795
97.5450125440813
97.6318051720621
97.665948616882
97.6731304565417
97.6367376894521
97.6022725962681
97.6711413151712
97.6807285121053
97.653562671966
97.6621687631148
97.6002024975703
97.7446656596821
97.7808703181578
97.5377544004587
97.4116019148424
97.402047872792
97.5148288054518
97.7231437194471
97.6797763456039
97.6151180949237
97.4839966815092
97.4324181114278
97.5255288787004
97.5417067309725
97.4706738677276
97.5032240225302
97.4906323417038
97.4043916199915
97.3346527393963
97.5640766650676
97.6692179226603
97.6828552689965
97.7325180321776
97.6614370386285
97.4658184808013
97.4346816748922
97.4027047544716
97.3752609614197
97.375039523117
97.4501664650915
97.4877136071041
97.5140516889603
97.5569570720564
97.6127512388694
97.4486366539621
97.217065229738
97.0498917998419
97.1859341656853
97.3630286888957
97.3790998202624
97.3763500247472
97.4671041544129
97.3509858579521
97.0913961069344
96.7604150557925
96.7244468611856
96.6051927276708
96.5072972438971
96.5635524573693
96.5872281593028
96.5093846906943
96.5335148288649
96.5120202329
96.4095396533633
96.2759729221186
96.2886451596798
96.0345680568372
95.7706990531178
95.5713999494918
95.4807175381808
95.4347747935636
95.3801925947427
95.4069694858444
95.3420510341886
95.1693430693209
95.0825317822363
94.9405928306132
94.714259045039
94.4873799171801
94.3772578166069
94.2510979930747
94.2555134023143
94.0987659762302
93.8875797899649
93.8032925526568
93.7739214615785
93.550747362858
93.3250549962432
93.2795152055431
93.1809051048154
92.9699658386561
92.8461313961602
92.6999480690179
92.6316351925293
92.5727327947383
92.5073476885149
92.2868339648449
92.0727298905151
92.0207531030132
92.0333774725542
91.7528918686227
91.431316542398
91.1798171190723
91.1053455253904
90.9677462475488
90.9454656886719
91.0153414496776
90.9588227176443
90.6238856115284
90.5424083167968
90.5443009456547
90.2683717399089
89.8781531122179
89.8236222206115
89.7944365711729
89.56415955756
89.3591569582937
89.3537463897013
89.1494316429051
88.9478037959102
88.9095194402943
88.8017164737649
88.5626316642872
88.3844582995639
88.2290975080203
88.1172006937758
87.9190378597698
87.862433552824
87.874442604252
87.8455649365232
87.6541979513455
87.4915092213864
87.3264354478797
87.129412706072
86.9345227311102
86.8449724430281
86.6382134482122
86.5476247659984
86.4865802789305
86.3682354050866
86.2719633876044
86.1838204357958
85.914240875472
85.8242002869865
85.7718324565309
85.5393537859922
85.3309011857126
85.3377462540304
85.1731614745147
85.0570558807233
85.058544417369
84.9673445811445
84.730699714776
84.6124980583845
84.4015123692574
84.310489834448
84.2711412652289
84.2479261451753
84.1207309505519
83.9264770672637
83.7241150862974
83.6439514640964
83.51962989201
83.4589964149954
83.3473545566857
83.3151760119608
83.2070568417808
83.0809686047411
82.96247648903
82.8732772306376
82.7147855434691
82.7361613629975
82.6191484193431
82.4789399906875
82.4230258920757
82.3541826219254
82.2060889145332
82.1414800426421
82.0147407300114
81.9216076473372
81.8494145502182
81.7279020797716
81.4700473027649
81.3920436353413
81.4032719528227
81.3094930891129
81.1719917193221
81.2202147939425
81.1790886420981
81.0736873656975
81.0058522248452
80.9497103157918
80.7623740703816
80.6420430118187
80.5112585501697
80.4213095063248
80.3667148266336
80.4412679086326
80.3937686218261
80.2568276615937
80.1673074316932
80.1552160225129
80.0360740908575
79.992600444104
79.815356737748
79.7761357464078
79.7152411507955
79.6637010527011
79.6648327912541
79.6184755496065
79.4725424459028
79.3940691499829
79.4218978185738
79.4712599223751
79.401107215681
79.3791746780867
79.2736380736653
79.1736248084991
79.0830795843755
79.0297280897874
78.9898677543428
79.0408464185001
78.98907951762
78.8817646517537
78.8157157446378
78.9011868648557
78.9095488602239
78.8857456579692
78.8369363775046
78.7527088375393
78.6924646779289
78.7275256712247
78.7080125202491
78.6487176420245
78.5239563133955
78.5895973949882
78.6595647703637
78.6049904373382
78.5080931411055
78.545092791306
78.4872826548607
78.5033282932143
78.4843785495744
78.4717109106269
78.4225091445479
78.4402570410861
78.3078051893357
78.3208534623239
78.3799298999637
78.3396831307641
78.2645612280997
78.2501037030006
78.220241538288
78.2600547818642
78.2628742594514
78.2733386405013
78.2600961759735
78.2550288637231
78.1242807290756
78.0712199118741
78.1143960416679
78.1221142682291
78.0774973175206
78.1414103595516
78.122094197894
78.1221040840448
78.0835788190908
78.0239250552945
77.9847570769778
77.9917045874766
77.9488184451206
78.0033819457824
77.9920336812355
77.9777984464888
77.8686661752392
77.9479596770598
78.095027758052
78.0800014616113
78.0308259915974
78.0497279220469
78.0064469228271
78.0588959864048
78.0790197012834
78.1005933699291
78.1115165846366
78.1126528512358
78.0185923093025
78.0728853054434
78.1233775023687
78.150610833035
78.185320118311
78.2487894471133
78.2506656836008
78.3913443668039
78.4532309868122
78.4058470983098
78.3767754220101
78.4207085365872
78.4390741507518
78.4689291177345
78.4904951930518
78.6018807688923
78.5791021687672
78.4944234552607
78.5528488673781
78.688572810552
78.7025566925645
78.7751606804239
78.797511228317
78.8519490156655
78.9212266121734
79.0422994107311
79.1012054414341
79.163082932442
79.0881207905543
79.1275791219595
79.2225839464208
79.3173959861736
79.3515125198484
79.3975471263945
79.4735861770016
79.5947453024074
79.6465095314614
79.7584888885548
79.8460535682789
79.8897090770839
79.8916976157209
79.9632221017554
79.9987833866827
80.0793306718977
80.151386856685
80.285498057113
80.3725520549437
80.4177148114365
80.4287802657939
80.5545897651606
80.6184978032659
80.6969762653145
80.7532557628735
80.8262821836907
80.9002001882656
80.9745292308417
80.9565566806817
81.0011864854714
81.1696391170309
81.312866930558
81.2539677579977
81.3195304134477
81.4414839632916
81.5908965160867
81.7131236314586
81.8197281417177
81.8239461510821
81.8251485058059
81.8437705618372
81.8999225081602
81.9845850583583
82.0528487010283
82.1035427015281
82.2213155110324
82.203424394533
82.1681888062568
82.1532900372474
82.2548648173807
82.3418275456699
82.4284108564118
82.4758867092473
82.5600778329896
82.6749566128426
82.7715109579513
82.8625273235959
82.9297516527273
82.9502074378493
82.9222002968325
82.9129837022724
82.9814724162701
82.9879090540585
83.1185532640204
83.1946201592682
83.2089591253919
83.2709175400817
83.4013722811435
83.4113298363013
83.44793465029
83.5573139556105
83.6825160106906
83.6986509274148
83.7082092282638
83.821597555308
83.9341938732431
83.9941676324004
84.1060710002487
84.1062507104758
84.199492243557
84.3199594155399
84.4228043767031
84.4560808313459
84.5272657946937
84.5587717749179
84.5868398772058
84.6185891504784
84.7542049442095
84.8654238766601
84.8916793935992
84.8946709812516
85.0028053884753
85.0885784878168
85.1785922913496
85.1700458423553
85.207687154238
85.260873541519
85.3034836281163
85.2614017347251
85.2972482322721
85.4176315949209
85.4519390180154
85.3972069729448
85.420405585772
85.4491209778762
85.4621417772723
85.3369334059428
85.2529576682037
85.1729181454218
85.1742388215699
85.1509675663037
85.1064399989042
85.0328580633243
84.9728209997441
84.8566426110513
84.7208984342169
84.5371546515949
84.444398821999
84.398427867823
84.3435930450264
84.2165841278349
84.0754523798503
84.0064411858868
83.9517761572864
83.8832214024201
83.8782278554784
83.8133527522103
83.7486998416037
83.7627404869978
83.7588038605008
83.6337544805989
83.5501616033171
83.3829805387286
83.2539698975247
83.1460693735162
83.0507752449051
82.9302011581915
82.8873942438288
82.8687755139042
82.860743818248
82.8915162585654
82.9355431940189
82.9105996276473
83.021136899478
83.1851716836043
83.2861046677215
83.4081334870315
83.6533438935538
83.7425435078308
83.8429932456387
83.9535408582456
84.0962154611145
84.2136748243385
84.3205947942228
84.4164552821799
84.5702515367625
84.7101024544898
84.8369984129457
84.950192856112
85.050618928658
85.0674868450977
85.1061452428936
85.2309822938827
85.3608760753988
85.3174025316802
85.2953320761138
85.3216181938821
85.3603064917642
85.3550872743674
85.3863796743738
85.4332332955592
85.4465109016205
85.421178938752
85.4948448976596
85.6053307606077
85.7533087335655
85.8191265504959
85.8912621608515
85.9449813445173
86.0027844024643
86.1079189144291
86.2121684727501
86.343442981642
86.545522748814
86.7204562865565
86.8503073535385
86.9773042364595
87.1686868764326
87.2803938473523
87.3854308348437
87.5107948589668
87.6263379951917
87.6733833914847
87.7549829379641
87.8586128219784
87.9891951952798
88.044930756161
88.0961122764167
88.178383207322
88.2591338164814
88.3215499736956
88.444235326195
88.5437033574547
88.6108978536529
88.6999972039651
88.7444938684972
88.7731536668263
88.8247770300875
88.8962879060297
88.9989220609328
89.0266023100951
89.0690590198899
89.1511025971236
89.2430100486989
89.3099922275159
89.3170917986769
89.3408400126551
89.416864325821
89.4380717284642
89.4321949702369
89.5050965051084
89.5942633010829
89.6491240112914
89.7384150466124
89.7863024394014
89.8005117428987
89.8419742763775
89.8735078743282
89.8292154477671
89.856393587251
89.9733253160162
90.0956445865572
90.0686126303025
90.047852029939
90.105712975243
90.1656647816929
90.2084407469812
90.2435473941838
90.2439808103736
90.296556635679
90.365187123451
90.386890004758
90.3611102566469
90.3667522034293
90.384222873286
90.4153195559205
90.4529498476051
90.5237062262143
90.5886271089016
90.6337521307924
90.628939184132
90.6389175321046
90.6926317738913
90.7337694362646
90.7581519323187
90.8020867055158
90.8133860043441
90.827005842753
90.8744486063813
90.9203935692856
90.9389841384062
90.9744769722649
91.0328715745336
91.0787618707622
91.097844320142
91.1004856552637
91.0741709697088
91.0900895943852
91.1394083898439
91.1659347631913
91.1831655196478
91.230158463972
91.2674820111406
91.3291741811549
91.3844973288231
91.4623231190669
91.4801386279431
91.449333838098
91.4739145787426
91.5320698061232
91.5317649065073
91.558853189255
91.5642504756578
91.5535144827137
91.6288165739742
91.6814302281447
91.6700868530781
91.6843973205822
91.750015994531
91.8271756374261
91.8611955102255
91.8421586300351
91.8407355421562
91.8790714305844
91.8972308861043
91.9717548614589
92.0488973638776
92.0789812855635
92.1344422158854
92.2043394818654
92.1982298563271
92.2437967337212
92.3306498962086
92.3732717572371
92.4250331754585
92.5037212736261
92.4913936979058
92.4666175044609
92.5090933785048
92.5958960838956
92.6751367490062
92.7225277058246
92.7047222786419
92.7354853416558
92.7772435476225
92.8163292760857
92.8692523834725
92.8867622165405
92.9355006802528
92.9777283254496
93.0801817721092
93.1680044984469
93.1169742697188
93.0624894787207
93.0400243966524
93.1390773308633
93.2836629952296
93.3251727379076
93.3464005400043
93.3847406809882
93.4446540425796
93.5450203908456
93.5701688122847
93.4957149261145
93.5331564817512
93.6089461418018
93.5570261769708
93.5315266185035
93.630497374872
93.6852813506309
93.6211746370647
93.6417798318634
93.6836979307428
93.6922564479169
93.8463793782984
93.9457458916336
93.882194995663
93.8596770419099
93.7908803162553
93.7748179700536
93.8758314326863
93.9141716148137
93.8837561181566
93.9667778807658
93.9773115879421
93.9717351087583
94.0350152398601
94.052812198698
94.0430739644026
94.1093942434669
94.1104503323287
94.0460895091544
94.032701052835
94.0740478481083
94.1350351732905
94.1874226479122
94.1432763538108
94.1718449153823
94.2272188567458
94.2569718572065
94.2774108569443
94.2705794127032
94.2817171836167
94.3343205278442
94.3733322885194
94.3455720514003
94.2682789179633
94.309132156967
94.4561403451777
94.491633528312
94.4106093757248
94.4440923432104
94.4890837820829
94.4409212825699
94.4431529893852
94.429660983484
94.46589908132
94.5596406129954
94.595940679213
94.5936130030222
94.5348039234839
94.5034440591164
94.5249879539089
94.5931809604636
94.6829047967814
94.6884016622778
94.6312701768047
94.6031991548551
94.6294993064725
94.6444908370489
94.6726816707444
94.7555144022253
94.7742375219447
94.6936058489211
94.7157330871513
94.7979435112186
94.7766260738902
94.7058959934653
94.7408321000348
94.8707578542347
94.8789036509941
94.8071092246089
94.8209019294397
94.8850000198688
94.8420735816997
94.7918152981856
94.8498981685184
94.9102297743128
94.8826021354951
94.8617104848316
94.8665553429942
94.8487925492149
94.9124537938175
94.8963674451889
94.8508774696773
94.8844353347472
94.908470024844
94.9137783485862
94.859499016636
94.8162299430309
94.8281348957286
94.8690692004264
94.8876575874484
94.949698674649
95.0098023287295
94.9844055722731
94.9498941499222
95.0007519322191
95.0975627324411
95.1438283746189
95.2115010499774
95.2078910696222
95.1333183835431
95.1112352720137
95.137808833128
95.1427491189139
95.1489354630628
95.2335649100291
95.2380836701703
95.1948901502975
95.0807410690984
94.8759625360818
94.8375210377238
94.9631560069918
95.0329246090778
95.062372713807
95.0315027110461
94.958911956412
94.9971449677992
95.0576912251465
95.0694366242927
95.0113531876644
94.867735597005
94.751928355496
94.8138459999804
94.896882741292
94.9825785266429
95.0491337330726
95.0006579480719
94.9558175951475
94.9946504902461
95.0581023932764
95.0421098979016
95.0418534191776
95.1064065602945
95.1003368291005
95.1361476189623
95.2299969954426
95.1690467266862
95.1469147974049
95.2091054344958
95.2385045513903
95.2254706206827
95.2575632225062
95.295134328428
95.3051697222391
95.4442916034025
95.5879077473041
95.6286313013062
95.7383356023905
95.7836229159134
95.7598215539911
95.7642841589268
95.8672129204246
95.9578709181159
95.9921754588615
96.1123429760984
96.0945174360453
96.1547858685478
96.1998528999372
96.1880422091672
96.3849999519647
96.4383748458815
96.3680490544775
96.5416655412347
96.4976046047522
96.4621832946131
96.6833689113551
96.757960581458
96.771183274529
96.7778353539497
96.8393467090075
96.7980535494526
96.7805524329149
96.9433503828304
96.9820889258816
96.942695572693
96.942598793308
97.0361798160245
97.0725295854993
97.1005038136276
97.1884719201248
97.5372386219957
97.5689359651157
97.6200738077168
97.6427219317486
97.7282333135333
97.8155007725194
97.5691595403752
97.6893984041175
97.9593806396858
97.9213359760524
97.7536217114463
97.8333019726776
97.9008144778287
98.1710376011418
98.598891426651
98.723924646118
98.4772799860005
98.2609066242053
98.3501025751636
98.3138395766015
98.2622819469106
98.7941668035957
99.1276246472817
98.9213693838984
98.9819015433048
99.4620062372575
99.8274734011045
99.6397451248696
99.3441626591812
99.6938706393083
100.332709819581
100.341198390948
99.9873694963196
99.417006779632
98.7570860143216
98.5314437532133
98.4821154293741
98.1789775444467
97.9833459370748
98.1990048818748
98.2277916311558
97.9533643926714
97.8196112002386
97.6522353829531
97.5753324334221
97.4213809772927
97.3087579314782
96.9257178338995
96.6560635860211
96.6173005548878
96.59198747649
96.7377724613314
96.8505432937415
96.7089209520839
96.6359941591316
96.7457753133641
96.8468975409567
96.9069040752467
96.9138506118759
96.8820717961327
96.8722618159261
96.8507978255635
96.804273858357
96.8483572684539
97.0032514381295
96.8871622901855
96.788870892104
96.8097454110015
96.9171586015281
97.1475768043061
97.150821395777
97.0670909406893
97.2724477108261
97.3119296768653
97.3726189650956
97.4711298334884
97.4423266971489
97.4671689150133
97.5810249072085
97.7641516005434
97.7965253513274
97.6920247253594
97.9538015177127
97.9854536736249
97.7449265872953
97.8012337761285
98.1522323901711
98.4931087989451
98.8472674719957
98.9805377231483
99.1393711301657
99.0902643701777
99.0503222754855
99.2871540260937
99.9448964042452
100.252280690512
100.12604362273
100.051149998932
99.8636749464158
100.057672942291
100.062817146358
99.6010239541143
99.7327689546175
100.109639557548
100.305630046188
100.208231401258
99.9424227138129
99.8273044341825
99.5909371314682
99.4935968479917
99.5357709205296
99.5514730564804
99.3139394626699
99.1925275397598
99.1820237783734
99.0839530449105
99.1480254382695
99.3276880875324
99.3415700417229
99.1356586821865
99.0987665045163
99.0494244142355
99.1093322194221
99.2200403428185
99.5714376221244
99.7051837496592
99.8676067878235
100.126125119888
99.9643490073234
99.3870602036374
99.347154230688
99.6209323585342
99.5518849060851
99.4642905433893
99.2510677477482
98.9140570000557
98.9089511949441
99.0819063193317
99.3143577144851
99.0246066997735
98.5623388899883
98.3736494985597
98.3127239910709
98.3545791121227
98.4044833839804
98.1841440969008
97.8649959900873
97.7023866342062
97.7881677101105
97.8603018766095
97.7757810500703
97.545402970853
97.6135515994223
97.7680618337763
97.8002748864082
97.6625965910035
97.4414988231049
97.4036643777467
97.5403382181809
97.4880239716756
97.2701154987652
97.2448292309532
97.3360868612789
97.3055930782499
97.1916712004943
97.100800167481
97.1774812124613
97.1609731959332
97.174391477681
97.2125074422812
97.1756921134856
97.119646055955
97.0602161569671
96.9676935183502
97.1094991580681
97.1991623163598
97.0778106030373
96.9532322010134
97.0307119610551
97.0563224651885
96.969146604933
96.8852698079578
96.8944850848325
96.9288666214478
96.9854634114358
97.0410505483669
97.1082492269438
96.902162261681
96.7702081074374
96.8450047025532
96.8369666140035
96.8093248551748
96.8875647240463
96.8859016265424
96.8506963346901
96.8848357772365
96.9893268755748
96.982389070234
96.9014851952394
96.8513485747365
96.8044283170031
96.7563217228335
96.7811960008888
96.8118545904437
96.8346662940414
96.8150005771537
96.8248057530272
96.8415728235853
96.7814903853907
96.7211747917165
96.6877091416541
96.6365526267051
96.6411991049446
96.6688968192932
96.6560757415703
96.6016457693181
96.5996987874692
96.6292877377694
96.6313254134256
96.5929685468214
96.580425117595
96.5482227431293
96.5504308259888
96.5470310025793
96.5552263342791
96.5338040474511
96.4907358871878
96.4930165743744
96.4760442942742
96.3942119171631
96.3568231750783
96.3783470287457
96.3905572975601
96.3432037691594
96.3231960094072
96.3020557148817
96.2768078910639
96.191785385017
96.0704064739603
95.9398270255915
95.8671307010204
95.7895939661837
95.7057590128161
95.6239516569885
95.5561230698213
95.4655698158733
95.3840808467254
95.2653959960051
95.1574091341642
95.082539315799
94.970676491292
94.7970160059658
94.63746725527
94.4463445546043
94.3343666709797
94.2572731601161
94.1302538403381
93.9252250096247
93.7839803791512
93.6366372839109
93.4546932933215
93.2525649350147
93.1094059499835
92.9485851298805
92.8034000667688
92.610625300461
92.3666834392319
92.0641066057808
91.7378421171475
91.3692916601454
91.0274130516962
90.645822104386
90.2841491301327
89.9361826672042
89.587151196198
89.1793218328849
88.7328461044489
88.2238020330686
87.7301508316503
87.1207902259375
86.5778002654555
86.0273279635891
85.5147876213334
84.9745427574972
84.539105991907
84.1217901705734
83.5975005680195
83.0014702173202
82.4030347309048
81.8833610691213
81.3823023530652
80.8044614901691
80.3793329950972
80.0087249449622
79.475890276479
78.8693349876431
78.4227217473568
78.0477447873274
77.609366543679
77.0098571959021
76.2980229896965
76.2846466945155
76.4500342413707
75.9004305300338
75.3702321927067
75.2319080955734
75.0537515308342
74.689156725231
74.3135707326026
73.8458749240883
73.5952770109056
73.8664031090992
73.7960424082103
73.4123345014945
73.1106339061355
72.981459578825
72.7759768980964
72.7231139157456
72.7696374896185
72.4487310961485
72.1102764212377
72.2392970175905
72.2325759010029
71.9051851661381
71.5798573291358
71.3628763675084
71.2131030436692
70.9966530236725
70.7895094409534
70.6039025445668
70.4079855917951
70.1629808383861
69.9894848834599
69.8270809898271
69.6775354656884
69.4395899043215
69.2233229311442
68.9755547810666
68.7748452764231
68.5450475332439
68.2658674137138
67.7804217953502
67.5466346790581
67.7120852623465
67.3964272775113
66.7686904005422
66.5933813156158
66.4954777439463
66.2427418517746
65.9346872747794
65.2440411116979
64.5534538583763
65.8528150644294
66.3073232830129
66.2071416318659
66.0968685908986
66.0509104028026
66.3172895709611
66.3559169436693
66.3505736035818
66.4990783038581
66.6690726072038
68.1195281654871
69.3460640846735
69.2196990916938
69.2075698627998
70.054634914209
70.4505713256673
70.52407629643
70.8861086413287
71.3459158666222
71.3561415685102
72.2153340897857
72.8888148506492
73.1396631253926
73.6889211898272
73.9592262093001
74.1123257746008
73.9468236126134
73.6584007534354
75.4197744045887
76.7756483866769
76.8281419001581
76.6209246675588
76.621937819975
77.1904160314141
78.0197815195482
78.1175436030369
77.9335052123841
78.3653989882374
79.0265691278071
79.3952701233833
79.4471409736266
79.5035422559762
79.6532454736691
79.6230919051653
79.5205621823029
79.3374606286175
79.4302700439346
79.6399226885631
79.3109211063027
78.7141567531917
78.3550140077931
78.3104968503395
77.9151730043436
77.2166584716431
76.8256749671235
77.3347882265594
77.2862964688433
76.9229212048784
76.5784536090828
76.4580144294558
76.5480247754038
76.5588038831883
76.4796414237252
76.3940167421806
76.1258534423713
76.0656111310757
76.4950196290101
76.4909389047135
76.2032539991485
76.0404591943017
75.8946203213349
75.5501793925815
75.213303623897
74.7900165066596
74.2314268048358
73.9625405867503
73.6332685084828
72.994994192751
72.2620926759567
71.5889389067755
70.9520843705743
70.2707100856374
69.7230556884565
69.356615053851
68.8753819922489
68.4677526322279
68.3554276103988
68.251647453983
68.4015835822269
68.4953489171259
68.3295787533332
68.1569500923888
68.3765709418523
68.6151619220122
68.65752058018
68.6995957069304
68.8186483620859
68.9400883586094
68.9951158959339
69.3162369558812
69.6662830451176
69.7767136706154
69.9823245124021
70.181601410689
70.2127673004463
70.4991093816551
70.9910234916692
71.2606507449765
71.3876687905053
71.5257646016057
71.7321140181683
71.9228080587794
72.0953019073136
72.3148060968674
72.5312175011666
72.6895247070723
72.755830162259
72.9040954394367
73.2714554869263
73.5583034844738
73.731793230295
73.8346501448351
73.9091073841402
73.9750561878315
74.0446072661127
74.07136266181
74.0697473694932
74.028175897227
73.9905361045873
73.9963614896488
73.9746439488849
73.9024336097373
73.8746290377608
73.8556062830471
73.8522969359978
73.909638974093
73.9799483959237
74.0585294176938
74.1717337783849
74.3186498760462
74.4804863797207
74.6672435642611
74.8626522333447
75.0498574859184
75.2264574410698
75.4068315309208
75.5999340270192
75.7578494526541
75.9039467822764
76.0146370303808
76.0934050749871
76.1769356027909
76.2465299060635
76.2866279628234
76.3310899770757
76.376890886952
76.4202463440135
76.4718345434225
76.490770054912
76.5086672761009
76.566254739558
76.6133968085052
76.653567690311
76.7113928749573
76.7708359991573
76.8104479341188
76.8266302425821
76.8552365572699
76.8805617807004
76.8788392600848
76.894386853307
76.8999396471508
76.9012655291412
76.932657120058
76.9610594982367
76.9755755572437
77.0263552218049
77.0705666353048
77.1023963665411
77.1844951641195
77.3032028403856
77.4176706333143
77.5281436929984
77.6697228406271
77.8252383518391
77.968348442072
78.1272441282536
78.2980518196032
78.4754156117325
78.6318094583815
78.8086565653373
79.0054709910288
79.1944652538073
79.3768754998615
79.5399625670268
79.6943283743024
79.847717970535
79.9861879269696
80.1135964940509
80.2120041413512
80.2795295084965
80.331691077069
80.366501528537
80.369516736992
80.3091953096964
80.1759307103857
80.0369781940142
79.8922499621968
79.7563572201542
79.6407386779341
79.508608598174
79.3535594367409
79.1739727801982
78.9820884801553
78.8007000987532
78.5985425371763
78.4027331614081
78.1777804785783
77.9507054928109
77.7367159023235
77.5055938289369
77.286909748668
77.1008749358372
76.9173165839172
76.7197011436457
76.4984953421505
76.2475632956157
75.9732921128699
75.7379472931035
75.5198730070281
75.2881638727724
75.0799621544297
74.9117889573582
74.7562442918476
74.6019927267286
74.4760096301315
74.395815797086
74.336226522882
74.3109363094963
74.2753550290319
74.2014733599599
74.0943496157099
73.9565733265043
73.7647207858123
73.5084636511956
73.2256966256116
72.9476807255672
72.6621777427272
72.3793917859878
72.0847467461141
71.8014614812882
71.5257094271167
71.2342763721522
70.9430057824485
70.6657147775283
70.3914190116108
70.1504181208591
69.8807402536269
69.5821373388343
69.2608886125593
68.949453718834
68.6308576917833
68.3237317432384
68.0233080561003
67.7063581496182
67.4152791698821
67.1292382392019
66.8210192969704
66.5237693372843
66.2714968666607
66.0659622851137
65.9157642172206
65.8028045136223
65.6589880028182
65.5273369662772
65.4105540955618
65.2867358468619
65.1368425121021
64.9918375094056
64.8905278498222
64.8207042001786
64.7472153478402
64.6879740897247
64.6753032793727
64.6847070974274
64.7027139853692
64.7846236881205
64.8915248955949
65.0420758537596
65.2489348916365
65.489179868795
65.7587795144613
66.0872684773527
66.4365452473569
66.8323728345345
67.2157980546428
67.5553615343166
67.8696265264195
68.2017680830534
68.5351300953121
68.8014750651282
69.0305231993579
69.273008352081
69.5065915721315
69.7047862921541
69.8460494494885
69.923376018032
69.9373294223375
69.9788447105773
70.0217697393767
70.0560176453052
70.1364169396544
70.2644979475227
70.4366104490454
70.6646552038349
70.9518033814233
71.2891921208217
71.6250446649816
71.9472865026135
72.2433441964685
72.5544360232432
72.8820445520653
73.186687328949
73.477836499153
73.7971546899971
74.0985630811312
74.3550892084312
74.6030856901208
74.8435657417811
75.0913686212949
75.3378793487698
75.5542765003311
75.7635784010682
75.9358514721285
76.0864130905127
76.2070647999802
76.3204087703726
76.392766312727
76.4275210892206
76.4843180835443
76.5307388367478
76.5480013812222
76.6213723924751
76.6921737294139
76.7288052736927
76.7904826758305
76.9047999068983
77.0334358555843
77.1681581687317
77.284971371148
77.4083535241034
77.5182993184018
77.6487028800657
77.7696339391945
77.856534114515
77.9306630934935
77.9756080299062
78.023244867862
78.0910288719641
78.1231644804516
78.1544725474885
78.2192173587064
78.2993038823584
78.3267716319289
78.366951282458
78.3929629726914
78.4135770858185
78.4477615828941
78.4773665284421
78.5136119315907
78.5511840133091
78.5321753101022
78.5466233482865
78.5761653079956
78.5603827251599
78.5209561874491
78.5142317738621
78.5103296211509
78.4498995038252
78.2811049051535
78.0857341584082
77.9501086517721
77.7918924635847
77.5837008114039
77.3507617859737
77.0767207222129
76.8938655272718
76.7922507861263
76.6824030396985
76.5980975656948
76.6218670601237
76.6605575451197
76.6649078117903
76.612618810316
76.5443465099821
76.4960769745428
76.4341062578055
76.3204084799555
76.15928475127
75.9578597537141
75.7756551395425
75.6475029447016
75.5426468664765
75.4523425044132
75.403283533918
75.3697141843152
75.3640882738735
75.3108088763579
75.2354677978221
75.1634972424324
75.1348068730346
75.0642180182132
74.9794649188381
74.8770338024858
74.7388160706616
74.5993485151383
74.5261083807213
74.4238079151266
74.3151569966594
74.2221436406722
74.1722613242982
74.0821826674565
73.9722452797361
73.8336293359188
73.7228460501854
73.6615140405708
73.5980909469251
73.4606652900226
73.3428218480796
73.2353525637833
73.1310825901178
72.9993230245797
72.9084217731764
72.8241624213261
72.7204282872706
72.6215362735327
72.5734425508988
72.4734852347464
72.358767904692
72.2862038558137
72.2308256890695
72.1029346499731
71.976625678982
71.9283460094463
71.8548290485759
71.6918376400831
71.5671826661132
71.4283156194085
71.2908805019985
71.147251798029
71.069765362866
70.9641988220558
70.803481292306
70.6079271461311
70.4600001725107
70.3315379361397
70.1728241581943
69.9576264994405
69.7879680749755
69.6382379944072
69.5488829946889
69.431470925772
69.3257385206809
69.223296728544
69.1769594189448
69.1223360887125
69.0418863060382
68.9446593701214
68.861826027003
68.7060050720153
68.5418871781667
68.4525260398864
68.3976027613362
68.2960077625461
68.1600290153865
68.0294429095841
67.8860365787181
67.6160962298592
67.8461998206783
67.77202378681
67.5637480882147
67.4880374723188
67.4295845715036
67.3130055422594
67.2062212202758
67.1533754307264
67.0544416862892
66.9454065997928
