1798
3999.43349933624
650.420452594757
1
128
4
96.3405061809397
96.3850864209479
96.382825949363
96.4418101348766
96.5424821504365
96.5178775752696
96.4850781483652
96.4848495928562
96.429098902844
96.4393606231603
96.4696384007342
96.4482653332371
96.3817330875355
96.3823461867305
96.403122570973
96.468437483874
96.4689288336698
96.4601261754659
96.425430109934
96.396902538263
96.4096466276814
96.514748540466
96.4585511589126
96.4323221750771
96.4765910325736
96.5166632122632
96.4458442722504
96.3642556342006
96.4364106770809
96.5310843377591
96.4509537831935
96.4389398759265
96.4727098115827
96.5520272605402
96.4883446537158
96.3846639335711
96.4441099869865
96.6015848589453
96.6127014568934
96.6018256826544
96.5886175241083
96.5111143847974
96.4489864140431
96.4719238418598
96.4613356216728
96.4733928603603
96.4876277506863
96.5057015535971
96.522171554772
96.6882219546127
96.6998352021718
96.5102669162546
96.410508237941
96.5724609086795
96.673904189848
96.6644713177808
96.5951746073653
96.5646763642604
96.5476223575301
96.6104906981794
96.5612629741016
96.5259352848071
96.5017994117152
96.541161959899
96.5804282134847
96.5960160059363
96.7108913061055
96.8180471725942
96.7551115051979
96.6543115200403
96.6314047118864
96.7374640430499
96.6685863542696
96.5757080822383
96.5865872063165
96.683239591919
96.7332226907745
96.7713847793474
96.7856203618758
96.7124227098405
96.539714336488
96.5680104222103
96.6560536979442
96.7940795325815
96.8743271782483
96.7778500731283
96.5459381013693
96.6082984946319
96.731456722548
96.7308990293995
96.6864395209659
96.6660953262519
96.6941856334321
96.8213162976736
96.8147545396731
96.7845500071439
96.7420155942006
96.8453687410636
96.8085089768268
96.6253742246099
96.5572474920755
96.692329491876
96.7650701038836
96.7987737263246
96.783921863552
96.8269456423995
96.8110923961512
96.7616762922783
96.7430283012517
96.7819262520423
96.7673214680977
96.7177563433327
96.6355864560584
96.6638376684183
96.6467781885977
96.5342278190864
96.5065223605907
96.6680776129742
96.8555323225429
96.9635036907339
96.8803901549791
96.7652394075183
96.7330945316513
96.7309471506217
96.6227408071487
96.6875577161887
96.7770602006746
96.7431584445582
96.69115450757
96.7128393742219
96.8431469208873
96.9476820735035
96.8284306073126
96.7638929401751
96.8897574557575
97.0071880002397
96.8752183480283
96.8448135840899
96.7930984208042
96.8081753822432
96.8577531368591
96.7792174241438
96.6950195736298
96.74893419523
96.6868854152718
96.6542731706555
96.6878866948144
96.7886997339366
96.7043080219602
96.661841788208
96.7317721282999
96.7830926524936
96.7886478278269
96.7812576911287
96.6647575097894
96.7090733518414
96.8166977453177
96.7977306502234
96.803100279887
96.8960171615656
96.9026566441444
96.8405622635349
96.7726302351505
96.7720085126416
96.7107066633199
96.5939231472631
96.5109299319214
96.4738057245324
96.4844475963871
96.5475720670093
96.5777676991533
96.5966898844105
96.607628659755
96.5902772838869
96.2996961628543
96.2682264143213
96.3941641319752
96.2680204134912
96.0406071172305
95.9750024572892
96.0028332871091
95.9986271972564
95.9170914133747
95.9876807608825
95.895778851013
95.8163966058889
95.7786194710153
95.5159324341945
95.3599045913465
95.302513025386
95.0045964594992
94.8462053501977
94.8410514105486
94.8439866568442
94.7996542878273
94.7824140527992
94.6577326368055
94.5447000801037
94.4112385594757
94.113123220541
93.9191086339021
93.9215092418136
93.928945046757
93.9809756513144
93.7266097851069
93.3196373791443
93.2171798082859
93.2146524956576
92.9634317818843
92.7631943731176
92.7035571426668
92.7505639480055
92.7302249363118
92.5975961827105
92.3710900221486
92.2009938024549
92.0281391820253
91.9722724158793
91.7556813998391
91.5555141108335
91.4891785161863
91.4345535639304
91.230340882057
91.0063563384746
90.8771520324498
90.9097536285231
90.7660500902424
90.6192771165401
90.6658368081755
90.5365936795666
90.2393015460417
90.0462731330221
89.8122139003897
89.7637885792276
89.5941561634082
89.3657138320984
89.2344241413056
89.2162945158634
89.0710467836787
88.9611460062987
88.7794226478391
88.6720206208644
88.5562817672788
88.41399933492
88.214575952923
88.0917835669948
87.9358518469174
87.8186925784456
87.7324940700004
87.6552441573958
87.5347517763515
87.4296371921234
87.2391393063214
87.1179927458975
86.9492357831724
86.7560380463586
86.5860328335764
86.4506841820703
86.3175551459262
86.2539893639056
86.0583174208612
85.9801602441793
85.8582066761467
85.706392622426
85.5612932585801
85.5361719975837
85.5005848779378
85.1999071723771
84.8327853334329
84.7959405587502
84.8215989016001
84.6885422992231
84.5536163702936
84.5106044196552
84.3827745296324
84.3401505912378
84.1766500060453
84.021845015453
83.824275766327
83.8189356031167
83.772713143699
83.7001684469916
83.6183076384105
83.4286033010187
83.1747716433531
83.0881200045533
82.9561291730242
82.814824193042
82.7052208943879
82.63052592387
82.5638468098896
82.5054110047942
82.3215028021405
82.2873285175569
82.236766988536
82.1503996756248
81.9218743577415
81.8116912859618
81.8365483281718
81.8219301245036
81.5915849133241
81.3578925087789
81.2242791932842
81.2200624904881
81.1533185480757
81.0191532027101
80.8577869201723
80.9213244607662
80.8298653814787
80.6799531492476
80.5963048833796
80.5162125778533
80.4217108301407
80.3297653480337
80.1886766593549
80.1632906699532
80.1068224832403
79.9523539804358
79.8173255185307
79.7895552273402
79.6531526160129
79.5879484876396
79.6003653263761
79.6278034542438
79.521948031506
79.4861400637824
79.318026364986
79.1429162394707
79.0406293233484
79.0400560514099
78.9491169850399
78.8819755780563
78.8430913732338
78.852115598513
78.7739006599263
78.6974616473971
78.6232946217537
78.6329950017184
78.543434133172
78.5210512958083
78.4226149084344
78.4214886312713
78.3477677740017
78.3219106049988
78.308558587298
78.325727875824
78.3172961353131
78.3578353275282
78.2254394624973
78.1267694721208
78.0453618958598
78.0566924729437
77.992254294643
78.0312237969156
78.1013113261808
78.0992232638589
77.9328805008243
77.9208895180074
77.9045591884051
77.9089841241966
77.9259602257939
77.9080407746902
77.8563957759847
77.8176579075834
77.7055800981865
77.6761824314973
77.6569102894848
77.6987882700779
77.6770510500763
77.682953558141
77.6168318321713
77.6113414690127
77.6027902229157
77.5597594958526
77.5332783271443
77.4858203881264
77.369783246437
77.4072769617569
77.5230441736719
77.5375051024453
77.3374944969434
77.3071423909724
77.3259753479034
77.3200212160855
77.3024431372811
77.339402139852
77.3066053353959
77.2654440512413
77.2231661217801
77.3162036877377
77.3288840256168
77.3328244980762
77.3024551815358
77.3319918542934
77.3207714930038
77.303194124044
77.2180972771063
77.2601252404412
77.2691872834172
77.2183181811976
77.2032633521107
77.3176184776047
77.368835368447
77.3712162391919
77.3739708382233
77.4383286618229
77.3905761486875
77.4106966327185
77.4265548560459
77.4930613346152
77.4858380983616
77.4527227184025
77.4024861732558
77.4756512441899
77.5515816387231
77.6041852017608
77.6118774917806
77.6552893711229
77.6222063788927
77.6237875212026
77.7177242460685
77.8472092468883
77.8374703949441
77.8774633743513
77.9136634363494
77.9642708983091
77.9215623409794
77.9135706359542
77.937509750936
77.9790423749291
77.9976756073206
78.1167532478181
78.1553349064781
78.2392367215712
78.3046943637632
78.3952577497441
78.4826518597767
78.4994528217889
78.4748040763958
78.5839092846947
78.6863944681396
78.751428746088
78.7975699074204
78.917885184439
78.9170495086672
79.0455416804739
79.1495290971314
79.2091722723943
79.2527735926659
79.3350169093027
79.4106948871924
79.4594070542116
79.4040124163994
79.4750995988492
79.6579509028551
79.8126167161891
79.8428527989345
79.9103668112185
79.9428419652829
79.9694887844027
80.0786952950561
80.2293376322904
80.2953444030196
80.3365230140762
80.2840452439903
80.236154834015
80.3121250840385
80.5171325364876
80.5420271362719
80.6251604554419
80.735895280367
80.8778275698626
81.0347151921309
81.1540173477767
81.1528570288674
81.1404128451339
81.1912899615483
81.3264810728988
81.3125351855466
81.3030051539911
81.3397185983762
81.4409853530871
81.4450446167086
81.4522361256103
81.4964110072893
81.5643195281169
81.6163830046763
81.7740582373196
81.852878198947
81.8612018368527
81.8676731613372
81.9410933090717
81.9891508121455
82.1254622679782
82.218476534147
82.2279661514085
82.2137023619096
82.1883537097823
82.1918511917591
82.4067526369604
82.4542682911667
82.4730263114491
82.5391503589064
82.5866944291106
82.5685539366671
82.6211348292421
82.7393294621157
82.8568378912607
82.8963552999472
82.9757737518928
83.0091025727185
83.1245017962918
83.2254741629207
83.3275023923578
83.3572547105623
83.4113403252061
83.4986576252685
83.6173979029487
83.6848967885797
83.7396803631399
83.792368492822
83.861221365646
83.8955594280219
83.9286353260785
83.9716388354817
84.0745740964726
84.0987316147803
84.154186612806
84.2318532972935
84.3082890390907
84.3498218322102
84.4018302535493
84.336645497671
84.3355540528983
84.3938520684666
84.4104547478073
84.3659420721154
84.3746014174313
84.3723491361191
84.4130204596299
84.4667252671808
84.546280474072
84.4353023596119
84.3080554432268
84.2791509848591
84.1946009416806
84.1272202473849
84.0681420593523
83.9033058619764
83.7901279638017
83.6461032596904
83.5404292591272
83.4290550941533
83.3433484359213
83.2261822369229
83.1623117285632
83.085674291086
83.011007798324
82.900467693451
82.812655467849
82.7142730284583
82.7037968633016
82.6784834140998
82.649083188284
82.5607181042997
82.5416545147459
82.4715058173564
82.2973489588327
82.0737626063041
81.9562784758291
81.8531791194407
81.7754431160141
81.68755267708
81.626199312466
81.5910586221511
81.6185664499876
81.6257172386599
81.6549552946113
81.7432468009431
81.8485212934412
81.9604738959032
82.1445789662531
82.2569668716661
82.4008665741604
82.5070361511682
82.6568434282136
82.7980673223732
82.912913570774
83.0373927179127
83.1658617489994
83.2486854165189
83.40548048653
83.5164503022822
83.5992235100053
83.6568879356363
83.7507469363856
83.8546613540995
83.9417183502543
83.9515180110039
83.9918996323021
83.9998948992282
84.0237478532049
83.9823344591146
83.9903771580431
84.0526426324739
84.1045049327028
84.0698773059982
84.1294439809021
84.2605845157324
84.34853995386
84.3720091303052
84.4596050742872
84.5247364091355
84.5581564017378
84.6289553326938
84.7304054466747
84.8388172548325
84.995334904241
85.154788993005
85.3181887064525
85.4473608082301
85.6277938543133
85.8556381760585
86.0172877530206
86.0985440357104
86.2320476529081
86.300119331371
86.3323715503158
86.4195525583214
86.5438938817713
86.6223504715346
86.6949368231375
86.7766885267048
86.8747177081611
86.9465275078498
87.0467719387701
87.1235841634632
87.1851016412257
87.2711745239085
87.3704645618553
87.4648840649471
87.5228779429978
87.4887678475061
87.5003753272662
87.5858261360946
87.7201558408864
87.8070870179653
87.8730267523448
87.939094760197
88.0436700375869
88.0428413065916
87.9951767834967
88.0667015157483
88.1570295451136
88.2024369932341
88.2429019057251
88.2992409954005
88.4059030922992
88.4835678312367
88.4942716025077
88.4636409171274
88.4641179985639
88.5186434395221
88.6228758242701
88.7316942675949
88.7721168743175
88.7262160707946
88.731395460461
88.7763667963471
88.7928374992321
88.8418693031624
88.9515995054252
88.9790567582153
88.9526459947639
88.9728213114609
89.0273979000894
89.0715038781658
89.0988353957909
89.1029131600128
89.1314441456106
89.1756201318637
89.2015537605549
89.2185131911395
89.2607973125874
89.2957342627856
89.354273969817
89.3907672053273
89.4156740758038
89.4281983556471
89.4506695624737
89.4708528294083
89.517239731732
89.559006018322
89.5948906314658
89.6231797559137
89.665752486051
89.6840557555058
89.7269930197981
89.7738976972109
89.7771994803399
89.7818427169606
89.836430495213
89.840717644197
89.8393577485733
89.824344463642
89.8389950487202
89.9208247554782
90.0376931440408
90.0465261005747
90.0641723871973
90.125620529289
90.164558599052
90.2076650476414
90.2151111156271
90.2326555416373
90.2273733866126
90.2298356957377
90.2757156522005
90.2499699400852
90.2542580825529
90.3009819994776
90.3394008053681
90.3856164430192
90.4084079127941
90.4423299998003
90.4446215682334
90.4264614520034
90.4563265159689
90.5138490607467
90.5642786327836
90.6171747193471
90.6623171985543
90.6956678576022
90.7353895318849
90.7658217828254
90.8175865671847
90.8452662716183
90.9264778286115
91.0566013667033
91.0855895830656
91.047074175674
91.0651929536907
91.056196189723
91.1240063225276
91.1817889855644
91.1953198201298
91.2757010252293
91.3412457967776
91.3043806825594
91.3106873998683
91.3655434204935
91.431484945336
91.5435300660028
91.6074284209895
91.5816309553665
91.641395952037
91.7418497925035
91.7261038353756
91.671105561853
91.6915227991787
91.7614120142153
91.8821024860242
91.9253565609079
91.9105943377336
91.9387992542766
92.0318326505918
92.0548535815431
92.0930082263065
92.2000422497334
92.1930637004159
92.0505388059587
92.1563967002265
92.3080124600221
92.3193081985298
92.2952382507071
92.3358941057037
92.3820208423503
92.3559064090714
92.3326562751531
92.3555109091876
92.4476583761011
92.4333885680402
92.4815812017342
92.5685066898211
92.5216007149038
92.5045530013699
92.5690190572129
92.634245677765
92.6223050324652
92.593175085875
92.571888868991
92.5919395436705
92.6115907922018
92.6927229700002
92.7852851115694
92.741394425773
92.7097995300547
92.7168527039353
92.7686228024757
92.7693288018456
92.7083448001784
92.8328418399107
92.925799447091
92.8692033462538
92.8968146615802
92.9350098107923
92.9026179131775
92.9033997975918
92.9453157275409
92.9358327081231
92.8831677893984
92.9075147212933
92.9858618116776
93.0540860066896
93.098829035956
93.1786245599883
93.1439609677289
93.0259622350925
93.066241348256
93.2095289302153
93.2625735442741
93.2448443975055
93.2090282591638
93.2275551333597
93.2045117190839
93.1296839363853
93.2733168727831
93.3300238940799
93.1850920474728
93.1253766452928
93.1567497965454
93.2349145866934
93.3285434132452
93.4069794413323
93.4013380955602
93.4117322252837
93.459584451513
93.4385843696526
93.3181305567988
93.3201097291168
93.3849228095947
93.4102252303288
93.5174962261078
93.5924829416032
93.5467410028892
93.5063908356466
93.5569067460732
93.6518318721558
93.6123467668235
93.5169216537707
93.5315534775277
93.5961216579446
93.6525617248208
93.6347104530909
93.6407577848111
93.6354418966791
93.5614526028412
93.6185041790375
93.739196354505
93.7414614725511
93.687482547655
93.6677379330472
93.6906619352571
93.6532237583678
93.6764879899551
93.6840740120634
93.6383169058853
93.6400862844278
93.6926600598931
93.7033173479686
93.6645802344275
93.6020304194285
93.5619226491649
93.6321085389489
93.752595217447
93.7631057197895
93.7586137024653
93.8943590887803
93.9279083913744
93.836729055504
93.8984913072519
93.9965817771337
93.9289888581324
93.8586460628153
93.9141110854565
93.8916492709079
93.7930989448828
93.7631667897519
93.6747704215339
93.6120743686049
93.6770145305103
93.718977178945
93.7493404114023
93.8160836587395
93.8167165380813
93.7711411306913
93.7485344119832
93.7208820573964
93.5801202441837
93.4495533628304
93.4160279776831
93.4595837798538
93.5808156159767
93.6284520758253
93.6709072308708
93.7524334181891
93.8404834320933
93.9328895694944
93.8967923418986
93.7797217896201
93.7511430158339
93.813945412987
93.9151496932926
93.9325588392328
93.9186539706334
93.9242463015975
93.8688249508724
93.921172685498
93.9965476409349
94.0110976557343
94.1316869741703
94.2407980181058
94.2184663127232
94.1451288240206
94.2103714189471
94.384529459851
94.4897589992534
94.7130546009167
94.8422516049092
94.5962619418451
94.5550130854609
94.761673105237
94.8455375408207
94.9722480545638
95.0786575923303
95.0689053017097
95.024427935393
95.1991698148939
95.2177145314235
95.0419448558908
95.1404423950243
95.3217067749399
95.5170792751305
95.3986016598148
95.2915266271141
95.4320569547606
95.4683125850758
95.3253132152587
95.3739984194106
95.5542354762143
95.5877637344808
95.7147242524895
95.8539951281157
95.8285355534926
95.9078197245697
96.0985847302821
96.2254286143376
96.3264751309067
96.2672616654143
96.160800104529
96.1923451180743
96.2281498676204
96.2312725912182
96.3498167027645
96.3255274184122
96.4981242053332
96.6394307286781
96.7644240828156
96.7961941906986
96.5342144481417
96.570008050735
97.0366548947055
97.5249968796937
97.3977587960888
97.1290104777229
97.1333708623421
97.3521566270532
97.3943848572169
97.3868151578332
97.4527836829554
97.6786684706738
97.8625189430934
97.8103589039185
97.3706947516611
97.1615349012761
97.6830571652582
98.670716515961
99.2464528293565
99.1191785480818
98.575213692056
98.295298217648
97.6989548289582
97.6431939682704
97.7622410901565
97.4658597317489
97.2745797676303
97.0475053172283
96.8457199586719
96.7783111155998
96.7976827683383
96.8413587362271
96.6895293127739
96.4737980233531
96.233101147216
96.0655142237587
96.0644716349993
96.0441670379467
95.7196222278328
95.6015845847405
95.5720319429128
95.588815906423
95.5671273275584
95.5535269531592
95.6236121263059
95.6348583225579
95.7053114220095
95.7728193594003
95.7382138264417
95.7158146303654
95.8139711316956
95.8399430242578
95.9546523382581
95.9838928116681
95.8752299499327
95.9360785190214
96.0157688869566
95.9427223269135
95.8352069622651
95.9709082388186
96.0639319735676
96.1191168423198
96.0196971767243
95.903591083228
95.9968385470783
96.2776937413882
96.4406623057847
96.4859108337119
96.5920640131102
96.5728928166017
96.5093079811371
96.7922714066298
96.8982103589867
96.892133587987
96.9140993104241
97.1447611111802
97.3464788307781
97.306655308091
97.4101549656106
97.7426719763116
97.9549421342261
97.980079912249
98.0178263024072
98.3160514865026
98.7147487649842
98.287530029307
98.2046000978179
99.0527518784356
99.1073614243447
98.9345003395771
98.6104039542783
98.1118154335885
98.4502999827813
99.1092727513208
98.9604542679599
98.7148854553995
98.9273317058678
98.8725350834553
98.3980479283509
98.4094390544138
98.7319107848817
98.5956612897042
98.1791298794577
98.0703121387585
97.830173200303
97.8480432155241
97.7861640298925
97.8391645532633
98.1473028494208
98.2509980677715
98.2955878264876
98.3197947828321
98.2790938368697
98.2595603148953
98.4080576211135
98.7444561677622
98.7302439473921
98.6031026736921
98.7511194961014
98.8610200020799
98.7390398561681
98.4953980025861
98.2778026135253
98.1390151082069
98.0977158435167
98.1584974245454
98.0000874024621
97.6478505694928
97.5112620988823
97.4520461325988
97.3829629836839
97.342765585073
97.2081769157667
97.25739638758
97.3228621671957
97.1359291256274
96.8733666095746
96.8701840883056
96.9932868248107
96.9316665287093
96.7465262780067
96.6552625193602
96.706883813545
96.7607783465943
96.5778595848734
96.4818303030604
96.5419055121225
96.5869695678317
96.4518907721072
96.4639978291084
96.3718447821669
96.156134891063
96.145406751508
96.2723481748088
96.2410940790154
96.28357910179
96.3859712106753
96.3325804487911
96.2607204260473
96.2651692074439
96.2648857161902
96.1990185623533
96.117498912378
96.1382706059832
96.1567569642419
96.1047555875143
96.0823145138693
96.1701092695008
96.1414438761336
96.0593884947733
96.0947305205776
96.1777721122411
96.1549582865107
96.1036347713898
96.1316191474094
96.0829690052067
96.0161470504421
95.9787139426706
96.0123944871613
96.0986645069515
96.014224870474
95.8996106932436
95.9937383809149
96.038274608001
95.9533543652136
96.0056376906976
96.0939381594167
96.0681672960636
95.9666711287437
95.9246360426831
95.9619426121052
96.0024195129182
95.9868053171081
95.9912123382554
95.9593279778003
95.9345636479794
95.9706115921145
95.9791746501342
95.952589894534
95.927846164403
95.9166474028325
95.9656233447859
95.9720402793969
95.9039099870264
95.855967796354
95.8706887868959
95.8918566283179
95.8922903586479
95.8782090835874
95.859361648667
95.8203445282763
95.8263554165353
95.8415565791441
95.8525573822737
95.8229809547729
95.7808766299814
95.8039444220694
95.7986620006126
95.7520911679576
95.7141460488629
95.6697147956529
95.6648562988388
95.6385313425676
95.6038473952057
95.5592989257635
95.4791811648229
95.3828566577574
95.3545922418899
95.3148555406024
95.278656360853
95.2079501335295
95.0817372527858
94.9746064220465
94.9175456880126
94.7954109645954
94.7337233992674
94.6141502770485
94.4905655748552
94.378366027463
94.2246289424424
94.086599295297
93.9788910437817
93.7781142317019
93.6636663124462
93.6053728178387
93.4427157046815
93.2292841101196
93.1729033625793
93.0965049434718
92.9587347975637
92.7837751640738
92.5745403981123
92.3458277299902
92.1268449339187
91.8579639631253
91.5713919140369
91.279372222099
91.0358242646162
90.7420275650972
90.3579662916913
89.9307203367391
89.5659783108301
89.1721259711519
88.7609226721719
88.3286635127456
87.8500877415883
87.3529994977456
86.8604202457273
86.3218578150741
85.7615348943551
85.1994368481753
84.6859711621065
84.0973437911705
83.4751006468973
83.0494480401735
82.609311509867
82.0398113548762
81.4349930353435
80.8618285465952
80.3458315470813
79.8097865600022
79.3307660274049
78.8714441192697
78.3770464588806
77.8309619046673
77.388827579666
76.975377058005
76.5366700906816
76.0049001612088
75.3151720532218
75.0536283550509
75.142622817908
74.7160058756862
74.2680149092913
74.0921734828607
73.8590947920839
73.5202814144105
73.1907949829728
72.7069599099334
72.385851500144
72.55146942626
72.4674078381172
72.1084568796663
71.798382156098
71.6124267374652
71.3774703298106
71.2452275945418
71.2062243914042
70.8861962396533
70.5205430184377
70.4899490861769
70.4047614151183
70.1507423381931
69.8407473647766
69.557817460535
69.3402539004231
69.0859324562284
68.856232513589
68.6471617236596
68.4406176190267
68.1765904417431
67.9558384694932
67.7350259736971
67.5313935475066
67.3131674795384
67.1248365387133
66.8506687446146
66.6057643848473
66.3371197435482
66.0195999294102
65.5131597086071
65.1893648038316
65.2537910760293
64.9910004441573
64.4931368293992
64.3480551493709
64.2229993586027
63.9994377029318
63.7656982462685
63.1854870799449
62.5178420976946
63.6659677704719
64.232039273521
64.3717507410494
64.4341823093153
64.4914112775331
64.8493597855173
64.9904843975041
65.0911910632792
65.3085731756007
65.5078139581926
66.9302358209812
68.0617974834936
68.0082807116571
68.1314156362354
68.9665489967504
69.3367380371865
69.4604160314375
69.8105666084589
70.2171430243767
70.2849658743581
71.1273690942293
71.7696247280725
72.0509691216842
72.575990892528
72.8186695350313
72.9445049965987
72.813692483002
72.6363392192086
74.3345386519947
75.5664401078681
75.623921524034
75.4925582046779
75.5680206269496
76.1278072179577
76.8667314794029
76.9605534536409
76.8310621091046
77.2468860960012
77.8706593967822
78.2630732093181
78.3615612586893
78.4198149583746
78.5125060448468
78.426605235427
78.2933750086453
78.1103587352024
78.1637145281611
78.3637311415721
78.0740302794166
77.5415702988146
77.1712513193974
77.0347283452126
76.6252249085182
75.9349063360674
75.5023141105971
75.9583299637259
75.9744886283706
75.6702663197631
75.3214607044473
75.1778142333778
75.2560301534492
75.2431372244692
75.1559085629528
75.0642577226294
74.7616946973001
74.6539217007112
75.0160041431093
75.0156656062814
74.7378244356896
74.525604732426
74.3132131914767
73.9150967007632
73.4993720161362
73.021772419934
72.4241363055398
72.0735397752867
71.696387583821
71.0738751496057
70.2943185632875
69.570526580887
68.9304056102305
68.2545322617762
67.6731156889116
67.2679418305041
66.8023742367511
66.462579268265
66.3995557315401
66.3021514218292
66.4197178518908
66.5284020967681
66.4104253172971
66.2803855081419
66.4975316140517
66.709320492848
66.766832821118
66.8186970077713
66.9292629306616
67.0556329149028
67.1291808467993
67.4378983810896
67.7364871323745
67.8681131196047
68.0888544943631
68.2795448638924
68.3443175684273
68.6668763993797
69.1283799063038
69.3892889434746
69.5259895273683
69.6846148648274
69.8900054508651
70.0707554276269
70.2665047552074
70.4742313989768
70.6755101712639
70.8724429871167
70.968309847602
71.1364112677594
71.5004300536543
71.793606443743
71.9648775963776
72.0669183975738
72.1651767435116
72.2446028571377
72.3096253325962
72.3644090361754
72.3622295215926
72.3084589032139
72.2724659510611
72.2692032993971
72.2544974474988
72.2266161838379
72.2359351608744
72.2452085610965
72.2347114965634
72.2669202879313
72.346568636001
72.455812760321
72.604077735789
72.7443606697199
72.8978729766967
73.0924422242899
73.2924951946985
73.486024562543
73.6586784113953
73.8424464005025
74.0500643967542
74.2037915511132
74.3151340358147
74.4321277053917
74.5209495757392
74.5826044485073
74.6292508267268
74.673694441631
74.7570220629933
74.8257919948086
74.8741719263147
74.9000346757798
74.9214791509461
74.9577570792904
75.0091994289807
75.0608902255996
75.1166127693169
75.1614206327029
75.1894249357693
75.2234273865664
75.2712456988813
75.3005383117783
75.3001639326851
75.2966165727073
75.3058891486834
75.3248210814138
75.3340452694026
75.3196400445436
75.3353963005699
75.3829837209177
75.428977526403
75.469779509005
75.523211065748
75.6154647834646
75.7436353886232
75.8337008851
75.9188533251399
76.0678403901024
76.2425470152138
76.4009461269914
76.5679139144768
76.7329576072442
76.9206258664551
77.1183066470573
77.2734065904755
77.4390382884866
77.630806170551
77.8209770636734
77.9895681087668
78.1376800597416
78.2893362186384
78.4117385756002
78.5540765867892
78.6889676301459
78.7701248866421
78.8109780685949
78.8037234550634
78.7765764842313
78.7285962580511
78.6286045049711
78.4876791865136
78.3261722100781
78.1859868978544
78.0207514640445
77.8414198368949
77.6816293506372
77.5005414048648
77.308010214689
77.1215816813315
76.9253553630589
76.7028437787813
76.4412329393264
76.1928182499762
75.9634048411697
75.7412363803673
75.5176701115359
75.3212125824213
75.1193030454249
74.8758532409123
74.6283669037976
74.3807428090994
74.1125776702815
73.8486835107221
73.6095892568889
73.3763053401394
73.1607587270438
72.996719656556
72.8474556264002
72.7032408558955
72.5755277206629
72.4739737413783
72.409570010623
72.3714044936716
72.2956311917107
72.2279544678371
72.1180670293336
71.9238993574647
71.6951176484486
71.4291111353769
71.1466355219335
70.8854089859847
70.5819151309258
70.2584077537572
69.9700069152325
69.694519569265
69.395168240174
69.0895793642445
68.8002076172304
68.5374244832543
68.255919056015
67.9622822411356
67.6610299265985
67.3540538587167
67.0300823821469
66.6860476529079
66.3660541821077
66.0661997149585
65.7381582364428
65.4142345241101
65.0933117254039
64.768836391331
64.4224524286579
64.1363876672885
63.8941445584766
63.6564311119604
63.468343054034
63.3091598105927
63.1810970607371
63.0659628525588
62.9546761528961
62.8122729945919
62.6449472829467
62.5268070046081
62.4597699149872
62.396579038595
62.3107807964841
62.2561226704001
62.2371039361333
62.2489188930547
62.2864083403343
62.3564251540205
62.4641848232001
62.6442093991633
62.855890315487
63.0999728343272
63.4104633806845
63.758072668418
64.0855215999438
64.4347542551843
64.7998086509991
65.158244238844
65.4918379985852
65.8321980372078
66.1411951829556
66.4425754525306
66.7202507470919
66.9504102663733
67.1352144255333
67.3207986773524
67.4796502546923
67.5842219408144
67.6348161484067
67.6694985906761
67.732478344686
67.7794727562153
67.8572272075589
68.0015936858167
68.1782137891154
68.4104016946725
68.7065287433242
69.0440063544723
69.3877270596003
69.7378289294697
70.0918764697153
70.4191605472795
70.7121163595355
71.0400542716136
71.3760444893072
71.6855079502405
71.974177017835
72.2524036120401
72.5219715626096
72.7695206220375
72.9826241820191
73.2152007775828
73.4526936819584
73.636204763765
73.8278683737742
74.0163992198857
74.1562956657946
74.2826267139249
74.345462114497
74.3997263719442
74.4416963182228
74.479135069864
74.5292780636543
74.5566649945055
74.5976225909198
74.6937675188129
74.8034346032948
74.9290376141772
75.0500910420282
75.1839114731777
75.3295668717139
75.4728422145896
75.5978320843876
75.7344270866678
75.8299832739544
75.9449254425586
75.9923975322415
76.0287911905384
76.093729895559
76.1559244325219
76.2222127880937
76.2931259097118
76.3443482060452
76.3870626446804
76.4687464335786
76.5123444688287
76.5540677918743
76.6163505435327
76.6386151413461
76.70679007466
76.7368741933145
76.7337236297255
76.75805157511
76.8089510756348
76.8475122392027
76.8635845458931
76.8694106185676
76.8572161498887
76.8317364745415
76.7649969961929
76.6633723736192
76.5055541474109
76.3147028319735
76.1669349145291
76.0002626550211
75.7709177129404
75.498038593643
75.3104894511498
75.1784794271595
75.0793698327619
75.0557488144129
75.1218265127293
75.1467044749055
75.1659499728362
75.1846051618573
75.1294202465636
75.049116907154
74.9726597749885
74.8795720464282
74.7606900118916
74.602245603387
74.479206893884
74.3358074554307
74.2443396507912
74.1789764574807
74.1455039568757
74.1169669069478
74.0884010101461
74.0876872044343
74.1044323542281
74.0328472322353
73.9732627061547
73.9156562644455
73.8252101722666
73.7354882108661
73.6468571447217
73.529487036904
73.4271566098229
73.3172139052541
73.2575601869049
73.1872056505707
73.1127051624344
73.0749581193828
72.9656225971882
72.8151027680077
72.7540740191763
72.7188256906537
72.6162003044054
72.4996301577531
72.4251923987407
72.329689630719
72.2748203040545
72.2051242594512
72.0984747694148
72.0133894043739
71.9341187960552
71.8163011895933
71.6827462537873
71.5933725771377
71.5715684671597
71.5026867306591
71.4320663839181
71.3913676359422
71.3010091748452
71.1341301090032
71.0136611073744
70.9441236847549
70.8808449596076
70.7423482477439
70.5895994569852
70.4266659875832
70.2600636444294
70.1108583670213
69.9920563697169
69.8594596582184
69.7408425805202
69.5764391218331
69.3649035500616
69.1620180416659
69.0229639673851
68.8442854689906
68.6903864063284
68.5665609349174
68.4985508161871
68.4558610522384
68.4082054252949
68.2909067043626
68.2499333757808
68.1673061135659
68.0051840559889
67.8217629949819
67.6667586891431
67.4889362646844
67.40464892417
67.3433369985855
67.254515120139
67.1013324467684
66.9215993006933
66.6431618338272
66.883291384267
66.8503041604595
66.5919507206255
66.5112975089649
66.5056586601826
66.4029409957806
66.2339521449453
66.0695667564268
66.0699154452605
65.9645276876268
