1798
3999.43349933624
650.420452594757
1
128
4
94.2182919097212
94.1842675902961
94.1664491313856
94.1729625268398
94.2024894049519
94.2198049904354
94.2166746037338
94.2259229484135
94.2034135593464
94.2717431682895
94.2548527705993
94.2000067282934
94.1837899192057
94.1444291962342
94.0979016535059
94.1328059711545
94.1895251155221
94.2579765556827
94.2003567020661
94.1098760639263
94.1399731657894
94.2517374672599
94.2703827141722
94.2290561369
94.261679746504
94.2841116652516
94.217350828496
94.1925388406291
94.2037297232334
94.2266194722013
94.2342218519005
94.2909514884024
94.2898828688481
94.2659206613942
94.2975859508137
94.2493932485294
94.1988394713236
94.283290640432
94.3228238000625
94.319739326041
94.3243420791786
94.3473323813421
94.2905803954427
94.231949741154
94.1948167697486
94.2715089100626
94.3542653121931
94.3385588204714
94.3339029847972
94.4589772156209
94.4965685970486
94.4006400644714
94.307707458515
94.2728791947498
94.2798192823262
94.3537463716055
94.3441500739984
94.3622418214839
94.4216218352342
94.4308649412441
94.4134504086635
94.4137395560169
94.3376267057721
94.3516778802941
94.3577177479733
94.4297252959022
94.6042052483172
94.6718909637098
94.5315892668691
94.53459298215
94.4922349280907
94.3923438879571
94.3656132162012
94.4060448125792
94.4931766224433
94.6426773158559
94.8543027801535
94.8268871849073
94.5223055111497
94.4640922936285
94.5236441274704
94.5959598778643
94.6227633185224
94.6240327920947
94.6561092404137
94.6784224757846
94.6299209022181
94.5439572682948
94.4486638499896
94.5247504154421
94.5874708905733
94.5247709406208
94.4850697326053
94.5611819323874
94.6918122160767
94.8040895080509
94.6530387647166
94.5947697609192
94.5450034538487
94.3888256943343
94.4780034942847
94.7108460705262
94.7775930784814
94.7641684603349
94.7293410830983
94.7259946117548
94.6263166597829
94.5657530716883
94.637664931115
94.7440438735819
94.714709844669
94.6757760860211
94.6930786350108
94.7779976111104
94.7527830111001
94.706031697483
94.7378751003779
94.7685689168299
94.6841107900343
94.6702199743338
94.7604334787799
94.8167021583908
94.8045879583592
94.8105100635887
94.8308389629261
94.7479263026004
94.7044773042179
94.8048206902706
94.7549324979881
94.7691029560774
94.7542706423578
94.8127294051388
94.8344344749486
94.727119145966
94.7461517295577
94.7410968635955
94.6609975614902
94.5490929012416
94.5760646986574
94.8372404153587
95.0252871730944
95.0346526645325
94.8241558256983
94.7123884320471
94.7495126040264
94.7881364582774
94.8522249864339
95.0140632872536
95.0805198907846
95.105884520085
95.0587877280066
94.9949745883199
94.9926187680019
95.0375396066184
94.9093593542856
94.7733829172635
94.7950651736682
94.9742899706798
95.0813039264672
95.0670332719057
94.9655805852798
94.8814395666349
94.9324779284999
95.1189491350343
95.1944667830134
95.1468071178458
95.0234265029425
94.8454195757146
94.7064586466432
94.828459182891
95.0862000241535
95.2115279144587
95.1580132083562
95.0197968122336
94.7849747130499
94.7675573157383
94.6891942334888
94.528265748866
94.5354995198102
94.6251261648218
94.6369300509242
94.6026954875428
94.5371379149819
94.5030234173842
94.4242800696043
94.4538230115389
94.4984930335626
94.3079409355518
93.9901740892911
93.8607870821094
93.8216459566011
93.837230612139
93.8702927286288
93.8680068924224
93.7721200812059
93.6800754733251
93.5946839144472
93.5492276580031
93.3949085090456
93.052085202485
92.8019826182989
92.8511433820415
92.9019283676091
92.9000570725437
92.6650705616253
92.4504641988743
92.4210230625599
92.329110878321
92.1946296875286
92.160887404478
92.002231812405
91.9103344571085
91.8661676965311
91.8163666086577
91.60861579312
91.3743613871695
91.2762232523565
91.136500733793
90.9075081429129
90.8861919132224
90.9030718436598
90.6528102645228
90.2491426608881
90.1053637917613
90.0646991330184
89.942850229689
89.7646583504163
89.696238017161
89.6185732846845
89.5765126328854
89.5408380083686
89.4337132498094
88.9461849472727
88.5661840529272
88.5491704745372
88.529417760338
88.3167578731317
88.1655131211239
88.0026887187322
87.8462609234208
87.6248602547267
87.6026082597592
87.6396577434033
87.4541747843861
87.0727207343557
86.9641077505191
86.8872305698498
86.6569644774116
86.4209135758441
86.2766390498107
86.1876942638611
86.0772446240593
85.8429486556327
85.6738312955532
85.5175235730643
85.4911431769969
85.3684202928186
85.1241233585971
85.0280750992387
84.9549427851253
84.7099728949683
84.5446498102131
84.3824456975647
84.2314186725318
84.0816518458092
83.9490222853027
83.7297802444782
83.4942224137028
83.3630322504297
83.3737893926196
83.3063200393524
83.1135010149733
82.9171186562182
82.9191947430517
82.719640312539
82.5000868359895
82.4031479475137
82.308760986198
82.0866769005682
81.9711046267987
81.8814628981026
81.6764967874985
81.4427484038974
81.3518233269028
81.2092037077359
81.0607932863662
80.9983613785526
80.9773745556123
80.7568894100636
80.5602090396379
80.4190335039254
80.3462980618102
80.2908853742772
80.1885873647619
79.9337047369117
79.7624901666264
79.7258713967454
79.7113462620085
79.5629605001302
79.4312063087704
79.2466486671469
79.0775409743953
78.9898843245563
78.9161580119499
78.8259877284807
78.7082427102562
78.4994461073464
78.3962539919157
78.3020322691255
78.2484470460815
78.1810798732452
78.0568116293344
77.9292039299692
77.8333474108691
77.6742075978497
77.6136765872501
77.4920458744538
77.3576592395499
77.2750725245962
77.2861506159646
77.1493058946304
76.9576773735674
76.8730091330576
76.8158759420209
76.6678820810676
76.6091707297942
76.5297983954658
76.5042771098165
76.4547728474924
76.4202618211991
76.3603425955821
76.2151001750053
76.1023391528949
76.1185699644807
76.0201708966527
75.8875778450442
75.8651437047885
75.847996353426
75.7084207933043
75.6443263653059
75.5955882498151
75.5668523589411
75.522574824556
75.4923367555485
75.4496746839455
75.4268267842378
75.3440287035484
75.2911747700446
75.2111168043775
75.1455031345881
75.0428437598613
75.0324972985091
75.0772167826882
75.0546237305862
74.9255914752087
74.8664193143183
74.8415898719657
74.8858063225238
74.9051424484039
74.8192497506634
74.759731121393
74.8330721613526
74.816562759553
74.7780102415742
74.6970014789106
74.655204116314
74.5874396040653
74.6290721075939
74.5637371048248
74.4462875813777
74.4390137715344
74.4567170519468
74.4103685533112
74.3751016394827
74.3488487697269
74.4322775207122
74.4741561064978
74.4298833073365
74.3159431306972
74.2895538719922
74.2459961431119
74.2770024496845
74.3007957856158
74.3194036603513
74.3003462541682
74.3604906702385
74.3475065832019
74.2723198561906
74.217172291004
74.2655971513801
74.2919814588719
74.3161808722525
74.295716554637
74.3014683117216
74.3417081391376
74.376108677085
74.2890047001873
74.2908240726995
74.3730676878502
74.4595967969608
74.4785434327131
74.6027062524059
74.6494280714252
74.6115910201474
74.6002267002131
74.6403361771996
74.6286143794984
74.6953776370225
74.7400153681301
74.7297474285605
74.7621826820722
74.9114189109124
74.894782964805
74.8975288072878
75.0054543889679
75.0876180552348
75.109648897141
75.2142207889937
75.2487170212574
75.2413355212129
75.226996572131
75.40798863448
75.544128924989
75.5445464377187
75.5230298645128
75.7375540863221
75.8197267551989
75.7469961602176
75.8121377588107
75.9470365109073
75.9556396948654
76.0729825101862
76.1410711183294
76.2224508624567
76.2781801885366
76.3415676762003
76.3530487245067
76.430300174522
76.6150266760668
76.8037189658349
76.8739369688437
76.9809720851279
77.0141556427321
77.1425693525726
77.1877650451647
77.1806941429841
77.2608384944743
77.4346486558449
77.5690466974276
77.6408710880621
77.6676009378057
77.8098065503882
77.9717486129389
78.0353773650751
78.1034686639458
78.2676363801454
78.342069965943
78.4364973821368
78.5528110470463
78.7337067655247
78.8456275174429
78.9374958035634
79.0153693300501
79.0878709373022
79.1493953367726
79.2767556070816
79.3952967830197
79.5092056532228
79.5838713368903
79.7396179072203
79.8115221915593
79.8727569078357
80.0112994748434
80.1327888041995
80.2073143948173
80.3503963545196
80.4501509277555
80.5000459094805
80.5705842470682
80.6959412674587
80.767334336535
80.8163243406873
80.8721208646324
80.9640606357955
81.0552663252317
81.2320072567419
81.3593297135791
81.4218736603367
81.4701814658757
81.5912450220875
81.6788761465925
81.7810618767064
81.8976471971081
82.0477365189772
82.148914170578
82.2112095653098
82.2335352009092
82.2777783864196
82.3536982022597
82.5029599305062
82.6272787114261
82.6961804839491
82.7642713237133
82.9068519516423
82.9779736449641
83.0189457589599
83.0726065569333
83.2458157372706
83.4321848119389
83.4705549083992
83.4616002813352
83.595274402885
83.7507866878237
83.858766282257
83.9150982245438
83.9972925732596
84.0681313331461
84.1933027774968
84.2489150038109
84.2984068322469
84.3610422410197
84.415814253684
84.5646216141375
84.7291452307685
84.7559249002904
84.7638548599306
84.8527958624084
85.0133042105362
85.1083609693816
85.1522646270594
85.1435667650848
85.150121992143
85.1699696788751
85.2425669643125
85.3435585052695
85.4178501861396
85.3909812163976
85.4286761000911
85.4726927697105
85.5129997885268
85.5299848591291
85.5118292533123
85.4622065228016
85.4854835279737
85.439025307977
85.3896304446849
85.4391147818243
85.4469598049061
85.3000455638652
85.1821394916224
85.1577322067701
85.1318510701175
85.0283960992557
84.9445022484793
84.8428090450805
84.7551719612284
84.6763375909657
84.5497238318968
84.3784496035085
84.3128634713117
84.1794448862362
84.0194345583335
83.9108603583603
83.8290912625143
83.7167784391725
83.5862084840857
83.3900473215758
83.1647086611573
82.9320954545224
82.7031963305658
82.4608208004584
82.2879876127338
82.1600474062271
81.9731133179376
81.7188262162679
81.5445503786205
81.4277933566229
81.2521335739569
81.1246934228423
81.0514061399119
81.0151492076908
81.0992442975971
81.2731933556722
81.4664528837603
81.6317175553629
81.8232971641247
81.968804980356
82.1319452019166
82.2438783215602
82.2748272053801
82.3030453169821
82.4074931914405
82.5338945019271
82.6016497002911
82.6457056600501
82.706802516378
82.7434681460018
82.796388535034
82.8895194996256
82.930161072267
82.884250394124
82.9169980248217
83.0017576099958
83.1218896583161
83.1825187104628
83.2276575650757
83.2970697506438
83.3697647677689
83.4145216270112
83.5021359462849
83.5668401133924
83.6252054041489
83.6204687416776
83.5852563228416
83.5119628585006
83.449999471173
83.462305820117
83.5630560964982
83.6802880423915
83.9687699429903
84.2552113388714
84.4539641640453
84.6981737105848
84.9520476927401
85.141820004853
85.2932500899698
85.4102038337082
85.5620658218979
85.6874103297561
85.7699155886028
85.8882407577718
86.0232444458817
86.1417795593384
86.2428038704378
86.3053845831752
86.3481656014824
86.3726063925292
86.4211630431682
86.5155332344715
86.6083095284026
86.6764187951701
86.7369433031304
86.7749746680025
86.8446119043949
86.9031747837548
87.0053859441157
87.097438199128
87.1061164035368
87.0804450418043
87.165767305208
87.2484313598344
87.2783281430966
87.2827481827408
87.2954589254097
87.3114008425204
87.3506993549489
87.4546953925073
87.5913176036123
87.6510343445
87.6394238446436
87.634061891218
87.6699600045947
87.6952868340719
87.7149424130065
87.7433079564978
87.7744817363008
87.8083098614641
87.8446563960769
87.8775543039112
87.8509025097599
87.8498904035684
87.9496499679736
88.0132440526269
88.053162608238
88.0898488304546
88.0829768973959
88.0852604497899
88.1676371042869
88.1955163048046
88.1579249047121
88.1347865204573
88.1797714304684
88.2110807155514
88.245275340091
88.3079413711206
88.3495703063257
88.3547906785447
88.3580587141283
88.3485117787311
88.3918333863935
88.4369843817787
88.4563522231882
88.4433748877847
88.4962375985103
88.5504041657561
88.5304218925178
88.5237850939197
88.5629242010167
88.6286341610963
88.6779893146872
88.6840570745746
88.6817399935293
88.6819732584635
88.7126906168131
88.7611461805872
88.791273256406
88.8061547678723
88.8145254902413
88.8208518556528
88.8672932421642
88.911835245016
88.9436237979462
88.9554134834
89.0086125757519
89.0467980465572
89.0542122226002
89.0649446232321
89.0685181703581
89.0555143004623
89.0605978516674
89.0825901090345
89.0999656380086
89.1415359407176
89.1819589866735
89.1714240459237
89.2006302878264
89.2639259899039
89.2986312494687
89.3638618249097
89.4313091353103
89.4640365205036
89.5131521951269
89.5481077938741
89.5670378506349
89.5958650572972
89.6224770301981
89.6759242986706
89.7534141244035
89.7906562365596
89.8380611539716
89.9038889435037
89.9701869361477
89.9728673797966
89.9536252000182
90.0462592371309
90.1795145123072
90.2022026890832
90.1818631767019
90.1808729909382
90.2017151415829
90.3086079775514
90.4065452670697
90.4035168814663
90.4510123793638
90.4855572803414
90.4715732148617
90.496287424573
90.5995257223443
90.6769200292533
90.6935750034298
90.635271726707
90.6094471558654
90.6801771365387
90.7544502509336
90.778867114183
90.7344620480687
90.7243317574252
90.7827798181872
90.8709630706617
91.012439443368
91.0011883346325
91.0087042703219
91.0767589752978
91.0230204773121
91.0017420521653
91.1040066515397
91.0736447205164
91.0800715637949
91.1953942610748
91.1879733206565
91.0804733054183
91.0910357775158
91.1754795472912
91.1901155383351
91.2676578534941
91.3251190516256
91.3048121136661
91.3236407918117
91.2671267776357
91.2520024835408
91.4081999573983
91.4300776342676
91.4316777906235
91.5974012002216
91.5777969389639
91.4828912544932
91.4996088058608
91.5036301728887
91.4084906665682
91.4236623808321
91.5634235023434
91.5977749217897
91.5353007421575
91.4915839909899
91.5281234158802
91.5562718335271
91.5450409509404
91.6200944029316
91.6503150999842
91.6426175686472
91.7103761264824
91.7400769165904
91.6598877697357
91.6518282521282
91.6713887041052
91.7191221089138
91.7362440202873
91.7257425732796
91.7756235537996
91.8317549735482
91.789898981579
91.8390494227257
91.8297049880347
91.7488897667572
91.8090869922478
91.8505554678019
91.8294407207466
91.8484157364833
91.8833119164926
91.8901148457345
91.8961224348724
91.962971945772
92.0509319996554
91.9636200300106
91.9167342811891
92.0435650487654
92.0896011772545
92.0316244699506
92.0499392398774
92.0967484642956
92.1270627090131
92.1203284837462
92.0533599556407
92.0646506481175
92.1512244758191
92.1796749285205
92.1688348589718
92.1327293327997
92.1988251127628
92.2884125747133
92.2667112977729
92.2176930039428
92.2083249825615
92.2299503198201
92.2497191578258
92.2001259087362
92.1961514034297
92.2744127689247
92.2702783290295
92.2150797774896
92.2774203653537
92.3028080405081
92.2386097310107
92.1739944252062
92.2056271360107
92.2862982453556
92.2742887439155
92.2084912876168
92.2580718754168
92.2928436266786
92.2922844434949
92.3107314633715
92.3238519382704
92.3425588167481
92.3991010318494
92.4299660517732
92.4805818671747
92.5644581494604
92.550287015758
92.5165585249083
92.5708501358063
92.5587946783686
92.4884368059011
92.4384503185326
92.4372115922249
92.4516625471646
92.3867265706174
92.3472918100967
92.3139650464374
92.3136425366438
92.3599219701389
92.3920965617025
92.3959569765189
92.4423050070634
92.4439671445963
92.3799883438
92.3184345310073
92.3815788396452
92.3315085599399
92.1931171665534
92.2652103419307
92.3393660407612
92.3209751338101
92.4097022390445
92.5274442794989
92.543544943761
92.4923273148441
92.4563176861248
92.5031598180114
92.5819669827815
92.5836573603496
92.5385930207306
92.5668813576366
92.6255421150829
92.6555699057363
92.6541279305126
92.6813872189978
92.710575313109
92.7739913841598
92.9036574863304
92.9248522582803
92.8973897250883
92.9371315535488
93.0934462019256
93.2306040327467
93.2064876530158
93.264013205945
93.3376445413207
93.4140381938466
93.561983531998
93.7422336421824
93.7792029572912
93.7149035876426
93.7205607069171
93.8922095508284
93.8619479889881
93.7965526160892
93.7771397358928
93.941335884782
94.0935960961282
94.1698944539739
94.2915340190593
94.3115097013109
94.2610038755997
94.3004501338203
94.1854217558225
94.277629059746
94.4391855180329
94.732317883632
94.6521514260156
94.4954378415926
94.5137674243848
94.8392437046858
95.0584601092219
94.9839255387077
94.8855410099775
95.0894057987627
95.3309939112166
95.4150203132913
95.3620060005345
95.3519730187585
95.433962410064
95.4599036055968
95.3275131166872
95.3217439280615
95.5473632754291
95.7590703646677
95.6820006440128
95.4847300938278
95.5051476422988
95.9117063942181
96.0944588563128
96.1849319880136
96.1284935287057
96.2556440279689
96.6317408814395
96.8790328769625
96.7380895099695
96.5786055080855
96.9055386539736
96.9848497643785
97.0421934481117
97.1705644408538
96.9156816771591
97.0119994760701
97.3277917476857
97.9512280884188
98.2015868417996
98.4507329992931
98.2857681867374
97.7110141403008
97.4679828514659
97.148978923816
96.7912860731346
96.5705960784233
96.4807992794305
96.4849653715
96.256368568136
95.9449638310842
95.6393066052108
95.5919116129756
95.5372209567104
95.468206395774
95.1297742098487
94.8016942845112
94.789443422005
94.7428881226806
94.5607451290875
94.4596198457804
94.4179116864079
94.4379297512076
94.3695538784568
94.2890945686251
94.3064727088785
94.5120610037102
94.6482344230051
94.5614032160666
94.412917658126
94.3565402177146
94.3444225466288
94.5122261770371
94.757751662283
94.9106920508604
94.8036074479862
94.7618544668719
94.7762746591468
94.5597632870428
94.5055148061602
94.8014019417217
94.9650248376073
95.0264097029096
94.9613461161955
94.9189099762298
95.0327322014487
95.1530493100156
95.2090088746328
95.3059532904438
95.3361566512437
95.4547032632257
95.5588814620495
95.6505122636764
95.7980296521236
95.8981324318965
95.7111393338972
95.85944125474
96.2484050307178
96.4287255899484
96.6711936667731
97.0733443436738
97.3642547943742
97.6389746398235
97.8261029053734
97.9639978305414
98.1078902339087
98.1116254050543
98.1202914191745
98.0660809096168
98.114852470358
98.316514413127
98.4747905181606
98.5181465069032
98.4091756967264
98.3107228673315
97.9780913092462
97.8729289370644
97.9764316289942
98.0567771964789
97.9482203700994
98.0256062684255
97.8992902338829
97.5020083723181
97.2181912448841
97.3012828794588
97.3941166124079
97.0345473761138
96.7121102485054
97.0717567786624
97.3124158699203
97.1835537695267
97.1427360237086
97.5239550772369
97.7869496221768
97.6126440428457
97.6116390527633
97.9387944976329
97.9393826862775
98.0811650608527
98.1621103172164
98.2217083329924
97.9274349220054
97.4581367360913
97.0517140529412
97.186587780815
97.1211152228152
96.8842196442863
96.8465501889485
96.766682370633
96.5720349722555
96.3974685053229
96.1493670929453
96.000227997601
96.0247810392258
96.1350518307271
96.0877318388255
95.95999102764
95.7662743961335
95.6444114178173
95.5689511984971
95.5102660201028
95.52190428797
95.5254024095411
95.3657838451986
95.3161095554603
95.3928061369485
95.3810276310766
95.2034451459538
95.1837393129691
95.101382351273
95.017371747853
94.942368098023
94.9811079409923
94.9609884957867
94.867713666186
94.8040731168746
94.7747087613718
94.8004053940034
94.868586278226
94.7755250614175
94.6634894985878
94.6128962507118
94.6626832747146
94.6987572931168
94.6862824448476
94.6167285383689
94.6103042173191
94.6317161011335
94.6694334501164
94.6525443518328
94.6547427471983
94.6703223108247
94.6379685392915
94.6086712607627
94.6000604994006
94.5238446497882
94.4557029617337
94.4728376665417
94.4256266703654
94.3457753338636
94.3966891942027
94.4848157471607
94.5326512412827
94.5380988085309
94.5220314124522
94.519839906817
94.5073412323433
94.4915819423263
94.4913404486215
94.4313579161398
94.4205821289082
94.4208462490131
94.394883450805
94.4054634624823
94.4574515624275
94.4577451126395
94.413513091721
94.3622338674896
94.3282084836951
94.3229789100763
94.3634161644205
94.3316729976026
94.3299977561986
94.3716714211468
94.3827016122713
94.3581736450938
94.3253480874611
94.2807440027762
94.2719716328359
94.3112975996329
94.3672918088679
94.2807796187644
94.243883746029
94.2861270978509
94.3039478099802
94.3308012928646
94.2751767297092
94.1886023046503
94.2188555976362
94.2540274836728
94.2328401757959
94.2349709094269
94.2265305256688
94.1917226229437
94.2382657044564
94.2346805093549
94.2151936753944
94.1697080807846
94.174370965641
94.0925489178366
94.0367000948457
93.9963215702843
93.8788353660626
93.7298135365076
93.6194647322567
93.3902473414203
93.2223945278205
93.0565826344249
92.7494969271693
92.3282920563788
91.9440216930429
91.5992842555074
91.2499551745351
90.9079433945903
90.6163727723275
90.4157288524908
90.3222558212675
90.0031551612057
89.8136500102223
89.7436640129504
89.6380595949438
89.6222341267844
89.5942692392941
89.5799688318286
89.6642040981326
89.6977448060788
89.6930041739763
89.7658223716435
89.8688526514334
89.9107046305802
89.9103911554743
89.8670994668821
89.7705775589188
89.6887887954586
89.6872339910658
89.4705914356725
89.2549587621293
89.1279700447669
88.8077003703723
88.5981804536738
88.3997562273908
88.1134084469188
87.8407623487267
87.5304444612773
87.0537445055016
86.764007287522
86.576625899764
86.2522613090133
85.8214062903138
85.3418550360702
85.051054477655
84.6689863013869
84.2329453415015
83.9487774188657
83.631880379897
83.1373694001754
82.6909484604824
82.4068189690304
82.1233195499063
81.7603596506444
81.1789886499076
80.7551894520969
81.0652823220575
80.9067536805629
80.4849269228362
80.3049969782579
80.2321687736745
80.0028709030755
79.7490664830063
79.3957497554239
79.0048313026047
79.1211400255172
79.2557499774651
79.1303271108328
78.9584187484811
78.8582530754199
78.7446023146034
78.7443390480654
78.980194717858
79.0019180435109
78.8070685604037
78.9280460131061
79.1287504432202
79.0628364768585
78.9674782873113
78.8736350852786
78.8220365729603
78.7802552520619
78.7598617143985
78.7562030282724
78.7565064896055
78.7780228503535
78.8612946994078
79.0004157528762
79.1865452828576
79.3845689985965
79.6127695178034
79.8181933049256
80.0325620440883
80.2420886962497
80.4552301492202
80.4818576747615
80.4609838987438
81.0744019883488
81.4656767119083
81.3838277381095
81.4894297636979
81.8308242087258
81.9831832298405
82.1462539563183
82.0278415955433
81.5212933617713
82.127740873927
82.794243952599
82.8414455364751
82.8787392014284
82.8576158034202
82.9341757292473
82.9419375351802
82.8590623682803
82.8089271939136
82.6571779957634
82.9989223185384
83.626581887305
83.6582777066414
83.5229463299832
83.8108346335406
83.9446711192322
83.8953805048712
83.891443498093
83.9408531041385
83.7869318311177
83.7205039316056
83.7342029218987
83.5684012530746
83.5994915126909
83.6233988018818
83.6596124649958
83.6288980109612
83.4012321545713
83.9440193974002
84.5823259949852
84.6738628551899
84.6095616791349
84.5683516031364
84.7416440396957
85.0935560908891
85.2046093217889
85.1125544842517
85.2062817400532
85.384508863502
85.4838577877512
85.4289679616944
85.2789472222473
85.1570570452689
84.9633649780872
84.6733488810666
84.2850079082618
83.81638136154
83.526223658867
83.1149590023617
82.5365116631119
82.0667167879755
81.9280677280847
81.7216777125734
81.3245002259949
80.9440993012474
81.1170613315409
81.1840029842217
81.0304468763331
80.8313324356668
80.6878879110841
80.6706827978495
80.6168648906043
80.5143145212667
80.3735167716706
80.0956710896087
79.7788234960423
79.7528678045918
79.5608687491892
79.1796814234203
78.8661747611577
78.6527476244989
78.3650965230143
78.0831862874028
77.8250385415188
77.4432712830468
77.3448807148262
77.4061396415565
77.257906189152
77.0725336313347
76.9670664651868
76.9262705350435
76.8523112107836
76.8265326184592
76.913321290682
76.919578695113
76.8616423308482
76.9743980832736
77.0018388269826
77.1083891486725
77.1991908344185
77.0745179156023
76.900445267324
76.872948278347
76.8340117885002
76.6660311566559
76.5100410883249
76.3643152869937
76.2625546342533
76.1772559618366
76.2202287862068
76.3246559708084
76.309233844642
76.3787872196685
76.5085146733917
76.5251554165179
76.6426416046729
76.9342628627809
77.1334893565473
77.2638975799005
77.3978223729155
77.567615863349
77.7313832852057
77.8787858843586
78.0355068160583
78.2020088380603
78.3415291340192
78.4101472944042
78.4912179819904
78.6683285311691
78.8238680516619
78.9595766004635
79.0328519532728
79.071005222877
79.0961730842051
79.1452463609177
79.2148081047646
79.2484006851384
79.2437719793232
79.2485478279498
79.27842656387
79.3007932113885
79.3211675952566
79.3392342546614
79.3493017386912
79.3695238569904
79.4149166960479
79.4609953457352
79.5079587991811
79.5729403271135
79.6221617950597
79.6661295755511
79.7178849496165
79.7398789451324
79.743322064838
79.7548680042793
79.7454156098058
79.7404637398663
79.7126505767199
79.6556202842262
79.5556642712114
79.4574096076819
79.3722995684532
79.2837826002382
79.1743801028309
79.0477253936943
78.897532514402
78.7212966959645
78.5435155225885
78.3648908295106
78.1368238740593
77.9289622519615
77.7507776326069
77.5895519093548
77.4432985985606
77.315855345479
77.2298047678066
77.1944666046326
77.1849768919124
77.212391417142
77.2611342414042
77.3319698305884
77.4580863773421
77.6026134167003
77.7467150643724
77.9360070791934
78.1363443878921
78.340283192415
78.542151054194
78.7383741922065
78.9373367491253
79.1458898613794
79.3382458251774
79.508533959722
79.6884082100928
79.8851900894172
80.0707510803441
80.2425295437957
80.4315383756628
80.6430828838164
80.8496754175905
81.0549281137209
81.2759835908972
81.4969051962157
81.7070343979006
81.9209521348202
82.1125557047333
82.2768403595615
82.3534226857996
82.3512785823987
82.2822745601315
82.1357479501455
81.9364961643768
81.7069927099952
81.4401995118006
81.1298320517148
80.8100995732691
80.4781773317275
80.0749075209882
79.6125551788507
79.127190600491
78.6059773464538
78.0087723811798
77.3813502670565
76.7577533732205
76.1555326659726
75.6020267762353
75.111678592684
74.6804227089728
74.3640934150837
74.1238721281486
73.9294075896666
73.7800297087888
73.6771021425493
73.6034439955409
73.5220266659754
73.374764453057
73.1639121828438
72.8709091034642
72.498318075342
72.0783307929449
71.6312510194682
71.1674727706431
70.7576716712625
70.3480680662759
69.9490443215995
69.5778821837253
69.2334823362323
68.8799871140576
68.5009103667038
68.0826820110996
67.6679640527826
67.228042083381
66.7910274650466
66.3443683271145
65.8614725582222
65.3491285778255
64.8669455644201
64.3614704160558
63.817519184203
63.2488810690527
62.687932766805
62.0962793835278
61.4289685034096
60.6829140313711
59.9087705526355
59.1202778443058
58.3319614728859
57.5597624453883
56.8701505010248
56.2465610809135
55.716671125573
55.283060950433
54.9573499892861
54.6448887938975
54.3033130425365
53.9346459944346
53.5676105790679
53.1490096268666
52.6749394921848
52.1521562888821
51.6187205442321
50.9983082604919
50.331991830745
49.6504219835486
48.9876340729246
48.3211101157802
47.6778871765937
47.0912414055648
46.5858900720145
46.106311348746
45.6944085603189
45.3630397516591
45.1111026586002
44.8732887545007
44.6836748211528
44.5103794018388
44.3674322713879
44.2666745639737
44.2372480852948
44.2571045275624
44.3673816110277
44.532874290262
44.7961252451025
45.1101316371057
45.5161720551716
45.9550457670072
46.3835428751509
46.8079462523793
47.2836168643634
47.7410066780958
48.1492657628965
48.5268669861041
48.9335446413665
49.3655847785139
49.8131929667497
50.2799413326999
50.7878698900277
51.2871936382831
51.7576552453668
52.1912574055995
52.6400213695472
53.0824873969927
53.5803514426935
54.0862580221461
54.6030850982319
55.105931163829
55.6237298967474
56.1346778944702
56.6684217735625
57.187526997858
57.7088115039971
58.229165962065
58.7570072914275
59.2820632147927
59.8340649176964
60.3761920112791
60.9047311036216
61.4440579658317
62.0041088298985
62.5569615675281
63.1314146267201
63.6398939377301
64.1537714175928
64.6812398413229
65.1656111529152
65.5871057873851
65.9745997858902
66.3357278634536
66.6946900457548
67.022429736109
67.3381209615765
67.5963830425723
67.8509112475586
68.1068017817968
68.3912019488268
68.6484237163535
68.855952892106
69.0433543336653
69.1935492579045
69.2801033946919
69.3697096850814
69.4442967600988
69.4628215011023
69.4752018352839
69.5543971314533
69.6465479857476
69.7632840910684
69.9467896871074
70.2297538245692
70.554779202786
70.8664883565905
71.1724903500021
71.4688434118576
71.7065476316123
71.8762242178846
72.0256831260135
72.1845527793772
72.3153278551129
72.4283574274427
72.5118523901889
72.5752381553304
72.6470939426617
72.7497596623202
72.8243085406934
72.922473079562
73.0182988326076
73.1225645604315
73.2517622805748
73.3592213278973
73.4438318884617
73.4797074112981
73.5163549763479
73.5725266057133
73.5868783330998
73.5916388247792
73.5596243609442
73.5179873791741
73.4844432559859
73.4850387736357
73.4976098517681
73.5122226405912
73.4811884116957
73.4679124886207
73.4602863560918
73.4185938909399
73.296018279899
73.1513553098945
73.0281587385995
72.933877766714
72.7885592319311
72.6448929581991
72.5008958197168
72.4585774192081
72.4449131788776
72.3824868991753
72.3428423066451
72.3991382514776
72.4398130518443
72.4522167857143
72.4032945686787
72.3816333662321
72.3896439230182
72.4227504670739
72.4160033554164
72.3793529626242
72.3206780398073
72.2508976198229
72.1663660714655
72.1099104811526
72.0373306241912
71.9678970462329
71.8722621087041
71.8544460610258
71.7741772079631
71.688665732344
71.6118541078224
71.5210190893491
71.4639613215356
71.4237393075427
71.3498903351839
71.3100671459221
71.261312048231
71.2611620114948
71.2728828456819
71.2401796570721
71.16680008211
71.0998181433525
71.0065992454813
70.8768205480274
70.7571939255303
70.634767128392
70.4755402932842
70.3366197005695
70.1534784991634
69.9436959041423
69.7335340454237
69.5454351233272
69.3499855694125
69.1221194377561
68.8230200873553
68.5896386671248
68.3949736348848
68.2243938954813
68.0222992976709
67.8396139968496
67.7050828352892
67.5431756633608
67.3357417012669
67.1959474280554
67.0672576898308
66.9920604872942
66.8956175458226
66.8163470835925
66.6939558133826
66.5861831375271
66.4592274532048
66.3675964866802
66.2399106676517
66.1325634739591
66.0140668697293
65.8595663006783
65.6675728651636
65.5697593409651
65.3898447834138
65.1849912221734
65.0000635153711
64.7635693714515
64.3996128388966
64.515093174055
64.4592190596842
64.095319133143
63.8752059711809
63.7466422852507
63.5858643674042
63.4784463972432
63.3724179134645
63.2196660770844
63.0926583896051
