1798
3999.43349933624
650.420452594757
1
128
4
95.4278912831201
95.4189818397454
95.3950961270806
95.3632966751247
95.348161370582
95.3673670403271
95.3982741267588
95.4220998462604
95.395930155838
95.4516265514735
95.5612942385919
95.5682142011778
95.4142066803127
95.3352845893054
95.3551060242433
95.3629861154951
95.4591285344137
95.483061218517
95.4539452845544
95.4893099465686
95.4863288950775
95.4390580964637
95.4590845104089
95.4980633619657
95.4554056728918
95.5146187619539
95.4553789176998
95.3881875214669
95.4360997876286
95.4563851000941
95.4481776992129
95.5115096057862
95.5045391159395
95.5005891384234
95.5145204051949
95.4428698145227
95.365127875374
95.4046765085858
95.4966157183097
95.529539749458
95.4174417744464
95.358349640488
95.4667952765447
95.5828891682007
95.6203971614285
95.7040153153826
95.6264934765497
95.5298706065994
95.5889231314804
95.6634960136392
95.4943427154976
95.3928888187656
95.5095339354559
95.6793056776306
95.7219739907759
95.7316126672576
95.6468538161171
95.5923796877437
95.5832566305408
95.5017641482303
95.4806473311378
95.613132606224
95.6245266051379
95.6517857325807
95.7852056587176
95.820253271932
95.6838645039123
95.6253142284496
95.6323557161552
95.7658395169075
95.8087031548349
95.6933528781264
95.6610772804374
95.8002566145872
95.9226161033184
95.8801804581365
95.6429390003156
95.5290646372343
95.6171758598983
95.762647339652
95.9023807685046
95.9126587152221
95.816036297872
95.750106756733
95.6501390013865
95.686061364738
95.8530710130018
95.8661000635136
95.7045698695336
95.7412699246046
95.8536043524873
95.8577048381569
95.9102241853564
95.8820404402679
95.7979602343513
95.8846691151575
95.8204117593701
95.7039156416499
95.8258290341434
96.0104583444937
95.8687451303031
95.7762639209518
95.8077966459279
95.8862828318718
95.8591785517582
95.8163744857437
95.8472451665704
95.9057930425095
95.8354107233101
95.8351567606954
95.8907486375499
95.8754040185599
95.8307563943733
95.8281294609711
95.8449348149228
95.8902364625487
95.8536276680868
95.8961673987
95.9783324300565
95.9288603124077
95.8535277857265
95.7760656426624
95.7700803197267
95.8811538243644
95.8841247362108
95.9268598434795
95.9529369154279
95.9470355570506
95.949932421505
95.9471263381728
95.9745570906582
95.9666653009935
95.8984715087775
96.0653771969462
96.1664498971258
96.0176260235689
95.9530500790443
95.9905278410159
95.8771396094212
95.8953607527946
95.9613177445189
96.0728989745391
96.1299075404985
96.1159334737571
96.0024061188346
95.9227544415346
96.0010890803518
96.0992892454833
96.0955930533864
96.1589509634685
96.1176316374693
96.1257724163785
96.1829438094263
96.082735747533
95.9405464244239
96.0693444928005
96.2170608313892
96.193718280187
96.0048356234634
95.9103019453666
95.9633680684939
96.0446145439913
95.9313668689311
95.9586151270078
96.0436782864784
96.0508694924916
96.0362295034214
96.123826692679
96.0487020121257
95.9225595720078
95.9151414017581
95.9179373459968
95.8506437958102
95.837567245371
95.8250679982733
95.8191058664188
95.8855569057063
95.8584582998027
95.8660002427468
95.8428921397891
95.7122909615639
95.6447450678002
95.603687733897
95.5385158103273
95.529127428232
95.4839714618588
95.2643822160901
95.3251695049509
95.467576227892
95.4197049309518
95.2375898037438
95.170028300961
95.0484286204266
94.8608160901831
94.7612308050741
94.6957739964044
94.6033800096605
94.4636131365757
94.4373202530062
94.4902982357426
94.4190555046932
94.2767078677369
94.132715462241
94.0851742668025
94.0768760381028
93.9692276411099
93.7591916492483
93.7572252379208
93.5510956252041
93.5033242949984
93.5090711447218
93.3510825996999
93.1429907881983
93.1427888051661
93.121062935878
92.9616906251256
92.7606044224708
92.636223462691
92.4730897780644
92.3634494194309
92.216963460866
92.1775528558377
92.0501890729196
91.8181994211674
91.6195511898976
91.5985428154327
91.5601824472564
91.5177510490423
91.4336621930914
91.2992842099786
90.9969914876237
90.9232362910148
90.9096008450014
90.7100646655464
90.5672342699692
90.5292060509127
90.382660932738
90.2840128005798
90.0460798752565
89.9215751616884
89.8355896026323
89.7613524250613
89.5494186227278
89.3641077134391
89.3087170041363
89.3558221469931
89.1228691181665
88.7778296934297
88.6795743806411
88.7508769007151
88.6348654310513
88.4716228626978
88.2956931363446
88.119773195265
87.9007974174676
87.8408673534671
87.8490120597593
87.7212771372743
87.5582976572924
87.451378125799
87.2516002685534
87.0697004482361
87.0078214771254
87.0270116098762
86.7782404406071
86.5358914317567
86.4306713605806
86.4665506164668
86.3586732676077
86.1806530166573
86.1018055727462
86.0304110702117
85.8636574169496
85.6891838385322
85.4977514635694
85.4225182241817
85.2756457957068
85.1432752194325
85.0727977104963
84.9504506727795
84.8157254080725
84.7731430698615
84.671034739694
84.6256232066821
84.5190869103304
84.3597887786195
84.2350741871756
84.0821950796635
83.9018304055445
83.8627801064448
83.7485692205891
83.6547234822229
83.5144344767957
83.4656826295682
83.457162967683
83.3298070873954
83.2497628533748
83.089502762911
82.9471824963835
82.9410287178153
82.7989493744414
82.6884686937084
82.5513290021446
82.5501561123373
82.4854323477702
82.2839518695129
82.1611655677803
82.1872914541728
82.0427226036374
81.8795728789567
81.7988164783855
81.7713248019525
81.6078722800203
81.4383504039286
81.3895302617235
81.3019222488345
81.1486193125589
81.1599246144276
81.1862518090175
81.1207558351802
80.911817872716
80.7818001846793
80.7290272451389
80.7541852332868
80.6760125487607
80.6020336934778
80.5037495432275
80.4966736759381
80.4498855071772
80.3064587192981
80.2327090630412
80.179520478494
80.0837772341874
80.0538512300859
79.9988210265364
79.9879591307067
80.0328564211321
79.9535537140012
79.715392212706
79.6053137353798
79.6050717805191
79.6513564423422
79.5947693544665
79.5403863430242
79.4650176582342
79.4308698659272
79.2866244552676
79.3354246719102
79.4251193080968
79.4476941207334
79.3243711898955
79.1920527873086
79.0647823393544
79.1058070419211
79.0963422842709
79.065554241905
79.0393210991695
79.0318964603334
79.0496220076687
79.0752598946509
79.0510658125657
79.0272093316209
78.8986292996398
78.8573847946039
78.8258297014667
78.8453539829567
78.825236257856
78.8597885634858
78.840491206761
78.7902850314228
78.7596430307625
78.7526790037222
78.7439814844434
78.6958371490262
78.6849535268499
78.7344869642965
78.6658165905748
78.6032117094363
78.5927210259237
78.632742678891
78.6264283719288
78.6879907439758
78.6476734010961
78.6260017725654
78.5558104344782
78.5427952065909
78.5040350952748
78.5455545515248
78.6032532282728
78.6054202825138
78.5802932834073
78.5990698221365
78.6178456853255
78.66138822032
78.6243671632032
78.6957853412252
78.7184119842958
78.769974416004
78.7833255991763
78.7710630135163
78.7851060735872
78.7872725963419
78.7104313234378
78.7270556038487
78.8837253521958
79.0109293195675
78.9414439890543
78.9334250083664
78.9792674038195
79.0087500439587
78.9832883539781
79.1338064957334
79.180245484414
79.1150116219265
79.1127957866467
79.2319452838062
79.2744600623565
79.3318734959281
79.3533368370908
79.4102282103491
79.414714072406
79.4801069544718
79.5372572504529
79.5802494982987
79.656501774922
79.7461722196238
79.722325330577
79.7791479510606
79.7924525008334
79.8934117330553
79.9762442048489
80.0505728185376
80.1027252620839
80.2228390316528
80.261111172189
80.2727615238058
80.3342056829854
80.4631839138708
80.5115366314988
80.5981131654407
80.5996588881063
80.6406933770696
80.6783681388493
80.7988913216878
80.8536672919109
80.991249867643
81.111572354102
81.2168782135581
81.2679679765965
81.3105648315059
81.3610625500053
81.5323395079571
81.65042614128
81.6820211810823
81.7191140970216
81.7945504042086
81.7747901213733
81.9395495593864
82.0116430846288
82.0381683669665
82.1666408175901
82.3112755775775
82.3503834419774
82.4506571857612
82.5837244081125
82.6824877887614
82.660399216253
82.7197647288105
82.8593841390656
82.9545383631656
83.0430411745064
83.1958914718005
83.2991736345571
83.3788456507261
83.4094365445306
83.4442323058208
83.5214868052512
83.6604382837565
83.7114679678217
83.7424398472149
83.7829328157127
83.9363690295444
84.0577694649789
84.2033596191299
84.2594677646909
84.2777617804876
84.2694926748662
84.4297916165566
84.5099696167072
84.5239489055083
84.6099030463562
84.7470268795739
84.8321664543187
84.8966683004119
84.9681821655678
85.0924764352412
85.1200692368511
85.2163451586292
85.2948233466628
85.3320867009289
85.4261717054057
85.481015039361
85.5421684919007
85.6904634678295
85.7591733771032
85.7810991285008
85.8375190246959
85.9622570206751
86.045654191839
86.1368525021152
86.1945816749156
86.2871990583053
86.3860884150465
86.4638048214626
86.5524360977978
86.6327396744141
86.656204918903
86.7430894498347
86.8515901224537
86.9683499672666
87.0270822767119
87.09845109313
87.1302639828805
87.1635039662597
87.2365085592332
87.3049824826468
87.3606587663752
87.4825145239574
87.6056941015019
87.6471422198759
87.6711895889379
87.7511617516356
87.7449492847256
87.7540905876449
87.8079802066406
87.8080766156785
87.8103187559598
87.9073198912874
87.9358353728101
87.9616766915616
87.9742706672051
88.0309590294039
88.0010442556104
87.9664191240172
87.9739055889815
88.0119535089362
87.9830362079129
87.9367865088387
87.8639872915647
87.8109678777515
87.7693639129814
87.7564884414626
87.7368316201091
87.6504920788471
87.4709697502931
87.4449967853754
87.4128587449913
87.3352506531914
87.2476298122451
87.1389596544638
87.0405718273675
87.0227048189844
86.9054539992073
86.7959478207836
86.762135568045
86.6648674089997
86.4712046598916
86.3146357196701
86.1469943456095
85.9845922668265
85.865121111233
85.7400731035972
85.5778618657953
85.4842746421164
85.3573072259515
85.2081530690022
85.0616764772264
84.9465524225798
84.907800474749
84.9717395249594
85.0219560038105
85.0821853490299
85.18074228456
85.3574820133945
85.4332396166916
85.4768982539326
85.5507605637467
85.6809855212741
85.7532620925419
85.7878283600776
85.8058281105695
85.9238425907965
85.9770108588782
85.9995869412277
86.0048247736472
85.9955417444853
86.0500479368172
86.162119164272
86.16489827442
86.1524229477921
86.2199308025035
86.2681634401161
86.2379486208866
86.2321174879144
86.3563410684633
86.4625669106619
86.4713503831947
86.5725016468585
86.6522143851836
86.6454039670398
86.706868266575
86.8040073858728
86.829422379346
86.8993063571809
86.8938961246916
86.8497445854931
86.8251913307476
86.8801982025814
87.0783535907442
87.2724905704002
87.3971430982099
87.5761394812159
87.7686270508919
87.9651846014309
88.1229671405523
88.2347609781013
88.3277137563491
88.4357138594594
88.5052699828287
88.5646577425664
88.6738269184569
88.7572257589137
88.8534786604933
88.9459610028424
88.9745100080221
88.9794243749772
89.0297892644226
89.0981584784052
89.2189675195932
89.3449378709167
89.3418833668731
89.3457029178067
89.4032198591505
89.4277964365677
89.483222032136
89.5808022406599
89.6004064211795
89.5693437331396
89.5884940288641
89.7145747542248
89.8494552882547
89.9114548363456
89.8980264274795
89.8924898468784
89.9126931819474
89.9181034281719
89.9123408610082
89.9803785829285
90.0713843579029
90.1530207338257
90.1758458163202
90.1689313411095
90.2049349114567
90.2280398024697
90.2041934879227
90.2429056082157
90.2582516314799
90.3048039792453
90.4075098957343
90.4382224048337
90.3910906732389
90.4188215594249
90.5228267161868
90.536747473417
90.5010980390536
90.4987246302387
90.5318226910475
90.6298258325111
90.6470912109915
90.6408606646476
90.6617047985523
90.6961042419179
90.6869051354944
90.6906834790465
90.7378730791409
90.7855510350599
90.7844646451948
90.796938795057
90.8042896931227
90.8203618541496
90.8318996328233
90.8465607198397
90.862086608433
90.9065987454112
90.9311269596761
90.9734132536486
90.99667173947
90.9888364790833
90.9855874543455
91.0470403706249
91.0713801349989
91.0846372523394
91.1312669770802
91.1560211385394
91.1713557509992
91.1996727227849
91.190978807614
91.2061154083778
91.256249257014
91.3040886550193
91.3199649422215
91.3130380612763
91.3133699190655
91.3803628856048
91.4319887814945
91.4279921530914
91.445002935547
91.4549008101332
91.4447055553096
91.4308876516581
91.37738576138
91.4299763132502
91.5198834732805
91.5581006478155
91.5830124137802
91.5882258521714
91.6157323953252
91.662317574259
91.7390656608581
91.7730800465114
91.7668454023902
91.847755886194
91.9101148138493
91.9197172687933
91.9106677792329
91.9454361634107
91.9622855461488
91.9959651157827
92.0189780926188
92.0500553292926
92.123234448606
92.1563010716278
92.185624572275
92.249288896528
92.3595020543791
92.4091015194648
92.3617153607244
92.3627326665303
92.4025372961448
92.4188906303696
92.4334010564154
92.5394434386286
92.6036661111713
92.5936408120609
92.5920895083282
92.6905030323702
92.7270926451174
92.7087723684031
92.7177092071631
92.7821482947285
92.7858681805795
92.7895743639711
92.8238980762877
92.8142521509908
92.7844235915386
92.8402864652589
92.9412915010289
92.9296438957274
92.9274461265798
93.012161899211
93.0418777271694
93.0104594934578
93.032068985797
93.1649458060053
93.1897747440335
93.2109702231115
93.2230295759717
93.223594724719
93.1779474616089
93.1537710251266
93.1683042702353
93.2393842697666
93.3168699247906
93.320150455133
93.2979451279667
93.297384161517
93.2857350986502
93.2802330523833
93.3322387861341
93.3908109450109
93.3051138047189
93.2489418527818
93.3786880834786
93.4143624137636
93.4442987569465
93.5376537449344
93.5167507308095
93.4998674385424
93.5473940966844
93.5868379075126
93.6415575650323
93.5808250618037
93.5450785594118
93.5672565580611
93.6296958016897
93.6379462728666
93.5597548529118
93.5636872036719
93.5997389342266
93.6187840625054
93.679024229622
93.6846724570177
93.6267992032667
93.5543040511953
93.6464332583666
93.7228253227254
93.7193239444445
93.7854184453868
93.8397114706674
93.7868749422095
93.7370830416036
93.7505856182926
93.7746351083187
93.8328290867654
93.8033310613372
93.8050123071674
93.8855673785855
93.8127885985985
93.7687273512588
93.8156452345067
93.8682475555095
93.914596372015
93.9554933772716
93.9144822539555
93.9707842636792
94.0016217819933
93.9520025762481
93.9626350696373
93.9734585849373
94.0241978730199
94.0618329937946
94.0024605233022
94.0027108455786
94.0062465869959
94.0153205731466
94.0630430824273
94.0622795878842
94.0628173871539
94.159829072654
94.2141865086194
94.1029044631139
94.06743881692
94.1434901805052
94.126146002992
94.1254451302885
94.1933635046584
94.2635729730359
94.2217578386031
94.1839127927751
94.204782147699
94.1436811018544
94.1026229370257
94.0977761633063
94.1259857494548
94.118286278806
94.1376109586651
94.1939016674056
94.2434744951903
94.1756526391304
94.1487890465792
94.1939853752294
94.2558161011796
94.255588018431
94.2965499892285
94.3553108146356
94.3854136263647
94.4614265937544
94.4382608294921
94.4492321562581
94.4972518173125
94.5242321167295
94.5834881804214
94.6092260609976
94.5579522259272
94.5358482459956
94.4177254856765
94.2291131813482
94.2107870143699
94.3121277225924
94.283817909462
94.1909354566234
94.2335109339199
94.3128333595962
94.3728827991317
94.3809418739448
94.4311965936019
94.4025439327832
94.3189238906243
94.1858415463969
94.1379607847446
94.2057630728661
94.2217497088553
94.2415424150245
94.288064608008
94.3879622973476
94.4289565863887
94.3725778232155
94.3494465653467
94.4116363982611
94.510640411494
94.5252795533702
94.5042865553909
94.4457382288504
94.4461541572214
94.4468541999528
94.3951638316136
94.4336444011061
94.5375591395672
94.5709449323279
94.6453403736446
94.6896055385939
94.7469683203638
94.7682062539197
94.7652259832074
94.8759156379099
94.9927898532451
94.9805982225012
94.9999288459983
94.9984236215985
95.0968666465384
95.302567540264
95.3761158365258
95.3471362368508
95.3763870821037
95.4895477636855
95.6195301896475
95.5773369192399
95.5893378753841
95.8469670190625
95.8138265331969
95.7303507458873
95.8082452157498
95.7847048718252
95.7703770721993
95.7779935169824
95.7627828513745
95.9636207652971
96.1398193234273
96.2071060874351
96.3601681993938
96.526483918679
96.6270440558979
96.646377848112
96.5678119396486
96.3909338266764
96.1989896035015
96.2689212503886
96.434913447251
96.4942416564517
96.4852326972348
96.7090742985748
96.7881396284953
96.6304625948211
96.6585475059139
96.8184451292403
96.884904529554
96.9703497594895
97.1985231192654
97.3372894458596
96.9811197270802
96.8692893382351
97.1148812565752
97.1732501561763
97.0602589066744
97.2741519283697
97.5407743270676
97.4991121832283
97.6122308224618
97.9839904699898
97.9496924133662
97.6159893085171
97.6236049942594
97.9499710283975
98.0576227674707
98.1048888880664
98.1994576653636
98.3792158990712
98.7112608488333
98.9803461703547
98.9407423022909
98.5787636077277
98.2035159651788
98.0407667805263
97.8619284486532
97.6078496869374
97.3229175085343
97.4251446064073
97.4744902298529
97.2670205361903
96.8401039447817
96.6908734162008
96.6313391414699
96.6776004106734
96.6333262011206
96.3590834825773
96.2325535752835
96.0783956285732
95.8970039730689
96.0687951331944
96.1830275003748
96.0378651156282
95.9026628284352
95.9425850865126
95.9714772416131
96.0011304621998
96.049922437391
96.1048856444817
96.2563923951249
96.3094131338793
96.1450542250986
96.0801155768043
96.1034982355272
96.1322078973334
96.2847239732058
96.2211318208449
96.1025912186802
96.2479401443684
96.2346060857614
96.2333842092325
96.3008027419875
96.408196693808
96.3655742644617
96.4613416534284
96.5781599495463
96.827569467214
96.9794972655434
96.9225620780549
96.8518832458423
96.7994099096381
96.8983014841639
97.1443130295807
97.1060339700712
97.0859487440609
97.1719557399444
97.5142568098063
97.7219237352894
97.6719979440497
97.7697686244871
97.8971186672174
98.2267209530885
98.5452314665733
98.3243022153717
98.2370915064157
98.4933775772062
99.0413035381223
99.2748100729415
99.2285565442153
98.9969595136376
98.9403577244283
99.0690757663965
99.2167836851741
99.0593478988216
99.0715725489679
99.1047141828417
99.0772687914604
98.906562597368
99.079130616907
99.3250268619591
99.3612758879616
98.8651861322519
98.3693001961516
98.2358467981044
98.4075229076339
98.2965672178192
98.1092699749631
97.9898093125253
98.407706996409
98.7504888057166
98.5485457685645
98.2718513971047
98.481191414309
98.6149047767934
98.5921344105252
98.513261481464
98.5354573961389
98.3924184578306
98.4757290785703
98.7449007988463
98.7793192441911
98.3969507860341
98.2627843226672
98.2143651765668
98.0836807358708
98.0345788055285
98.2060465190336
97.9345753052527
97.796060458573
97.8816497401922
97.7572397243357
97.4727030435902
97.3814500443417
97.2977108495798
97.284167708221
97.2775210409692
97.2021458843511
97.0416344165632
96.9283095839607
96.9539647086259
96.9450615897838
96.8682074269439
96.6625886970882
96.5407734843617
96.5963787377702
96.6572421785635
96.7950387194299
96.7000704477937
96.6951179181036
96.7463828096103
96.5361861272212
96.3384158455001
96.4338711056743
96.4692976059877
96.4302814080991
96.4024578798765
96.4347317237237
96.3308542143835
96.2714331951573
96.2431044006765
96.2337399703785
96.2018290074761
96.195297724053
96.126212620742
96.1538228653278
96.2612296232581
96.2743399020916
96.2199626188173
96.1796500069186
96.1595130398277
96.1401118325124
96.0697057564401
96.0697604232577
96.082758628211
96.0581196189112
96.1016764489853
96.1294457092577
96.0818835773994
96.0267709403287
95.9854212420962
95.939284450237
95.9569815271899
96.0313033662466
96.0459232840591
96.0881704726381
96.0211437003683
95.9728118702285
95.9882003768972
96.0052343458142
96.0537206289948
95.9848698308962
95.9591280417824
96.0285501507022
95.9856169840238
95.9125514835661
95.8909074189384
95.9653017567159
95.9945054916789
95.9236170880504
95.9017599533847
95.9242707979502
95.943495334895
95.9589908008659
95.9142717556268
95.8992537788556
95.8789288703059
95.8440614089043
95.8292018928574
95.8475900751118
95.8621016170125
95.8490732144694
95.8233804549769
95.8508321337066
95.8374038909037
95.7921170063693
95.7446889265514
95.7869883071425
95.8599452443519
95.8005199714206
95.7147175954262
95.7289263173939
95.7182177092493
95.6588897879596
95.6702975821517
95.6901535594312
95.6827486288201
95.6600886187038
95.7347678125466
95.7530191108726
95.6811640794205
95.6510249233222
95.53932458111
95.4251879159051
95.3414985065381
95.2344869987466
95.139452713013
95.0170042559335
94.7640388993597
94.5856939524236
94.4433959619292
94.2604515667301
93.970997985737
93.7047040605436
93.4208716163053
93.2602235489076
93.2278143444382
92.974697874663
92.7767435914487
92.9527186939743
92.8361897008013
92.7144667030883
92.589563146327
92.4830601097192
92.4634570582787
92.4788075711162
92.3632611358711
92.4315186580217
92.5972026385092
92.6612740223806
92.566435917985
92.4357043885948
92.2738601219776
92.1688534569284
92.1791235231275
91.9676351642457
91.727227484194
91.9249875941301
91.65522799058
91.4926531240209
91.2565915175634
90.8173583123419
90.5185819272559
90.2691344124222
89.8385396077156
89.7612718920811
89.7708709536017
89.3745028844566
88.9904756768631
88.4980884404521
88.3377165686906
88.1503393446171
87.7005350798331
87.5342915789582
87.3690899220681
86.8644640522676
86.416673766715
86.2986105778411
86.0058510039516
85.6098688883418
85.1290424340604
84.6581230562391
85.2938320649561
85.3423240303763
84.5542340191624
84.3706507318406
84.5713475719664
84.2652176653987
83.8832843259956
83.5946869372856
83.2259005081961
83.2761310954753
83.717908240326
83.4650612609987
83.0764608945435
82.9946976770874
83.0509093703969
82.8882114785914
83.0815281584499
83.2265762273015
82.928453748098
82.9064223953303
83.4260368106404
83.3862876051625
83.1573585643518
83.0854594760044
83.0657091141274
83.0151461014333
82.9298286458356
82.9296824215102
82.9365007240851
82.9508826856236
82.9432155794241
83.0647026421272
83.2224950401839
83.3297301260123
83.4777168569866
83.6583285245958
83.8093268147349
83.9739460384564
84.1125853954244
84.2534429316507
84.1760926854969
84.4908922024511
85.1659442034349
85.0704111933994
84.880494479673
85.2681440784261
85.4161082015744
85.391722777573
85.4474198596638
85.0797708849007
84.9793331561677
86.1342436970014
86.1684126131371
86.0267793539341
85.913883031802
85.8027234904473
85.8784183052533
85.7244235549401
85.7136831760005
85.7658657884908
85.8430509460067
86.4859993628325
86.5900976362633
86.1192942142659
86.1507159740733
86.4112383565178
86.2365325094284
86.0688931431657
86.114308774353
86.0549883624467
85.859182210199
86.0440833179362
85.8163672854698
85.6503283130916
85.6215321745879
85.4205850448713
85.3459094095647
85.1388508045252
85.1978182947702
86.1957847880547
86.2677060786212
85.9824335297307
85.894918178619
85.9381741866993
86.238462317337
86.4862941671974
86.2967302298571
86.2233317680699
86.4877437833163
86.6622110980359
86.6352904649205
86.4844406649206
86.411620130163
86.3098034942887
86.1063792260127
85.921894757053
85.6633920985329
85.653598255237
85.4201142569
84.8377267887441
84.3420859208632
84.2130876737275
84.0664284186366
83.6144029120569
83.2299653404117
83.442427193579
83.7979067977461
83.4187887541598
83.1390976250493
82.8871142054994
82.8402286459332
82.8710653495879
82.7375681415425
82.5890601429126
82.4014679917663
82.0224669417859
82.0603787780711
82.1207181305191
81.6539190998752
81.2912894267416
81.1871241838833
80.9324318985599
80.528393420951
80.3998771669232
80.1052544387038
79.8409929050792
80.0603551432922
79.9564902638051
79.729471612211
79.5703797779367
79.5166351326922
79.4761280795708
79.3770577006887
79.4629950046132
79.6186097132329
79.4780834778015
79.5245231081534
79.7119574947406
79.7634677715219
80.0470681351007
80.0849980478799
79.8872861069836
79.8101261604417
80.0014193531674
80.005294259263
79.9010164176029
79.8663599945057
79.851749874912
79.8050216512974
79.8186052631381
80.0923892878814
80.1762033534568
80.1954309069213
80.3671384754352
80.4320002745157
80.4751652881408
80.8022966185027
81.0997991465224
81.2287111170611
81.3399297396145
81.5214040794338
81.7183481371536
81.8698502254369
82.0291368707743
82.1725514933538
82.3112462156977
82.4405305913245
82.4896774093105
82.6318479500821
82.8705774897774
82.9935963766995
83.0470960056074
83.1059843743134
83.1602859292013
83.2097144629015
83.2532063597898
83.2746848508841
83.2928293949587
83.3173987138962
83.3841005635841
83.4651837435751
83.5122346007397
83.5421025318872
83.5921796977565
83.6332245546227
83.6778688572032
83.73446458186
83.7907127179845
83.8595200147933
83.9165167483301
83.9752048428761
84.0232936049413
84.077539119424
84.119577041162
84.1260395763242
84.132813136416
84.1503634835227
84.1360303308402
84.1003904969467
84.0465573483515
83.9766443113462
83.9067263013749
83.8261156038107
83.7305097457998
83.6447415669659
83.5731866823305
83.4686682056027
83.3663894019614
83.2389287479388
83.0989387599146
82.9575913925026
82.8292178822018
82.694192798937
82.5849877232895
82.5004732235337
82.4187392832689
82.3525324864184
82.2932567408412
82.27632278837
82.2933237093919
82.3191714556386
82.3483506872944
82.4063261866331
82.4782097504997
82.5693928507395
82.6702809099639
82.766166229195
82.86304125943
82.9576373864676
83.0581915942121
83.1543342347298
83.2332976096637
83.3191106308021
83.4210590360346
83.5060679413363
83.5965079027496
83.7008161010388
83.8030094002935
83.8866459916521
83.9691333161452
84.0677274561902
84.1820236241977
84.3150242952796
84.4497157415119
84.6235995373817
84.7510059221796
84.8159027756446
84.8725140557904
84.8952746099869
84.8365874723872
84.7271927746846
84.5705129453751
84.3366333591633
84.0811403748593
83.8131253066821
83.518383846561
83.2036940376363
82.8663164963345
82.4990458089809
82.0981239446924
81.6608135389714
81.2035319069524
80.7198888125716
80.1999631196942
79.6763136485387
79.1760695905175
78.712840600634
78.3107307175605
77.9481543982852
77.6516576701166
77.4078813503808
77.239150743978
77.1058258947693
76.9843250135681
76.8803635293488
76.7495556989976
76.5475487186734
76.3009667148702
76.0131811888914
75.6589744934497
75.2921847388419
74.9096938403559
74.4840922912806
74.0838497327323
73.7214767193342
73.4057700589413
73.0839712538672
72.7424409099289
72.4030146622816
72.0889054042383
71.7930340204954
71.4542089243567
71.087217170057
70.7357206745794
70.3824779488458
70.0078523018302
69.596986584675
69.1836714181824
68.7923673947274
68.3693289691754
67.912132828568
67.4679216785745
66.9895959895221
66.4595338842782
65.8794620605442
65.2676280486134
64.6396179783813
64.0157921705164
63.4080574304897
62.8564266020594
62.3721779472109
61.9683314184941
61.6377490741579
61.3643288995765
61.0927622336144
60.8403617715663
60.6045969305471
60.3356127844523
60.0329683502851
59.7036562447319
59.3176342265284
58.8790700428255
58.4082154275109
57.919730813146
57.3780692831448
56.8372702930384
56.3147535400547
55.8208108976171
55.3569907419055
54.9796155614525
54.6908397418794
54.4225469911334
54.1812005921287
54.0044327512657
53.8813976626612
53.7586779900543
53.650686156309
53.6015459881564
53.5644990687066
53.5822019449589
53.6666050857619
53.7844889721163
53.9656318412153
54.2746060206062
54.6176284893305
54.9537513279197
55.3090115255225
55.6986706547767
56.1063217986807
56.5004406868033
56.8738137871659
57.2360307072282
57.563198889936
57.9018214391577
58.2444812232219
58.5951535757703
58.9748853941024
59.3843373285435
59.8107686841729
60.2190312060486
60.5642981686346
60.9262275941276
61.308848525205
61.7024616805351
62.1292218178767
62.5820793942405
63.0100854171904
63.4182790705017
63.8553212463268
64.3002175351356
64.7299823540543
65.1457879990399
65.565137645806
66.0042878890022
66.4415357600677
66.8842163795409
67.3208445109028
67.7656921294793
68.1918263465168
68.6482415834595
69.0928676642043
69.5527185993432
70.0157010718401
70.4490211023087
70.8574788127582
71.2269010240773
71.6093708753524
71.9680686527635
72.2595576615838
72.5290765387498
72.7914744886274
73.0581718466523
73.2995323456727
73.5383763831753
73.7764486184928
74.0141403346916
74.24001951694
74.4331175426621
74.5646188125156
74.6651433130659
74.7724242654678
74.8404535277339
74.8302404146721
74.8475317396819
74.8659896767545
74.9348567867281
75.0279487684795
75.1510460494491
75.3399319428489
75.5764828611347
75.8182277120744
76.0942411940914
76.3637027380048
76.5939172893936
76.7381944495943
76.8324373702554
76.9068036467823
76.9722143407572
77.0138229581663
77.0329318225019
77.0427625799974
77.0493449541559
77.0589183066132
77.0875199512051
77.1303164317838
77.2278977722008
77.3186248640754
77.4128550204792
77.5791431900446
77.7861709343036
77.9417107388214
78.0448492958827
78.1654001097268
78.2542294972013
78.2648428850644
78.2998524868973
78.3063619501572
78.3120192077561
78.3324391789056
78.3491026247579
78.3778154264064
78.4293197286474
78.451763014676
78.4357125108212
78.3995486682968
78.3187612194209
78.2170312904446
78.1230869945113
78.0165041378562
77.9269892635644
77.8033334230515
77.6269918101257
77.5004373645961
77.4311437188428
77.4217615030838
77.4312474384112
77.404932191583
77.4071208736924
77.4221646708037
77.4332201754755
77.3990905477554
77.3447518424231
77.340391327394
77.3411612959418
77.2853747254484
77.2582568728664
77.2761053730935
77.2410155807197
77.163309049207
77.0992975758044
77.0310637562368
76.968412340462
76.9268222100212
76.8676548893781
76.7912229320584
76.7626920071608
76.6990606241064
76.6219012865711
76.566957791381
76.5280585057932
76.4836763545602
76.4441667378047
76.4244228470042
76.4326158968225
76.40601119379
76.3188441968795
76.2361960227347
76.2167651192137
76.1694205792234
76.0557663656874
75.9634506750119
75.8304285023672
75.6429432055237
75.5575149516949
75.4280357489695
75.2166592123578
75.0463214976558
74.8962869551379
74.7299819642719
74.533574652001
74.317644374163
74.1259260401713
73.9159096261701
73.7506789686852
73.6046847245279
73.4835548002414
73.3341316609956
73.2038856115211
73.0905690682546
72.9497003631667
72.7908435864375
72.6855696491764
72.6094780037523
72.5523801796811
72.4595123235855
72.3752823527861
72.2476288505866
72.12699560904
72.0464196174454
71.9512259261161
71.8429513087394
71.7914363999648
71.7285829474914
71.5605401940193
71.3598041690172
71.1995293497379
71.0212796996382
70.7701612792086
70.534883325143
70.806211647968
70.5380761262115
70.1695466447987
70.0234017812184
69.9411118012558
69.805753830458
69.6645070485434
69.5030415634758
69.3815574211213
69.2596261490151
