1798
3999.43349933624
650.420452594757
1
128
4
94.5381900378825
94.559401684789
94.6168826655803
94.694562079644
94.7392138541243
94.7419049173272
94.7036657507459
94.6776864707179
94.6219193470476
94.6244447215791
94.7417464372305
94.7687369599374
94.7073394849271
94.690283550272
94.6756716710377
94.7092592775345
94.720754886207
94.7116273892218
94.6826644445821
94.6377204595297
94.5909572887975
94.6484540367658
94.71419188035
94.7357941073778
94.7166622374647
94.6831170307549
94.6543910952321
94.6455127299183
94.6525652772452
94.7054992412218
94.7134834931239
94.7423362085966
94.821244870516
94.7921281519004
94.6244895224705
94.5474754410244
94.6083771894668
94.7032149116372
94.66325199278
94.7559931837718
94.7404605428643
94.669069606398
94.7315608815704
94.8769194690728
94.9304788208816
94.9901226020532
94.9392981459668
94.7873453351491
94.5754448663343
94.3754994154608
94.358004956015
94.4873714217875
94.6260943469559
94.928548931622
95.1961573556951
95.1695099458469
94.9449828817141
94.8873954857543
94.863145969443
94.6807507507171
94.7316815695768
94.9577189332796
95.0049137493647
95.09467377211
95.0547720715885
94.8528434764366
94.7143974115027
94.7028752651444
94.6533231114778
94.8857318142597
95.0459937584533
94.9595782300262
94.9690589372438
95.1377754849247
95.1107502652002
94.7914469418292
94.3164498639297
94.2998060293904
94.9247802430288
95.4541635735908
95.5096993406799
95.2618228419126
94.947233406787
94.7035178576234
94.5860825199298
94.6781653899352
94.8494559621857
95.1190483013763
95.2769434774261
95.2341834056475
95.2204004626663
95.1303367055042
95.015671736858
94.8799044307598
94.5829980631334
94.6332535194927
94.8962695980933
95.1533998899164
95.4364292218856
95.3394991175219
95.113371953582
94.9116790130415
94.7843000207061
94.8363543943191
94.7624393409179
94.8861745566211
95.2203411647076
95.2556800624338
95.2075320448086
95.326582704197
95.3246976780549
95.2782554870952
95.1739117343493
95.0877769126686
95.0697329988473
95.0534133797474
94.9470209538884
94.9522453667086
95.126293237576
95.1068157462296
95.0718770121206
95.0020197917167
94.9138380805383
95.1402890690627
95.261134972126
95.3449406901653
95.3418048205567
95.2930547677254
95.2134197749721
95.178646829095
95.0927846510798
94.8897338313955
94.8242546906183
95.0158025646717
95.1356043579849
95.1079016008822
95.2664708038634
95.5567603884272
95.5756421226829
95.3715731943256
94.9646602282568
94.8905726902059
95.2695514156893
95.7108254429349
95.6287421274671
95.4763013319384
95.3740764632866
95.2952206840715
95.3978934678192
95.5020181038624
95.3821991500195
95.1788483155373
95.0160239760183
95.0315016551531
95.2389755599826
95.6169102494708
95.7460364964475
95.5829129685405
95.2043811293241
95.1672968008333
95.4420348156278
95.5952278054766
95.4589775726661
95.2053104569272
95.05060144719
95.0532525476107
95.3147348864868
95.7137193310921
95.814081963016
95.6272502720974
95.3167714702829
94.9852878261265
94.8611145088219
95.1965292770228
95.5928013760461
95.6040925903139
95.6349335518624
95.7262388964523
95.6810793893973
95.6599140502784
95.450440642121
95.2788370096787
95.1554164578762
95.0400094504804
95.1821212887332
95.1413814634185
94.9588224492589
95.0873557793511
95.3939106143732
95.7388858599335
95.70411242623
95.492208941356
95.3360877177324
95.1207786030833
94.9415823001608
94.9177656891714
94.9312917308917
94.7927933413809
94.8039064442595
95.2148115824331
95.4492098918489
95.2784653175696
94.8713008008201
94.7168817501594
94.8420186635651
94.9584193835026
94.8010494678907
94.6573581260051
94.5416074711072
94.6703901271751
94.8533386586216
94.7107394239233
94.5456736499369
94.5114422118053
94.4339235972978
94.3124478459213
94.2884951603524
94.3570082359425
94.2434089420944
94.1004078791502
94.0621315445333
94.1515036633056
94.2255183696672
94.2398147798971
94.1819927994087
94.0459253218607
93.8486751913024
93.8315577969922
93.6536259350243
93.4231025442322
93.2886017964703
93.2508829234341
93.3276101235588
93.5723441016309
93.6150972220118
93.5256989690365
93.4290456598986
93.2987800087853
93.1517088767603
92.9938480450442
92.8368308047935
92.6655345349531
92.6024014246677
92.6617444118988
92.7082230054897
92.7043864309458
92.490686372632
92.4188124339671
92.4246757357556
92.3445572166805
92.2401562796561
92.1694667784179
92.0476276707414
91.9258059070334
91.9200956823052
91.9286885699998
91.8463242316243
91.7511971201968
91.6045988475401
91.4895280675782
91.342021018255
91.3039570924355
91.3282269370717
91.2861385504918
91.0956730471513
91.0593370945765
91.0890712876015
91.0905180355138
91.0397374818515
90.8474249403625
90.7529020479885
90.7582890617266
90.6723801446438
90.495715822669
90.3402395206629
90.2846431170199
90.2000150455164
90.1734781273768
90.0912922006655
90.0850405311255
90.0001175524835
89.8684876901278
89.8925684868427
89.8262611016686
89.6596691976274
89.585367385809
89.5211242737939
89.4857661523299
89.4298169777126
89.4279518608654
89.327603514447
89.1865432777561
89.1576424708541
89.1254280331786
89.0291920376638
88.9344011025525
88.8386466115571
88.7769351925806
88.779394520105
88.7156795944581
88.6091796570825
88.6516271198208
88.5705054899929
88.5075925866541
88.4320707227352
88.3285262779399
88.3569658148867
88.2549124021649
88.0767987230865
88.0985729328447
88.0838197549286
88.0166981067002
87.9939030172551
87.9099423253886
87.7278084490014
87.6370768221404
87.7567912836993
87.8037549607166
87.5918476619515
87.4953546300122
87.3959204310699
87.3012626660625
87.3393282595073
87.3133120673558
87.206723883337
87.2574426406312
87.2247998925266
87.2040483291187
87.1275714255993
87.0658919363592
87.0513293915771
87.0069061851824
86.9360601279607
86.9396276406376
86.8750983121061
86.7934433854362
86.6558172215476
86.6568597647774
86.6711145022471
86.6778429950653
86.6771030431402
86.6105993441844
86.5281660065936
86.4456803622903
86.3106151237836
86.3736298490478
86.4673433111094
86.4240567517263
86.3091829019345
86.3433548151708
86.3415070041319
86.2477422166316
86.1591993283584
86.1880950191333
86.2470328356717
86.1930515261339
86.1247941233183
86.1011394019956
86.0435299713774
86.0902723991855
86.0678550237167
86.0333761455253
85.9819891654747
85.9405598656542
85.9558745422013
85.9461230811086
85.9099524848207
85.9134490346967
85.8821514652069
85.8872380091722
85.8386974673599
85.7674688752675
85.8013435982052
85.8292585728908
85.8630044379012
85.8685131953668
85.7493113943309
85.6670191485952
85.6820493723226
85.7704634710341
85.7563762492507
85.7444503038847
85.7659465128215
85.733243370331
85.7138608986747
85.7395600196136
85.7060304279213
85.7778286743421
85.7647586852604
85.7092228111791
85.7516000188365
85.7457314713052
85.5930175506992
85.6269430829303
85.7814818945516
85.8754127337408
85.8197103172198
85.7308249639966
85.7688116474386
85.8797134998092
85.8563800618208
85.7921984650391
85.7647848489191
85.7541675405386
85.7425555019037
85.8801289973299
85.861290551673
85.7993723281574
85.8371183055464
85.8937810667525
85.9565397596482
85.9698138670549
85.9252283020493
86.0379121493104
86.0213872283875
86.0619124564955
86.0337280895742
86.0193531262244
86.045087886828
86.0464931663189
86.0937786837196
86.1888845034623
86.2249729411275
86.2644496982433
86.2238596465317
86.1906148414916
86.3187673800852
86.4459500367535
86.3769221193636
86.3345602761344
86.3620502462463
86.4681867520075
86.630576618401
86.7723650579278
86.64911646656
86.558785208399
86.5795943105537
86.657886277003
86.7413469709297
86.8217320895428
86.7560635165443
86.7730575846802
86.8608681394848
86.8899727509558
86.9241690118141
86.9945412198354
87.0588003278315
87.1720882422752
87.1606748691011
87.1590769196271
87.1915713057831
87.2258695026399
87.3496667554043
87.4725994187172
87.4905750226957
87.4409669552171
87.4525912996219
87.4736041961385
87.491214009694
87.5996804580019
87.724969279882
87.814016070807
87.7988015869255
87.8145466841134
87.8198937251943
87.9127391295403
87.994392608429
88.0147801814631
87.9696846226259
87.9711864854694
88.0431298914524
88.1714551821692
88.206291732986
88.2722289780423
88.4011057371328
88.421017801728
88.4395898286037
88.4753207626497
88.4409950312394
88.4726057360075
88.5562976018999
88.6103889191819
88.6251456967938
88.6982272939017
88.7187718141904
88.8159465722519
88.8650847052583
88.870478975298
88.9302081303369
88.9954847990922
88.9868043875842
88.9934431172336
89.0115648040526
89.0537912858469
89.125267608692
89.1790722407403
89.2242915820137
89.2675190778857
89.2440126807435
89.3129526605492
89.4387343477669
89.5025631300398
89.4682101023909
89.5212666597991
89.5065106123117
89.4718568072904
89.5847526768068
89.7044922205441
89.7475491807149
89.7965851536709
89.7791901099758
89.8610299798206
89.9215206099325
89.9253660444328
89.942177068787
90.0496236986729
90.1090943643069
90.1137230200954
90.1801974204435
90.2032229935005
90.1797508158692
90.1933935848455
90.2657941740239
90.360184230451
90.4277913670606
90.3755166240727
90.3122664314113
90.3990912576203
90.4765063119301
90.5281273880275
90.5916480839949
90.6421672691544
90.6474243294471
90.6348230264843
90.6096008930485
90.6173549537574
90.6461444495643
90.7058933651867
90.7399182911043
90.7443740733029
90.7018328181153
90.6970860392281
90.7153001670269
90.7401728126586
90.7510917119239
90.7489247046481
90.6548165846695
90.588741275032
90.6435447469462
90.707279095267
90.7080750073439
90.6094375564682
90.5527104570562
90.588435441678
90.5025567273332
90.3787376464175
90.3222065474777
90.289041499595
90.2493427850627
90.1692036705468
90.0827664459313
90.0492859270035
90.0347780034925
89.9920374192695
89.9119285918622
89.8179913266486
89.7497576310312
89.6218381355044
89.5114543775283
89.4631452965028
89.3554824597205
89.2679350725283
89.1925899319864
89.0652281175936
88.9212384176245
88.9046179875652
88.8484172929302
88.7001135614043
88.6254564939325
88.6077053284289
88.583258083996
88.6161720779784
88.7361916455341
88.7783032458314
88.7706938590373
88.8119322805321
88.8773777951705
88.933523553733
88.9560555668846
89.0280281135841
89.0819557722373
89.1322522707277
89.1578592172834
89.1540606679234
89.1370434088011
89.127264671727
89.1365192082119
89.1495943607018
89.1488477885573
89.2472782996354
89.3051539367543
89.2522623520925
89.2023273464369
89.2811403291539
89.3182835690051
89.3275648544109
89.36823021913
89.4543179371145
89.4684271217897
89.4490806699088
89.498545259171
89.6085138544821
89.6389013468754
89.6449996867389
89.6511131891248
89.6472788583501
89.6446184892822
89.6374057444689
89.6564638791899
89.7488044366432
89.8495521052699
89.9209819541244
90.0321583685102
90.178274638926
90.2675524493873
90.3152504973102
90.3705217495493
90.4785957102015
90.562804476126
90.6204877823548
90.6113405279388
90.625942565715
90.7093026796832
90.7745755532322
90.7732099390354
90.7987989298378
90.865494972767
90.9053876571785
90.9163850621403
90.9365856482634
90.9884691290499
91.039937232731
91.0585295685564
91.0814720865624
91.1250630004238
91.1709591691925
91.1762583440492
91.1970385938991
91.1964382679285
91.1913326938459
91.2399294182992
91.2724711607165
91.3015244386922
91.3405675827315
91.3576131131822
91.3707578097942
91.3651764666359
91.448459950645
91.4913573669971
91.4753649722013
91.4618863427944
91.4769326715857
91.529780129737
91.5625656581284
91.5131355896466
91.5181889965704
91.5717018736041
91.5837405663719
91.5951197455772
91.6124149505884
91.6323220982933
91.6506060339374
91.6613571702504
91.6653383720866
91.6480399941879
91.6624745302966
91.7000148032918
91.7118329994387
91.7037699017134
91.7496494742102
91.7633559069825
91.7890037027184
91.7837792526752
91.7814765728345
91.7892215210502
91.8205261115245
91.8598768700561
91.8647072778529
91.8720170453607
91.8835956182791
91.9084055244302
91.9084383431898
91.8792551628433
91.9026823316859
91.9234258725042
91.965468155864
92.0045729372094
92.0182923036268
91.9903952804784
91.9901527929284
92.0065721397364
91.9733466143177
91.9449970433381
91.9577581268167
91.9776702613023
92.0428238009625
92.0784951584463
92.0851390465843
92.0997189592256
92.1103649042226
92.1284470417756
92.1821066549095
92.1653850793344
92.1164888607591
92.1386524728257
92.1769829738012
92.1749620143837
92.1657423406444
92.1419337091273
92.1146119485453
92.1529081257504
92.1612951871513
92.1867654238446
92.2488105223184
92.1949031657599
92.2074179568295
92.268461323742
92.2722710786527
92.3126784500164
92.3699429991395
92.3759644204097
92.3869448430463
92.3982351537036
92.3772821763302
92.4021494205858
92.4921331203793
92.4989269297381
92.4498711077672
92.492432474641
92.565205330698
92.5746059764029
92.624725491295
92.6564022917692
92.6200980115712
92.5883048483556
92.6573577721582
92.720341582762
92.7120389279075
92.7817217169024
92.8893770508045
92.8275049588412
92.7551704461884
92.7829138260644
92.8194774361603
92.8924344925241
92.9871659401119
93.0442890035775
93.0303671625784
92.9749470627725
92.9809446864993
93.0395083671926
93.0804696747052
93.1386425063155
93.1352131503567
93.1033634291614
93.1585071778081
93.1620286429109
93.1904980977161
93.2011537453109
93.1551189334272
93.2159569757753
93.3063684687979
93.2178444494023
93.1893122005887
93.2462716149682
93.3025105814705
93.3075517423129
93.2401201564318
93.2291099887736
93.2349068986505
93.2324529385758
93.2581992219423
93.3693352314207
93.4563168682473
93.4069809863371
93.3491516972623
93.3859045227761
93.4238563628196
93.4098883135436
93.4902958672226
93.4802285031922
93.4244415968475
93.4299144839823
93.4079789401151
93.4724808753392
93.5841983541918
93.5162398698195
93.4357470168203
93.4808345880721
93.5156763390817
93.4903009538185
93.5367815429486
93.5527659358956
93.5320111573856
93.5679278782841
93.5990489032564
93.547247179658
93.5456912176867
93.5785856640588
93.577491950526
93.5557553389681
93.5639102766396
93.6243827315758
93.6575729220383
93.6842308016538
93.7158388848709
93.7073331674094
93.6360627658652
93.6394723453025
93.7440370310908
93.7377360833869
93.6393556362701
93.7106817164339
93.7240217918422
93.6597282005071
93.6021612038164
93.6734332888485
93.7520250815259
93.7357089210713
93.6533306469679
93.6546150746407
93.7258736574185
93.7449958197601
93.6675033681309
93.7163695031207
93.8033361667292
93.7998746396207
93.8077411392929
93.8539205264573
93.9009431812624
93.881002961992
93.886107392315
93.9399330848289
93.8917719839701
93.8610267628711
93.8617324040517
93.884594947853
93.892849999405
93.89681913708
93.9170098165713
93.8858235563088
93.8817167669399
93.9329069138887
93.9410885721884
93.9233805674716
93.9510746465105
93.9881173502137
93.9550042715062
93.959696178869
93.9855274822525
93.9540146715845
93.9712448578158
93.9514653000537
93.9268047489754
93.9407596007865
93.9932476581082
94.0166505755887
93.9992144793564
94.0169826399422
93.9630611774584
93.8878660509877
93.9396775441435
93.94320439402
93.9665600895853
94.1062943861427
94.1202837491228
94.1056666395483
94.1989475273492
94.3004957946387
94.4103070393539
94.4341645494624
94.4517731221728
94.5782928751274
94.6185392832597
94.5327198796355
94.3118123620508
94.0270182578976
93.8530058645915
93.8849992084085
93.9682636329537
94.0628191747692
94.1672101042771
94.1244446765988
93.9889888882348
94.0122181674097
94.143403652951
94.1995758620585
94.1945020740145
94.0431293269748
93.8740287174572
93.9716153995052
94.1045697617279
94.0988333117218
94.0342344283849
94.0653349374781
94.1442173286808
94.1532503124386
94.1200990264519
94.1992837115019
94.2363711759129
94.2050251491589
94.1970953060858
94.1656311966676
94.1930343051363
94.2116255026509
94.1851280983615
94.2022746850599
94.2566208424175
94.2731952687031
94.2308446471964
94.2972329813466
94.2860790628291
94.3482030899408
94.507948356938
94.6156224698551
94.7006812466512
94.8357645391636
94.9267157138803
94.8246896219072
94.815842166756
95.0272619622678
95.0620075887139
94.9869909325072
95.0174456763676
94.9840918576646
95.0303787167465
95.1268879245727
95.1692408201923
95.220033582555
95.2294668649658
95.3199803285666
95.2294088054501
95.1772235653214
95.2955380901773
95.5015111889356
95.6114910151356
95.5961578537788
95.6725814619464
95.8232692962268
95.7380681597841
95.6816753426884
95.672205822704
95.8686707766683
95.9432154547942
95.6867429875227
95.621835934867
95.703027604212
96.003173855896
96.3598329777236
96.4460131657542
96.258144297281
96.1231400156513
96.3924978265299
96.2821526891346
96.1459826164954
96.2883464999185
96.5349962001246
96.742074963462
96.6789127286377
96.4097107159727
96.4331122923946
96.3522890567884
96.4679871114021
96.5747943946074
96.5743978649601
97.0298162973576
97.3362859923637
97.1650292453826
96.8530433828958
97.0291740255118
97.1982371448506
96.9059593315836
97.0412049165027
97.4168314933652
97.3916395402058
97.3271368480812
97.7265342755152
98.1473292849906
98.7647231243944
98.7947642877275
98.1949179311741
97.7192972745765
97.5983632041938
97.4225035344112
97.1541925630265
96.9749772158182
96.8861688859112
96.8682045752363
96.9083450099293
96.7558424670382
96.5861734716622
96.3558483055084
96.1857192437993
96.0874529326717
96.1154355124257
95.9912540748115
95.916240256914
95.9095715383549
95.9158180523751
95.8799628677862
95.6698141955459
95.4788766762958
95.6075686001714
95.655770020619
95.6928430086817
95.7777364246074
95.6578423194925
95.561716347664
95.5920330733369
95.7001987152167
95.8226959349215
95.818738776395
95.8416684192543
95.8375875419088
95.8248879455802
95.9112405195695
96.0069160510396
95.9703987275786
95.9144093702493
95.9290654987019
96.0889513987585
96.0147966300335
95.7934443457029
95.8905835659538
96.3136672742171
96.506790974936
96.4104855450009
96.5039026786842
96.6204946994666
96.4458974684351
96.4246246588767
96.5714585043781
96.7268525515119
96.6163035635549
96.5991328760332
96.6496129585791
96.8915344089555
97.1850485897207
97.3439121979711
97.1575254332153
97.2598827276016
97.656608832588
98.0046085442071
97.8435148986406
97.6855633656633
97.7812915658906
97.9727731507588
98.0974395787526
98.3656964790707
98.5151830902859
98.4905067820827
98.309850207052
98.244868116398
98.3860120630981
98.2561868241193
98.1523076570262
98.2494218925502
97.7717746322957
97.5771598079404
97.9204361488455
98.1385377859336
97.7237596765004
97.1849256993751
97.2356699141716
97.1751285369318
97.1823167303723
97.4766212460936
97.4520081155211
97.759072582924
97.8343967795575
97.5447719385224
97.5505217915919
97.7342736019326
97.6969576124767
97.7845480891341
98.2359839280962
98.2033056935063
97.6820333879925
97.6469105629223
97.8720529327644
97.9331049493041
97.8216124037216
97.7377804781994
97.5838378836373
97.4431612849304
97.3065880328281
97.0981526935761
96.8861172550193
96.9507485029102
96.7790128736504
96.5259033438531
96.6136620141308
96.6659962876815
96.6277045515981
96.7334596578465
96.5354753170011
96.4293548256408
96.3857464540098
96.2455450394608
96.2084022493103
96.3829048583602
96.3118466686002
96.1683007150897
96.0172557980795
95.9601262980696
96.0504245208755
96.1532684549824
96.1265165257238
96.040119618008
95.9096542852917
95.8756759405331
95.9202122101737
95.8104908330532
95.8531168103352
95.9347886501274
95.7710213440304
95.7410771841499
95.7798652980978
95.7379091924879
95.6879011876593
95.7227493829474
95.6629303340858
95.7408635402377
95.8632442994305
95.7837749712026
95.7020664966225
95.636265342539
95.6006369604136
95.7021568862078
95.7264151290487
95.6081748799812
95.5403457482349
95.5162142089264
95.5293692458991
95.5933440752568
95.5589190176106
95.6011804874108
95.6468104555667
95.7093083288109
95.6579919304423
95.6255452201459
95.6402158334972
95.6898435912927
95.5902037594509
95.5157386873138
95.4268973387521
95.5194540999239
95.7330077686675
95.7038670188599
95.6625795487211
95.670287290578
95.6231233565085
95.5541284719477
95.4339625473255
95.5123107965324
95.6187263709823
95.6022285960714
95.6623109599614
95.6597532064254
95.6342263254979
95.6027422263436
95.5973338287632
95.6139589946838
95.5530815364712
95.5595220872129
95.6055308586685
95.6356063025267
95.5990536147259
95.521865424544
95.504550149641
95.6123507714755
95.5873218236697
95.5064886805637
95.4269130718204
95.48055277585
95.7007151126528
95.7376079605752
95.6192951164212
95.5726333298082
95.5899978469931
95.5831946545988
95.6314552397013
95.5648406971899
95.4804264969591
95.3840695123161
95.5981783986983
95.8316126665658
95.7936006917388
95.7240157216789
95.5039007262186
95.3669680841683
95.4508710646316
95.419570411118
95.3262263106277
95.2522536961407
94.9890930318393
94.865938995349
94.8779528454401
94.8509104893941
94.6664825196289
94.4445434982551
94.2528944789494
94.0437075251033
94.0014656199242
93.716895450911
93.5437202457276
93.9505328424341
93.9767783157892
93.9198203399307
93.7564023841799
93.5988645759108
93.4875691606392
93.3886562949195
93.0962079545188
93.1949551516897
93.7137015060418
93.9457314014899
93.8332927176004
93.626310031786
93.4392984124465
93.2258538017051
93.2315942100696
93.1222938654741
92.8354189079589
93.2705961906873
93.2201809389728
93.3147817190949
93.1828858421398
92.6991324347195
92.2623841151797
91.9526276280019
91.5815651211804
91.6725050290844
92.1675183941321
91.9090337469145
91.5421435991744
91.0045292863218
90.8230114064073
90.7863638549611
90.5226037271265
90.4969028414833
90.5197741810397
90.1855191411796
89.8095878527994
89.7430773515118
89.5932912436177
89.2319815938875
88.7261902330695
88.0968988933334
88.7294223860079
89.3894559093387
88.838029975087
88.5373924832091
88.7257880184685
88.5984353873116
88.2146713520725
87.8070071133442
87.3368375430229
87.3754189637029
88.0708867748802
88.0427704374004
87.6221113389706
87.268974524356
87.2395825101306
87.1617841071023
87.2906813925777
87.4253141328437
87.1413291237711
86.9575532454849
87.4472897215959
87.5571748003234
87.2998698298125
87.0987695127829
87.0295077161829
87.0574124108088
87.0186424041168
86.9813153181228
86.9778804724653
86.9771615191561
86.9289596281756
87.0028220808125
87.1258136324613
87.2355195980625
87.322836748003
87.4311703732936
87.5349095969731
87.6831873667568
87.7535379102516
87.7867820102939
87.635351664467
87.860355555527
88.5228936936077
88.533648373678
88.2875672561886
88.5803248044998
88.7965184173633
88.6967002062676
88.5833561357738
88.0566420702844
87.7608265723615
89.2752747802938
89.6182425385436
89.4984791965079
89.2601604125987
89.0047103713222
89.014722475986
88.7269936882481
88.5309301395688
88.5175046257309
88.664239458662
89.4850993940091
89.7711892488552
89.2436806713483
89.0695749799649
89.2858759774014
89.156676782461
88.8986768094045
88.8162226762677
88.8199646195483
88.6705558308873
88.9841033114394
88.8675278809395
88.6992267272066
88.6412165108653
88.3163557247713
88.0653875149068
87.7186612728514
87.7137240383704
89.0001243516533
89.314733131383
88.9240060355363
88.5886453332757
88.508155319551
88.8262171518799
89.1367303171753
88.9309512695666
88.7740567083605
89.0613847738375
89.361809569534
89.4564262655243
89.3059354999712
89.1963259171282
89.0811025990685
88.8375110285092
88.6864170978917
88.560852194373
88.7849893717348
88.7707630155684
88.2838154052402
87.7852913499955
87.6119452010792
87.5290432033265
87.0797801109605
86.5650725261299
86.6815466849435
87.4245718615995
87.2380247766625
86.9023186347424
86.5405984101211
86.4617163394955
86.5530078996469
86.4440589645079
86.2300826980754
86.0219798911659
85.6723727062302
85.7011714396536
85.977930035152
85.6962828079131
85.329317552691
85.1555616952921
85.0100864140585
84.6601127729921
84.4560640822553
84.1981280773901
83.9507936688394
84.2699417692194
84.3543352445986
84.1365279604418
83.8575433418227
83.7306218661932
83.72102770864
83.6465667368791
83.6540814450803
83.7946165126123
83.6507505132509
83.5910767935878
83.7679073640881
83.8436306816431
84.1057806646364
84.1601326952987
83.9717736287972
83.8223753211306
84.0200625100138
84.1191488738743
84.0504066301641
83.9695786576636
83.9061442731293
83.8558952405095
83.8152054022959
84.0651902192487
84.2360619556405
84.2260905929828
84.2617457437935
84.2743977142334
84.2611341151391
84.5306815426767
84.8683379286533
84.9914720787841
85.0386888949996
85.1269052351987
85.2461298257427
85.376485089949
85.5090877984685
85.6341550483868
85.7378244255246
85.7967283967717
85.789955032497
85.9093819321393
86.135903942753
86.289250841469
86.3742278481428
86.3678092884358
86.3714123661124
86.4317312302829
86.4801310327977
86.5031147910172
86.5364187655398
86.5463697156851
86.5802618061533
86.6588038046583
86.6929985302871
86.7124434995472
86.7804754433226
86.8283522342326
86.83458545881
86.8608586161336
86.9177614303658
86.9620154481203
86.9812059480178
87.0092178447565
87.052935310779
87.0956243421748
87.12322901352
87.1462148880367
87.1563306999623
87.1715439205194
87.1817627533558
87.159448422605
87.1374827681025
87.116149974214
87.0719168444583
87.0122012151193
86.9516871006126
86.8815880124644
86.8195529254111
86.744722757193
86.6475730713331
86.5548721476972
86.4485702074355
86.3533505120145
86.2976572173014
86.2199696118865
86.1123774324816
86.0195245570913
85.9417940617534
85.8863914228892
85.8437273266873
85.8479258884829
85.8524655345576
85.8507035459918
85.8614720894001
85.87945154846
85.9146795509686
85.991639824339
86.0589098120559
86.122950252532
86.1955513151761
86.2779717443087
86.3604703233627
86.4480717062145
86.5329021835609
86.6065835208773
86.6941075779817
86.7620222606457
86.8299430687972
86.9201618416437
87.0008649654885
87.0766641757203
87.1558216405126
87.2289204423201
87.313448495536
87.4484241836303
87.5777614291303
87.6647161695999
87.7434953831015
87.8308237461804
87.8950490859263
87.9184219545607
87.9063381680183
87.837266991475
87.7089659537996
87.5503511934707
87.387730776698
87.1796228871523
86.9300945683686
86.6804726730898
86.4167116867308
86.1322771621573
85.8114029913149
85.4752773127251
85.1137412211174
84.7408308330999
84.3210415287335
83.8832382687251
83.4767209442541
83.1024298386828
82.7644954869458
82.4761657688332
82.2187731972001
81.9929015999074
81.8250933837354
81.7015546031914
81.5738404555908
81.4389817690378
81.2968424122176
81.1385993859997
80.9546705962813
80.742460988732
80.4815931488764
80.1650742352743
79.8078149556127
79.478115705611
79.1632247243914
78.8508035281185
78.5879562921744
78.3212373589372
78.020106594226
77.734901972322
77.4525843135097
77.1498899871826
76.8654850189914
76.5710115728332
76.2446258882523
75.9140211908716
75.5685810102544
75.221270038672
74.871239802254
74.5072664266221
74.1438593835838
73.7245692509815
73.266674308434
72.8056231505777
72.3405881432432
71.8456476316259
71.3217621117201
70.7583023779706
70.2116446944578
69.6864520913868
69.2030865955974
68.7819604431639
68.3965018284754
68.0437338041529
67.7913199711141
67.5564836916922
67.2981616412601
67.0539992552104
66.7794238926453
66.4531078579032
66.1280644010488
65.7868107911976
65.4040787032146
64.9888073569733
64.5493850252479
64.0823870828758
63.644572948142
63.1921805376113
62.7449332532992
62.3498411303766
62.0147436493074
61.7085112739483
61.461998993018
61.2375238383988
61.058338768201
60.9198987363439
60.8063220361151
60.7184826279512
60.6907056647872
60.681865010038
60.6713956817557
60.7266770998698
60.8485452540014
61.0128717319832
61.237887711398
61.5048780576068
61.8225499504075
62.1378331194592
62.4395291809694
62.7746765549058
63.148464548365
63.4809793141504
63.7902943037134
64.1158899616181
64.4224673897365
64.6996276563278
65.0105703003131
65.3703540762567
65.7462384026285
66.0834611597258
66.4511745860902
66.8175019233948
67.1770016268775
67.5419671754979
67.930892011635
68.3044024526821
68.702146817584
69.0843362182217
69.4529361558633
69.8287885061104
70.2252905515501
70.5839797629517
70.9559650843654
71.3502059718314
71.7312523490031
72.0811414138357
72.4403506457783
72.810708570536
73.1907376587934
73.5680676155705
73.9513913048847
74.3239418131288
74.7239143935593
75.0863757835392
75.4397463550172
75.7916807505048
76.1299235587266
76.4275848150288
76.7086498359371
76.9817975682936
77.2397065535523
77.4510544725465
77.6362882803278
77.8431764774209
78.0614638333805
78.2571878999532
78.4483020247899
78.6480900051519
78.8356459550408
78.9892297465062
79.1034411623702
79.2216707370015
79.3218856241316
79.3617320148057
79.3654631028873
79.4073691164203
79.4679194376153
79.5334268403765
79.6456817518933
79.7945995023257
79.9793568845369
80.1538722044153
80.3785403864311
80.5968344550086
80.7717785466561
80.8950535979743
81.0260712273971
81.1351498458234
81.1824129232687
81.1804044346315
81.2223015419864
81.2717227247106
81.2411511826611
81.23343426661
81.2698927838776
81.3305511114613
81.4153243550724
81.4919748762961
81.5854291845097
81.7294026989739
81.8719281761665
82.0132720220223
82.1426042727159
82.288690617797
82.406061750175
82.4491288173311
82.4748653436799
82.5110999325751
82.5854345463782
82.6225623280108
82.607551580416
82.6283487060083
82.6930324910062
82.7487261437352
82.7700018084779
82.7185304194686
82.7075113168909
82.6931286658741
82.6193126265073
82.5537296070501
82.4960012382286
82.3766997030125
82.2816072978798
82.2675993256183
82.2580807848628
82.2256353350271
82.2203234607822
82.2348167441758
82.287566514051
82.3046119028063
82.2979013875334
82.3319442479285
82.3718762449108
82.3780938755576
82.409599875459
82.4052458191302
82.4181118923368
82.4378475738494
82.4127692329556
82.3991971812025
82.4065399282482
82.3452143775967
82.3053317235367
82.2880995001202
82.2513253672481
82.2360738771251
82.2247975116633
82.1954727014785
82.2274032094495
82.1855188389755
82.1098576768965
82.1119557094614
82.1178417845249
82.1321021153693
82.1274514748184
82.1303596106038
82.1835464650904
82.1513315474538
82.0829122461302
82.0093861808682
81.9844481354751
81.9381315821037
81.8398733163749
81.6884680979087
81.5960858040151
81.5180022486704
81.3968330482453
81.298472693688
81.1650725250391
80.9628862841387
80.8174215372354
80.6850087471328
80.530224101017
80.442017723323
80.3331405243342
80.1803332251422
80.0451596611754
79.9007164861488
79.7907594423216
79.6815075418286
79.5997714184203
79.5346271492638
79.4385164138785
79.3148174531118
79.2416379375793
79.2475800722174
79.2348481707715
79.1105314058694
79.0097828907204
78.9651384873741
78.8990367633765
78.7813164277418
78.6859113423646
78.6494140496912
78.5346603805008
78.3842731839894
78.2718030788075
78.0853020251364
77.9025223488691
77.7543543241656
78.0301266195652
77.7992550495653
77.4591706498457
77.2381991447778
77.0419493230719
76.9544132959213
76.8705023853565
76.7666683361391
76.7242398754376
76.5667599061678
