1798
3999.43349933624
650.420452594757
1
128
4
93.0167900667445
93.0581175002227
93.030172146234
93.005401294316
93.0227027640191
92.990995017226
92.9002945644864
93.0091269665635
93.1103894465765
93.0179896859329
92.9746011431124
93.1166323820341
93.0756931799027
93.0093098546544
92.9975655980096
93.0400223838632
93.0375093409827
92.9801922730638
92.9725648060019
93.1058542547781
93.2020348244464
93.1432557144397
92.9833810760972
93.0431504505566
93.0283800802507
93.0431419792665
93.0746512070628
93.0942705690153
93.0804097116304
93.1063170973843
93.0873692469961
93.1677361505824
93.2442457364545
93.120916450393
93.0066426617008
93.1408159067151
93.2676698570961
93.2407723864127
93.2277096885754
93.2547410264388
93.191848744745
93.200895278761
93.1423115704094
93.1456137522538
93.2801324578459
93.3547855645838
93.3351689478906
93.2709520298159
93.1921278035542
93.203340239487
93.1792691654431
93.1274120227269
93.1527023605533
93.2995835139091
93.2774087355398
93.2823824999865
93.2445256248267
93.2525625894461
93.3918210430081
93.3735203667556
93.3535498718724
93.3649586706356
93.2964030358743
93.3684572526158
93.4005016873887
93.2572273376972
93.2123189763499
93.262730873736
93.292433210237
93.4824959258524
93.4965993400418
93.4865491523355
93.522369200544
93.6048401359616
93.5650210238549
93.3850520440683
93.2337397068411
93.3729772143364
93.5141981583101
93.3841221431175
93.3678610912921
93.554297199249
93.5870420025367
93.5775079876223
93.551894068859
93.4397849841129
93.4080170822561
93.516584910904
93.5279693849949
93.6171203744589
93.6367096731951
93.6602563966514
93.6956513796274
93.6536875075811
93.5831443054152
93.6230984394243
93.5332145053839
93.485162041011
93.4978150764413
93.5225899992246
93.6487364433502
93.5962209426123
93.5578608378674
93.6374636497557
93.6408972876686
93.6835784969627
93.6352790655444
93.5406947245072
93.6378232902716
93.7406185004005
93.661875163825
93.6501915454247
93.6414481938224
93.6977016160001
93.6858602632778
93.7431008090945
93.7328186893475
93.7098725058411
93.7745250260331
93.8417847692614
93.8240480644796
93.6975773363109
93.7074178749757
93.8149966287486
93.7559792376846
93.7740404291904
93.8521051718063
93.8622727577851
93.8141604043197
93.8255636313241
93.8994714758041
93.9417424108578
93.8040729969552
93.9052609648725
93.9771853291746
93.8351788086668
93.821604722018
93.9072969940707
93.9160590811897
93.9155404236745
93.8756609713306
93.9271363679359
93.8962732255781
93.8135925484653
93.8185841585322
93.9534807450709
93.987591543189
93.9939076590582
94.031330793562
94.1377765784832
94.1384450687114
94.0072227221819
93.8872197306344
93.9083076280409
94.0489659728441
94.1044413348082
94.0898277048235
94.085345593238
93.9888307399589
94.0401677913164
94.0421162468907
94.1013654608229
94.1354070720067
94.0748372487821
93.9946573980964
94.0157346926326
94.0979871855151
94.0597906664204
93.9266266135682
94.0275310347224
94.0385371081538
93.9790649501966
93.9410018252615
94.070447609771
94.1262585310107
94.0961500866503
94.035876915269
93.8789356302836
93.7046280517317
93.6471524255465
93.6410195186431
93.7294983937929
93.7089042938884
93.7469652288703
93.7004000950949
93.594137885729
93.5431921308424
93.5236775440573
93.3493271524321
93.2727123970354
93.2707745499348
93.2916146180827
93.2618988691285
93.063174663991
92.8235167954976
92.8236994209205
92.8012961695168
92.7873704758904
92.7793305856035
92.5843910823983
92.4052669314814
92.4421924959431
92.3361546632732
92.177187718102
92.0535031211
92.0234592454377
91.9296744406557
91.7906937013067
91.6550598186006
91.6267451681918
91.3793885885359
91.2915616906045
91.2445053084768
91.0616491338901
90.883189825616
90.847022318369
90.8953149189592
90.8474763696679
90.5702673532024
90.2971902807591
90.1583775102432
90.0796058741881
89.8735061156503
89.849228176818
89.7627664351561
89.6116164083739
89.3971184849943
89.2174521679111
89.0943855448777
88.9898605578314
88.7261181656102
88.6126035492566
88.6035503766023
88.5565497794311
88.3776816875505
88.2069263216511
87.9687138813188
87.8389492402533
87.7633964955025
87.6953386309166
87.5254993781665
87.2959425320399
87.1317263491597
87.0593102479432
86.9250095441234
86.795115496769
86.5768397299244
86.4348285543381
86.259693890568
86.1448744330165
86.023771668717
85.8498490943174
85.710645449614
85.5856837649317
85.3986623604903
85.2534986609199
85.0197954373903
84.8639120083512
84.7672699101953
84.6439520847969
84.4194004970913
84.3112679117678
84.1769449610222
84.079353073021
84.0286325168272
83.8472987091732
83.5871979257283
83.4248158196986
83.2158133040234
83.1269876304649
83.0831423826878
83.0376446327076
82.8405673230116
82.6550214172909
82.5469840368405
82.4466884617952
82.1903379680824
82.0985574228033
81.9721059533523
81.7547963658925
81.5697254087067
81.4877397150138
81.3895915571269
81.32341476439
81.1528404941194
81.082953072609
80.9492517938418
80.8195197630161
80.5747917827812
80.407468821136
80.2922712956209
80.2044610133606
79.9552170250698
79.8829906995133
79.7876653448767
79.6912252727942
79.6665411047695
79.5017544422874
79.229375058824
79.1148373394054
79.0769659697166
79.0729168998875
78.8705077638819
78.6666757865579
78.5249986436469
78.4803473752104
78.3452740748573
78.2766733039904
78.1265481379032
78.0299854422642
77.9570302246369
77.9215917588292
77.7670981196914
77.6027571772778
77.5078539391816
77.4315157941193
77.3043082913878
77.2790015247198
77.1839112740578
77.074771816726
76.9014641857436
76.8012436286217
76.6944775167085
76.5903944089835
76.5201815290036
76.497625825358
76.4525112471267
76.4619620543511
76.3729848580052
76.2566682857968
76.134690360123
76.0416540004548
75.8438359506601
75.8415494763031
75.8595727601666
75.7967664813402
75.7113094920885
75.6087348958367
75.4652883868319
75.4157924385236
75.4024187940734
75.297951252371
75.1899242821821
75.1873039787463
75.1166557023686
75.1554113860849
75.0631565965918
75.011346374074
74.9459146994257
74.9607724843082
74.8986413959255
74.8474438047646
74.8074706948275
74.7291994806607
74.5544409569252
74.5989356544281
74.6795011584686
74.676276959755
74.5731801374842
74.5148270152823
74.4427155529239
74.4628422078309
74.4957899108777
74.5387105124358
74.5092965886756
74.4476587748499
74.2975880362676
74.2985957775112
74.2845346255772
74.3216918982793
74.2576596082718
74.2523753205615
74.2563500352986
74.249267158704
74.1539100499464
74.0602730931935
74.0696866585075
74.1416216183551
74.1589657291644
74.2138985106813
74.1497150497164
74.0943132046281
74.0217264368831
74.0553161518763
74.0090640245686
74.0326870554498
74.0602761236755
74.1203213986176
74.0729989062999
74.1198474899028
74.1453883879057
74.0582496559777
73.9762845252016
74.07853056038
74.1255401004092
74.1764068280283
74.2053384080995
74.2073226078081
74.1297076259618
74.1276903107352
74.1183260566567
74.2503139015098
74.2953366503852
74.3223696198974
74.3506228577627
74.4170496970163
74.4131217952677
74.4349108476162
74.3994106477418
74.4753373471214
74.5612850348347
74.5987086664687
74.5722441951648
74.6209122519081
74.6557670532005
74.7325054618279
74.7730816037006
74.8358025735747
74.8061216914086
74.8529615244729
74.9971744781978
75.1982379038803
75.2402324864729
75.2877771962729
75.2522532126269
75.2609031520343
75.3096913400491
75.3834743547987
75.4384263644658
75.557088536146
75.6632131806484
75.781497167114
75.7566295031305
75.7689997229491
75.8540045901417
75.9978125550149
76.0888804810034
76.1603580880526
76.2267950487939
76.3263695723021
76.3385165253953
76.4056556919447
76.5400717238226
76.7412165744519
76.8003670903795
76.8640795667428
76.9050247895575
76.9924154067517
77.0357016553628
77.0987013892323
77.2105337929823
77.3719106382699
77.4388556399051
77.5668181520414
77.6522098703545
77.7662918818385
77.812028844732
77.9143566396986
78.0487424422337
78.1511717485202
78.2514891397712
78.3824914951771
78.4782536594295
78.6041234695428
78.6798237429747
78.7212439884238
78.7206051998941
78.8839174311237
79.0054173858826
79.0854663569273
79.220057636064
79.377138480609
79.3879257408852
79.4332092494625
79.5697307297166
79.6735955824761
79.7566909331309
79.8881578864127
79.9500017258365
80.1218719159341
80.2298047271818
80.2618045229207
80.3073398934949
80.4213354425762
80.4698493123394
80.5666175301018
80.6681844765523
80.8377199049801
80.9748547866355
81.079767732977
81.0903026267579
81.1506055254211
81.2468999989453
81.3936623555161
81.5051389355749
81.5513745278048
81.5212879473941
81.6203196861214
81.814854948182
81.9406029200614
81.9385059933153
82.088009860206
82.1674930578895
82.2015435680219
82.2975825730288
82.3816953511111
82.4452324596308
82.5637598566878
82.6852143792268
82.7741676096843
82.8059949051463
82.9202460515568
83.0283071344749
83.1496624115371
83.2227177454108
83.2743873615717
83.29830133474
83.3892244510673
83.6057859433495
83.7072221598549
83.656004195191
83.6729190277519
83.7921856421746
83.9263583722237
83.9943478406595
84.0859052152233
84.1338592084429
84.230736561982
84.346357574536
84.3925748273123
84.4050221716895
84.4763125598163
84.5379175501238
84.6342257196832
84.5807110787367
84.5532469373558
84.5977009273381
84.6621721442296
84.764539084138
84.8720038918186
84.8681931363018
84.8599300595211
84.787861035313
84.7587780312722
84.7668476716881
84.735694720716
84.7191042127395
84.7342909504754
84.6389488196732
84.5967670207454
84.5316637248744
84.4645733322906
84.4072863987465
84.4079835526791
84.2935183573237
84.1521397761066
84.0071436809301
83.9537115515153
83.9038100902728
83.8764398535103
83.7342364043723
83.619885243336
83.4826969900414
83.3220126288582
83.2240806359776
83.0741538903891
82.8851358600177
82.7379986927988
82.5214447533639
82.3319152333098
82.0993040798205
81.9372804517128
81.8171414927987
81.7361118856669
81.5970253651403
81.4374655492479
81.3376126390519
81.2685085424631
81.1427533902515
81.1025027779232
81.1458100219918
81.2354992042089
81.301646293444
81.4344936905695
81.589351277391
81.6963215294125
81.7173459324004
81.8029976816302
81.9032209749902
82.0186582626653
82.1240816574026
82.207876129144
82.2387042646287
82.2623473630831
82.2518759864397
82.3326128477466
82.4109671939829
82.3737885235525
82.3909832621219
82.4919910080285
82.5281456714913
82.5534439514331
82.5810108483836
82.6162986580799
82.688174994796
82.7925416713885
82.8315612970169
82.9052206181845
82.9778073003623
83.0749659198974
83.1569742068579
83.2399433332787
83.2678129355682
83.2230315139636
83.2063088519993
83.2292225711652
83.2811841702144
83.3777085879924
83.5293481044589
83.7751365150225
83.9665274713766
84.1597209364655
84.3663728844365
84.5403512541839
84.7032418313832
84.866448909504
84.9550331653165
85.0365266475008
85.1168028536869
85.2052555349374
85.2936751261411
85.4196296265823
85.4845366784244
85.5994061474151
85.7311563057907
85.8352714544041
85.8518130342692
85.9017343156656
86.0066223223277
86.0740785169899
86.1196875148065
86.1782259400827
86.23311608323
86.2687391803608
86.3536163709986
86.4207361653306
86.4364320977113
86.4864971321053
86.5581259939245
86.6388152296161
86.7077035264397
86.7442664145632
86.7282055056196
86.7603004867888
86.8480626319616
86.8617595930931
86.8557632186053
86.9789657393367
87.0397780816512
87.017410017474
87.0285961055073
87.07610586185
87.0913152758979
87.1320285597831
87.1847353348414
87.2102171527804
87.2372440152817
87.2635044163257
87.2842795919348
87.3331135739532
87.3735195751295
87.3823134151161
87.4041843903773
87.4609420706828
87.4847336817248
87.5098783863722
87.5394672836393
87.5746614319966
87.5673695363652
87.5601918461386
87.6377974293213
87.7084487421588
87.6940692825797
87.7039925958911
87.7295064039509
87.7530233890491
87.7246136536103
87.7826444463517
87.8567560813885
87.8480868774708
87.8548437646471
87.9151566881169
87.957711667374
87.9753112836543
88.0035510359964
88.0850354413969
88.093311081505
88.0738634414643
88.0761217116013
88.0536448289208
88.0556868094186
88.0990625898398
88.1589935996718
88.2310231207426
88.2797699717142
88.2514968434078
88.2129633221183
88.2625338243699
88.2984375361261
88.3477657149439
88.4038521944879
88.4205168883861
88.4482868981998
88.4823858332676
88.4636008727258
88.4617502313491
88.5516907667026
88.5964371172064
88.5775582853625
88.5801173286495
88.6016646249598
88.6359521978856
88.6148573065857
88.5829949959498
88.5846024864451
88.6689863288663
88.7833414024022
88.8491084194115
88.8597343942033
88.8948244234386
88.8998044225446
88.8687407760818
88.9001562617885
89.0045162506614
89.0711171559998
89.1585988959841
89.2486571556627
89.2900208177449
89.3084820167268
89.3166156801322
89.2898910923115
89.3307508855459
89.4141908832431
89.4890830442492
89.5295255777089
89.6101688207959
89.6592510372609
89.6876556571386
89.672418859211
89.6776953233376
89.7437387217013
89.7924698802993
89.8581467666472
89.9030973554583
89.921434080773
89.9782253884571
89.9635397541566
89.972307690237
90.0094557759472
90.0600673485157
90.0790431674959
90.1139335369288
90.2206758249642
90.2624989190328
90.3054137897977
90.334241673146
90.3868637851856
90.3748875115977
90.2745822646338
90.3044975465472
90.4232734841075
90.4107566098
90.4041607377981
90.5127272119188
90.5745937786092
90.5009576075216
90.5039833611208
90.6392152513845
90.7000501178024
90.7216396583415
90.7487590858783
90.7274460992634
90.6447955043129
90.5973567823583
90.6859300288851
90.7454704383668
90.7001679729552
90.7697612115625
90.9062174004988
90.8528979044054
90.7984563363543
90.8622111442307
90.8622231370859
90.8632580814377
90.9023493050738
90.9263254822535
90.8837956151055
90.9721845830078
91.0529586991348
91.0464021357964
91.018498016935
91.0008631835093
91.0089875975385
91.0454960423268
91.0559480295704
91.0407418641962
91.0616843903785
91.1062429440198
91.1079132141891
91.1414641723366
91.0643712511909
91.0183246071534
91.08827208282
91.1107933970755
91.0805756187169
91.154983406989
91.2161842321882
91.2510890439917
91.2504509081923
91.2596026060316
91.2518920781341
91.2277329218034
91.232534740071
91.3008232084526
91.2726518437797
91.2795585186455
91.4376023785845
91.4523455580165
91.4048800580635
91.3831710613977
91.3907083939418
91.447983869384
91.4552047216101
91.4002569889254
91.4264763893874
91.5918261375467
91.6468432056677
91.5803332261061
91.5490632832811
91.6148869910012
91.572795003198
91.5662658958482
91.6221655806657
91.6359387828108
91.6513220309447
91.6856711451882
91.7574504795951
91.7564910155703
91.6569755041637
91.6755538785398
91.7307853306229
91.6558987351645
91.6237135409994
91.7047352270936
91.716716455735
91.7261883116495
91.7874918335136
91.8215024002269
91.8305631718416
91.8943141881783
91.913649526793
91.8330421051923
91.8047793261476
91.8456373886533
91.8548102936236
91.7981233080188
91.7164478835846
91.714190706486
91.8097136000409
91.8675478954814
91.8953157763755
91.8747834837983
91.8329852985292
91.8792313785401
92.0134981313904
92.0358508480714
91.9932267952676
92.0107086289973
91.9825320742742
91.9716683039237
92.0739049589523
92.0772104832198
92.0686927269896
92.1243741281791
92.1038524798306
92.0005563305835
91.9048007291779
91.8260259184199
91.7835563656392
91.8341531949624
91.8705479252152
91.8287565038507
91.8197597914997
91.8353574051512
91.8363318570075
91.8556639946055
91.9470662673677
91.9357134654469
91.7616999059859
91.5898377610496
91.6122717978644
91.7406053447001
91.8583212151927
91.926574764608
91.9294612026681
92.0016997942725
92.0906857310589
92.1058242225357
92.0976745155514
92.0959324301375
92.0931616647245
92.1177345420763
92.1601676558722
92.2288403378067
92.2382779004378
92.1649797422301
92.1147214599527
92.1327089324087
92.1883749179734
92.3332805297353
92.4341994338548
92.4132574573706
92.4269288034547
92.6346269876481
92.8217461184159
92.7788583833415
92.7685460372082
92.8558005073208
92.9157754905672
92.9676814369776
93.0513190339273
93.2685062295752
93.4176086072016
93.3789447240696
93.3939462455341
93.4650512760144
93.614677737423
93.7325048994029
93.6339061737484
93.7043190702466
93.8051941037175
93.7321540411116
93.8580012053128
93.99773447674
93.8950728051191
93.9655389949561
93.9990145945401
93.9962311506598
94.0285291595755
94.1566422590997
94.2976020130377
94.4274117714051
94.3034895631477
94.4168265111961
94.7775837878633
94.7663125878678
94.6597386916217
94.7399905978094
94.6636292904592
94.6231927985807
94.8753448453911
95.0089051222771
94.8862192034637
94.9738511434954
95.1509212113666
94.9704673069515
94.9811932560166
95.2202539776463
95.3543486674144
95.3919191236291
95.4246907357726
95.564002705213
95.7024938526251
95.5405821090461
95.488758495607
95.9162448792101
96.2165945704534
95.9696004491445
95.9458951755642
96.3123712020305
96.4985914279846
96.6480546635251
96.7302550772732
96.8470462871871
97.2097943845192
96.9499428561728
97.1168966418808
97.885758775607
98.2542000067494
97.9531386176307
97.3945479907503
96.8042435320478
96.4384403982747
96.1607627601682
96.1111379872678
96.2205260947421
96.1724926911673
95.8570797619434
95.5774109028769
95.4658258226574
95.3958035269334
95.0245440124819
94.9958849146399
94.8622617136505
94.6543401981346
94.5194427030421
94.3371572264617
94.2016236886562
94.4426421746442
94.4142220586476
93.9987187202641
93.8300618637815
93.9880082326179
94.1796353878975
94.3686064959594
94.4463984202511
94.3691898937897
94.2588419891982
94.2458591733512
94.2998913678892
94.3560475483334
94.3532298348728
94.4634395208183
94.4908611174454
94.4932981711078
94.5437016026815
94.5133286332602
94.5952861698443
94.6225125631943
94.448402650031
94.5153744562003
94.7620475108936
94.8804994242771
94.9382364583877
94.9491281724575
95.1991839541386
95.4160496865547
95.3280001814828
95.3638692059441
95.3760366394034
95.4314838425944
95.612790133428
95.5699195341759
95.6596706497876
95.7017628771914
95.7749810462714
96.4702206042693
96.9280007581925
97.1362182990837
97.4007910911078
97.2447019769815
97.352655325616
97.6091951453686
97.5087609842521
97.7391099599954
98.0556477093056
98.0752404970677
98.1746970413401
98.2199494804162
97.741767300479
97.626831737515
97.7728722234878
97.7381765487712
97.9438749894598
98.1434142329894
97.8962337703572
97.966275169988
97.9244913324476
97.7667948499624
97.3616382807185
97.1072109706831
97.0402990707147
97.2380839949975
97.1019751136166
97.0420205458142
97.3492671928955
97.3531698097547
96.8815995357826
96.7501921099029
97.0178586965219
97.3983916091591
97.3330477303831
97.2163962474446
97.2705832184529
97.3562608736451
97.7004649279958
98.1090090519538
98.0056488561689
97.7105886108853
97.4625007514849
97.4782665446542
97.2484718088775
97.054057679104
96.9273969533518
96.7571346330055
96.7775404983236
96.7110665018818
96.2569885200807
96.1787586187056
96.2014644866775
96.0550866482776
95.9079840993743
95.79098361976
95.7160976201005
95.5362267463917
95.5424404576285
95.5576982590043
95.3145562596086
95.2883560142915
95.1919672285834
95.1512684485007
95.2146708813506
95.2022719587614
95.2255353884897
95.1838324639926
94.9723790615056
94.8617974051945
94.8339681041613
94.9256011932622
94.8762792489058
94.8246956352699
94.7923870356581
94.7771318566075
94.7352806871873
94.7292985202801
94.6802655128344
94.6543651946719
94.647490324742
94.6086903685399
94.6030369337447
94.5669255712695
94.5832569490217
94.6408747812328
94.5618282021293
94.5247734356891
94.5499099083004
94.5249961399036
94.4893059604739
94.5098595007901
94.4931030121262
94.4301370757642
94.4250299367159
94.5016155305373
94.4745629745324
94.4445130655065
94.4957706283729
94.4763680178395
94.3506591039115
94.3431582288433
94.3542308270977
94.3567492200433
94.3997327966022
94.4464808095303
94.4196182958406
94.345206696665
94.264494900879
94.3333103747576
94.4855904542489
94.4331673335533
94.3230716879002
94.2976169572041
94.3156800826824
94.3263198794734
94.2781933005038
94.3724396530118
94.3923991767092
94.2779612750752
94.292743316711
94.351286458804
94.29702955455
94.2831322929069
94.3627651630753
94.3213184286081
94.2468394147383
94.3085953732026
94.3267871781643
94.2940813862115
94.2443507310246
94.2417282187541
94.2389309313129
94.235741715783
94.267268710945
94.2847529608288
94.2349436993547
94.2502158205729
94.2744852680024
94.2290228255923
94.1945888136651
94.1645482240596
94.1558750716243
94.1602963566556
94.2045887326065
94.1939275957945
94.1848477889934
94.1895846310949
94.1855731723197
94.1593904177289
94.1257344174789
94.1494378981924
94.0430379088006
93.8996359279778
93.8369873840202
93.7442189047353
93.5884934868264
93.4651193635553
93.2313489085217
92.9841312840394
92.8040641505794
92.5231845545016
92.182813734796
91.9223686028504
91.6470316317041
91.444033374713
91.3343943328651
91.1106846183758
90.9266819440706
90.9839075792648
90.9160956612639
90.8389102443905
90.6734358953553
90.5285325361907
90.4966757160128
90.4911798917532
90.3263156198024
90.315926857327
90.535633332546
90.6349540804541
90.5271924610665
90.3914574647529
90.2643028668918
90.127107573402
90.0236875694213
89.8388821142693
89.5815588626884
89.6316913169791
89.4135842075375
89.2065603017265
88.9684463611316
88.6116241441017
88.2471286702868
87.9339509401377
87.5312535748501
87.2223396631385
87.1451727917444
86.8795114105974
86.455051156869
85.9468533830664
85.5952258481384
85.3537736344389
84.962316672648
84.6463883122852
84.4279558122065
84.0409437988398
83.5907591962238
83.2697589541703
82.9822515130219
82.6563166993693
82.1887669654698
81.6018329121793
81.6520548671182
81.8751125478571
81.4382280035256
81.0813192779706
81.0363735732328
80.8837544459435
80.5756853677726
80.2605809834507
79.8532761313866
79.6265846269312
79.9159850458393
79.9205583484856
79.623329918188
79.4035564722107
79.3822007026949
79.3165596498854
79.3828768434911
79.5424979548193
79.3910814356893
79.2368679760679
79.5152061368597
79.6197945741267
79.478052717476
79.3270321367124
79.237179170543
79.2202238029287
79.1773856566583
79.1301368985797
79.1117116010248
79.1330673905986
79.1591725422019
79.2540080092695
79.3790928918902
79.5517479178146
79.7500542041368
79.9577935062098
80.1633163844046
80.3919361691399
80.6195989787936
80.7943226447632
80.7167733640792
80.8389637664216
81.5124010563772
81.7062234344844
81.5745467208689
81.8227935927829
82.1385254157634
82.2255808756217
82.2473274167808
81.9259948402425
81.5765850890251
82.5226076717893
82.9396584204734
82.8796357834159
82.7754467791298
82.6718989992101
82.736520720959
82.6805887951797
82.5726079648674
82.5065546035813
82.4708224887354
82.9736906529002
83.3179307622127
83.1042701207087
82.9856355624775
83.1482451753208
83.1259792257444
82.9777736660903
82.8909085020822
82.814244213309
82.5655614450283
82.5287353921805
82.3678252260927
82.1814894980654
82.1284280755504
82.0055882210887
81.921470090384
81.7473022460927
81.6422489991451
82.444897906663
82.860620022041
82.760778356595
82.6021033363227
82.5582527296333
82.8443108571987
83.2066524728149
83.1595909935838
83.0053147665919
83.1698492371898
83.4100270241897
83.486741985379
83.3858310175537
83.2755222190957
83.1656269574158
82.9584893187003
82.7052095170565
82.3746940211159
82.1970324158194
81.9809831275914
81.4625867132551
80.8872716948863
80.5707640524785
80.4294480865262
80.0935942975106
79.638445839222
79.4623657178601
79.7704569856615
79.6441047342715
79.3745900628088
79.1001175396644
78.9542826660921
78.9258405377398
78.8063677280792
78.6242975688228
78.4102601448595
78.0490296497372
77.8667356249151
77.869320057631
77.5564961184456
77.1383710515974
76.8390163325572
76.5745871322241
76.1949662430342
75.9225428843879
75.6067238864098
75.2424168583106
75.3179500323882
75.3418601968495
75.1373329665212
74.94003082892
74.828254242766
74.7812626671738
74.7025862247633
74.6983537947968
74.8370113826232
74.8017445289407
74.7753325457336
74.9231486166702
75.0008882387399
75.2307916435858
75.3577103312824
75.2494252639686
75.1334508808248
75.2453775848703
75.2932698298272
75.2238150207289
75.1367771651569
75.0838472666427
75.0771855457231
75.0864693106292
75.2928501377007
75.4787383568956
75.5339754722464
75.6819421979476
75.8051344819278
75.8304083063205
76.1079791033931
76.5476931110736
76.7697485174863
76.8937210489938
77.0753035315343
77.2782276775594
77.4712444369598
77.6603741271359
77.8687953829836
78.0588761486174
78.2022636696994
78.2942268153636
78.4382442564271
78.6684391270926
78.8542530391465
78.9509825155591
78.9912155221118
79.0628933598408
79.1433727815057
79.2205222484827
79.2945958434027
79.3203726823203
79.3478976314426
79.4207480804625
79.490186659173
79.540071922583
79.5847757501893
79.658503886519
79.7251593878742
79.7795772414624
79.8410732873269
79.9133862328669
80.0106751466066
80.0966483995082
80.1731320260685
80.26252766768
80.3260029055925
80.3564092701242
80.3730023568215
80.3652725168676
80.3679013766063
80.3667626134184
80.3560569749897
80.3221348997849
80.2640357987219
80.182173923418
80.0915446878599
79.9801524194375
79.8527459992271
79.7364992475064
79.6295330842672
79.5133426561197
79.3750921860518
79.2204473682752
79.0832641207356
78.948432464275
78.7813184654516
78.6271550858647
78.4981816118074
78.3985176165433
78.3291983997009
78.309293164645
78.2960831441247
78.2856366988999
78.3247454717156
78.3631463626389
78.4075971610105
78.5029156715409
78.6212688699235
78.7460069667184
78.8672309666533
78.9981115506243
79.1385660088638
79.2792703260261
79.4196093414405
79.5025278835721
79.5980942489951
79.735213702211
79.8967760481688
80.0237469720258
80.1177733243082
80.254405594574
80.3882811645041
80.4957942437636
80.6210954327076
80.7774360113163
80.9401445512917
81.1003938584355
81.2701521644878
81.4287799686685
81.5470562917127
81.6200893308723
81.6585262447432
81.6158504551259
81.4955914082351
81.3074140186206
81.0458704477626
80.7412418776815
80.434427007914
80.0912239944694
79.7000239452398
79.2983529151215
78.8435346630119
78.3416075012671
77.8389197512722
77.2993723955755
76.6905791537075
76.0668661620306
75.4674996525498
74.8979392602281
74.3478834582384
73.8444399584961
73.4102318083824
73.0678378647993
72.7847284928268
72.5540872058161
72.3648453440655
72.1928627430548
72.0177626900677
71.8307248248345
71.6398196146715
71.3720208788318
71.0097427703497
70.6317352909638
70.1914181461102
69.6958876280288
69.2072823726924
68.7520268456659
68.3098004218419
67.8876698502085
67.4858078743961
67.131207329947
66.7539875900954
66.3538871986231
65.9489565755281
65.5376289258572
65.1230565390109
64.7097967052673
64.278284253781
63.8445908998182
63.3894321325476
62.9173319484672
62.4223776077983
61.9076769667774
61.3664337838323
60.8024691744091
60.1928005800661
59.570883756921
58.8999555135075
58.1820045456149
57.4510006143369
56.7061333938629
55.979299857236
55.3188617758535
54.7384411980806
54.2297860681061
53.7671815712531
53.4303253924195
53.1187080992562
52.7869516697762
52.4640713604898
52.1383140859474
51.7725567379281
51.3615711002856
50.8876757207906
50.3593441888009
49.7974178896268
49.2377086746892
48.6327513445679
47.9923059106666
47.3556012230264
46.7661959900499
46.2219788754416
45.7370590628338
45.2888292558999
44.9478116585715
44.6525231473494
44.3802447969526
44.1609539064721
43.9843312478658
43.8273232879726
43.7133617617763
43.6235830649114
43.6151670411477
43.668057020885
43.7562113505623
43.9089824408515
44.178813958244
44.4909243478239
44.8397614178391
45.2467833438926
45.6872094380619
46.1024334183058
46.5061369292688
46.9199190037245
47.3276545986163
47.7020326735941
48.0706744456953
48.448688952081
48.8812727142492
49.3365657865972
49.8012745606912
50.2550935553383
50.7169631618353
51.1657349107528
51.6245987473828
52.0892985200959
52.5710217663127
53.0583385521523
53.5794323770595
54.0851297794063
54.6095815864116
55.1455757106377
55.6761920459901
56.1950190498488
56.7068515627033
57.1949333733797
57.7139080711918
58.2604397124807
58.8064331284933
59.3391644037139
59.8751836051662
60.4140024009836
60.9422511540743
61.484039120323
62.0547543290487
62.6077961485373
63.1705836488794
63.6846512800982
64.1710852500229
64.6383355213587
65.0542868454534
65.4130077278094
65.7713374956805
66.0980367508754
66.4151940486681
66.7304506279431
67.0550997729202
67.3550115662739
67.6315643361291
67.8815789878461
68.1240533119478
68.3614488041466
68.5402524681524
68.621060305142
68.7114325155054
68.7979269179425
68.83507894288
68.8708749129043
68.9258490377004
69.0050002128788
69.2181615161473
69.4399989429087
69.7145551739961
70.0285102072873
70.3467856813055
70.6547990584765
70.9029867169325
71.0849327073165
71.2641941440633
71.4085809141399
71.5199109522207
71.5711231575647
71.5760852435123
71.5823885646899
71.6087446391081
71.6191329748909
71.6695577539356
71.7201221299458
71.7709350411936
71.9056518410687
72.1302935992918
72.339995821212
72.5235304769401
72.7165999262661
72.8883354696348
73.0430710985987
73.2063426114328
73.2970084442152
73.3063706320501
73.2818903272878
73.3348646202721
73.3723259042178
73.4122271861407
73.4713377183665
73.5369340377686
73.5593349120123
73.5836116965875
73.6019811918045
73.5338742830775
73.4048968774412
73.2604760643315
73.1254755469202
73.0492405969841
72.9332492415118
72.7954276825479
72.698871103091
72.6216844143747
72.6100575052689
72.6116499044364
72.5694510256148
72.6021168261899
72.6501280445221
72.6721104158984
72.6992001395481
72.7091770293453
72.6745716106731
72.6639166933748
72.6814046866419
72.6788157084094
72.6588093287783
72.5934392064651
72.5228978284405
72.4556070776118
72.3784794155588
72.362997253478
72.3608704881556
72.3072712617926
72.2360005458034
72.2622649886974
72.2182341777873
72.1269424597601
72.0412909602834
72.0086020937666
71.9810248528849
71.9703461731244
71.9493242489665
71.9073398339436
71.8767345003352
71.8503199697295
71.8026462951765
71.7439832487067
71.6627910832039
71.6085665439096
71.4799888242886
71.3731802368628
71.249416741793
71.0787443899466
70.9183363003716
70.7108737677683
70.4889032312107
70.3163260194215
70.0879013570874
69.8487371280102
69.6136995271805
69.4186268998003
69.2204374253377
69.0363836606586
68.8504554716163
68.6984096946237
68.5149140741987
68.3120171779761
68.1712535257784
68.0881778734764
67.9524000461617
67.8542147331002
67.7429052619164
67.6296091630747
67.5115453052339
67.410927955912
67.3133404523823
67.2348735836583
67.0973692393115
66.981478299253
66.8399503376648
66.6854375748354
66.537014243395
66.4305543823457
66.2578852110666
66.0751704261171
65.9165334218456
65.6511600350973
65.2636765409637
65.4268610703611
65.3114432787197
64.986855427482
64.7446225393213
64.5355409250369
64.3461488305558
64.1604931370329
64.0016516292876
63.9329022099681
63.80132396269
