1798
3999.43349933624
650.420452594757
1
128
4
94.8847017048363
94.937905499025
94.894731264401
94.918667481564
94.9799392486775
95.0286060798174
94.9900181880821
94.999294658295
94.947696739445
94.8905708810049
94.8738055051226
94.9191877707873
95.0315393843965
95.1349450050714
95.0679087642191
94.872287055025
94.7654079424644
94.949765728196
95.0163476106755
94.968343416218
94.9946058678188
94.9727285704345
94.9578952080301
95.0529256002081
95.0476701011399
94.9320415763609
94.8492965417548
94.9294936838666
94.8964171350814
94.9030416711089
95.000668775903
95.1169054837912
95.019950255569
94.9532798273826
95.0273354982172
95.0765151065956
95.0606865156499
95.0169435359015
94.9860352615027
94.9673303429668
94.9988532114499
95.0949707241616
95.0660999328361
95.0600677981528
94.9955628469074
94.9703200774805
94.9616299362814
94.9873865376742
95.068748606615
95.0950618883142
94.9798599714668
94.9237367052657
94.9303526414332
94.9665804831915
94.987258258031
95.0997516028237
95.1539042797188
95.0693598177829
95.0078178637363
95.0450248806811
95.0398321773052
95.0574666696982
95.0891493446948
95.1253075871367
95.1572725253527
95.084246679867
94.9892120626744
95.0361747720863
95.0754583739659
95.1356717024544
95.1348985825254
95.2224901211653
95.2246706381882
95.158373673626
95.1151434260883
95.2006274182984
95.2425226586585
95.126275549601
95.0613980262325
95.0926155623675
95.1404132710033
95.2274670369883
95.2487572346744
95.2199921648538
95.1679655260068
95.1033449356729
95.0814226116383
95.1469026868296
95.168798194111
95.1963060965205
95.1495812306768
95.1189552621154
95.1013839669879
95.0986143190434
95.1117346587182
95.1191809969211
95.2098683732851
95.3066321423523
95.3349055193155
95.3275577572331
95.1995828616343
95.1887484425925
95.3897838770396
95.431239797903
95.1697885308362
95.2040053709157
95.3315212610767
95.2892179236032
95.2078117762045
95.1867069739447
95.1754102390644
95.270960562304
95.3350892421238
95.3483750003592
95.3880493730801
95.3876088436136
95.3233700884902
95.311942231001
95.2778624316991
95.2533529612786
95.1801819597774
95.2096927436892
95.280192872722
95.2023004842495
95.1386010090715
95.29153064406
95.4158213244225
95.4640205533648
95.3353595094918
95.3518012047622
95.4270715887711
95.4131414496273
95.3198618170101
95.2834523420763
95.2661686125803
95.2452020283824
95.289756622597
95.4097686405335
95.509960302071
95.481242710023
95.3509636413588
95.3191377523695
95.3817502127811
95.375158470988
95.3742213031694
95.4383306366932
95.3746644630765
95.4180213629858
95.4414183560238
95.3743503710996
95.3402161298296
95.4110038666935
95.3970474528807
95.4196101195837
95.4020135057273
95.358080628883
95.3862684691039
95.4668375325187
95.4422655283148
95.4170737999741
95.4282808132299
95.5776149357369
95.5940225309227
95.5299440020166
95.4806747383122
95.4313468443212
95.2609340863119
95.1150107810263
95.1522162797242
95.4036961762614
95.4795335422701
95.3330655956392
95.1917984151491
95.0983235183746
94.9837910686521
95.0890404578191
95.2490744709761
95.2136279780186
95.0711710725279
95.1164715707577
95.0907726370943
95.0556004217636
95.0261686916367
94.9877869107263
94.9054327635643
94.9073766402732
95.0402801739239
95.0615155872656
94.6699768474081
94.4716139029842
94.5450394586176
94.5834275157124
94.5328324653857
94.6171870381872
94.5862777161266
94.5190971930049
94.4530888049732
94.4278195368184
94.3009644332892
94.1113528484969
94.0491713885265
94.0817822360529
94.0768721955578
94.0862943916961
93.9830712192566
93.8549292157417
93.7423978716218
93.6726501363288
93.5567419280665
93.4778017598934
93.3565711203028
93.3512893089408
93.3087975855211
93.2547446771379
93.1764090092935
93.1033839559471
93.086815547285
93.0280364029056
92.9522122447672
92.969555906258
92.8258564673702
92.581328030216
92.4434350407115
92.5317467069016
92.5810178284782
92.5713696304138
92.3648510889734
92.0920757051017
92.0578031114293
92.1316685938951
91.9818302301053
91.870008167006
91.756612238449
91.6399005023152
91.5395773538765
91.5951253621989
91.6668582607987
91.5411986678871
91.4043963612326
91.3667015290347
91.2122295053476
91.1808996616058
91.0703881657005
90.9242215597723
90.799498316518
90.8046636077079
90.7245683865467
90.6165045455205
90.5826921206077
90.6636588501756
90.5320529295319
90.3365706355354
90.2129428607273
90.0723051600919
89.9969479966819
90.0896329583639
90.0630894174107
89.956405598361
89.7807259692571
89.6640574434234
89.6482391758359
89.6479750067323
89.4500931546631
89.265283243758
89.2509498549131
89.286012124009
89.1099710247908
89.069550902111
89.1460446953301
89.0249414687065
88.7560174375259
88.6676236136903
88.6964997561579
88.713941911128
88.5821513980532
88.4605844339973
88.3132812317802
88.2666217074388
88.2582377539471
88.2127678452295
88.0753844203248
87.9886119513013
87.8639355944335
87.8549224538603
87.8001050906212
87.6752952178393
87.597631798099
87.5823970566067
87.4839072947835
87.4153815446387
87.327118662571
87.2162234948109
87.0770433836085
87.0672809334366
87.0332382508642
86.9992724865948
86.8768476595752
86.7859746971382
86.6605491938157
86.6096628943538
86.6664126879868
86.7288554955927
86.604869136147
86.4724688318698
86.3821636336567
86.3283187380706
86.1690070851825
86.0586408402028
86.0833639566013
86.0975751923666
86.0217886020541
86.0287299017029
85.983584163628
85.8731057272772
85.6999733395314
85.6516014848432
85.6228880934514
85.6069116732292
85.4911083466377
85.4516491685527
85.4119154516685
85.3461642213386
85.2389872631118
85.2315735282298
85.2307708491321
85.1351537513277
85.0325834158701
85.0485693777489
85.0279384412638
84.9220673494149
84.7457668496868
84.7272502436567
84.7218339209659
84.7969494127678
84.772530611787
84.6936970434262
84.5839617080124
84.4541379441901
84.4152801821652
84.4947633283526
84.4903591045938
84.4698750932102
84.439138932364
84.3226836038363
84.2463246657626
84.3272061226943
84.2662792743478
84.1828453951413
84.1763179505837
84.2084539843897
84.1265547290632
84.101266709345
84.1252480433359
84.066168598143
83.9741133765719
84.0114831122984
83.9929123258209
83.8682792563573
83.7423651465324
83.7370215164089
83.7703043961268
83.8114427959249
83.7565023051829
83.8182134870113
83.7738550208085
83.6994955480881
83.7332382934057
83.7772113353465
83.6809550367199
83.6727409915391
83.6296558626367
83.6006750253143
83.6415840374917
83.6434935154766
83.5381241486845
83.4705081575299
83.4667460246517
83.5750769759946
83.5372293694845
83.5041056143385
83.4153252052104
83.3475098808785
83.3652294545836
83.3607039819658
83.2494464896596
83.1828356664545
83.1901741636731
83.3151851960981
83.3733273983162
83.3419438230931
83.2642823953881
83.2334014339449
83.2227881924495
83.2575335704636
83.1736735555563
83.176880143811
83.2291457985748
83.2238541360769
83.2241078363737
83.267282821963
83.241831115437
83.2682536792825
83.2693416426799
83.2873133632705
83.2690128227268
83.2475545488267
83.2581582740415
83.3217834968679
83.3461210557733
83.3935796534732
83.3677921340788
83.3121727280108
83.2424608400422
83.334244659907
83.3871768508763
83.4140304214415
83.4306190862705
83.3460292643295
83.3590911613098
83.4825059162141
83.5275329801366
83.4625844714558
83.3925455971201
83.4348996726271
83.394714072289
83.4193600102859
83.5419430846885
83.6083800449935
83.5595528615749
83.6127073991396
83.6259667283674
83.614898890838
83.613350731098
83.7001473456342
83.7842300691316
83.8392339760976
83.7963351760199
83.803079524813
83.8356189839554
83.9431629614465
84.0342663265813
84.0657394644307
84.0587975018422
84.0821371249444
84.0338138536856
84.029592279803
84.0898661971885
84.2272122658684
84.2865999691094
84.3289095297101
84.3753127281163
84.4362602866976
84.4280234848683
84.5124328620005
84.5430204886245
84.567961208295
84.5520411367575
84.6214677784569
84.7022113233593
84.7518297997039
84.8390294444779
84.8851015939831
84.8274473570914
84.8067034888539
84.8426753078247
84.9770725693433
85.0671838147682
85.0675411299748
85.001476691514
85.0216036738655
85.0984160094631
85.2554172833131
85.3811208652079
85.4520745260822
85.4050638404543
85.349210156333
85.311142473629
85.4085578324752
85.4556649109174
85.5016133242133
85.4915473790709
85.5185999077221
85.6000219378985
85.6470802431686
85.6431526765574
85.6176931827267
85.6163794884126
85.722681565855
85.7369345639938
85.7418001479828
85.7873973638472
85.8707301911576
85.9164097970814
85.9715040153794
86.0124589634955
86.0423630748126
86.0392962462835
86.0318877663813
85.9877745299411
86.0623108692404
86.1210684370612
86.070523539856
86.0512638719711
86.180125821864
86.1941375834963
86.2513377898971
86.3183654617978
86.3129722998731
86.331120932577
86.4250054946345
86.4130995390529
86.4232989127795
86.5329231945245
86.6591376541975
86.6920268503939
86.6979793516095
86.6478953348495
86.7105683857883
86.7880723494577
86.8519031656731
86.8106948476227
86.7602367690933
86.7900080356855
86.9105566133992
86.9822733211915
87.0450363757346
87.0230544906819
87.0206767838992
87.1074342558863
87.1944797997014
87.2360587213243
87.2518264314032
87.2008868110114
87.163194691505
87.1263492541979
87.1554770899121
87.1737871025672
87.1451626702512
87.1424718231592
87.2007348855626
87.2361358753005
87.1911786049942
87.0834625939661
87.0326204785011
86.9751025709556
86.9282324222744
86.8536877167936
86.8352988893638
86.7244241207573
86.6126295269159
86.4986615727831
86.4247800936186
86.3628425730243
86.2664223460097
86.1469464133149
86.1273892056706
86.0851713019815
86.032362077885
85.9356018895689
85.8712536043677
85.818701810888
85.777383601152
85.7085943877962
85.6345167932126
85.5646656718348
85.5228739271497
85.4670001880887
85.3841283548136
85.2243333893432
85.1011261963689
85.0179462665482
84.9382054595803
84.8558795138329
84.849420519806
84.8182843047023
84.8289974970151
84.8339942826142
84.8666686965569
84.9376945816497
85.0228801383361
85.0610415230199
85.1535448307541
85.3160941091735
85.4259047864595
85.4535445264402
85.5063155182659
85.5181702334516
85.6271852676219
85.7302973876958
85.7824788216181
85.8674508257613
85.9430356478143
85.9924370688579
86.0839469223396
86.1414176152664
86.2291491946812
86.3078612216381
86.3099916092101
86.256351912609
86.2814042057074
86.2999589885493
86.3269143379243
86.3028873009532
86.3518553481854
86.4050087434679
86.3906244322908
86.3865567677677
86.4151347176927
86.4664386608008
86.5226828902073
86.536040719117
86.5809329318715
86.6288660385426
86.7242924074919
86.7619578281018
86.7579579546999
86.8232994613115
86.9544927235849
87.0817125182871
87.248438910203
87.3138329310125
87.3775395651428
87.4981841062019
87.6217179432652
87.7280440487224
87.8148402028862
87.8446280611983
87.8948556823447
87.9291161625196
87.9882535055314
88.0377243115989
88.0863109383366
88.1334837622546
88.2198321360684
88.3075140755942
88.3574069656404
88.3438935650128
88.3566927053853
88.4483789102871
88.5302826133697
88.5576769367588
88.5498998384974
88.588863357861
88.7019623298648
88.7637654106838
88.8256693532672
88.8305251633017
88.7966272875625
88.8435761364515
88.930255158572
88.9949175719614
89.0516944565756
89.0935088656959
89.1042927781897
89.0647340552678
89.0685600693037
89.1245123657355
89.223953536788
89.2972423883852
89.3401900318953
89.3013149909525
89.2902012942519
89.2757557748578
89.2730980249448
89.3133415426462
89.3262776892198
89.3649405599384
89.4360510591328
89.4428443367393
89.4432794250844
89.4858538782526
89.5499531824671
89.5567449324775
89.5853440968656
89.592233750594
89.6227943498903
89.6781434828141
89.6987591914874
89.6871473436432
89.6864825299888
89.697139138712
89.6822914039128
89.7261841564614
89.7884878874465
89.7975633243092
89.7896241450139
89.7993949877858
89.8641922373467
89.926133173096
89.9282228881877
89.8962117798546
89.9107348307519
89.9186577633837
89.9022382433691
89.9054263827164
89.9303592710921
89.9773299424153
90.0591621387207
90.0911592003386
90.1186716315699
90.152475582646
90.1308220197939
90.1298665237966
90.1730468936151
90.1942184671756
90.1701654205184
90.1349505540099
90.1655511938797
90.1904666775229
90.246189070286
90.3015118819774
90.3098845468482
90.3355757775581
90.3937466753386
90.4144406550149
90.3761879890447
90.3484493465287
90.3527943392447
90.3605820147618
90.402551488894
90.4254024737838
90.3811481983713
90.3223650368499
90.3401316047096
90.4111915996506
90.4547260699207
90.4725374302393
90.5169598210103
90.5757579941237
90.6259909966092
90.6700798395947
90.6893511284597
90.6647280327328
90.6966394646625
90.736995190243
90.7558016309938
90.7570272305458
90.7979149320025
90.8775755207222
90.9149442074922
90.8927239687192
90.9096604261049
90.929159110814
90.9467383441283
90.9262582640159
91.0528086604376
91.1715177232755
91.1197635103357
91.1326762021352
91.2376640653924
91.2741414245593
91.2749046444327
91.2743738410491
91.279822271771
91.3040940805995
91.3165828623275
91.3581155680385
91.4502431453685
91.520142747712
91.5424509737574
91.4965713749808
91.4995508827796
91.5259167308547
91.5300620045483
91.5349127348988
91.5920516371343
91.6580807801308
91.6567267467434
91.6302711269808
91.5659709276149
91.6080136088345
91.7341188915759
91.8473605549588
91.8961371104397
91.8217181665274
91.8025556681458
91.8877261799465
91.9180698641335
91.8726144194544
91.8335088298709
91.8062359388252
91.8703033449176
91.9425402227796
91.9774298573742
92.00622152317
92.0428424935062
92.0841231176243
92.1388529074272
92.0738453975898
92.034696171284
92.0648608987797
92.1367429064164
92.1218517028195
92.0379652649082
92.0048728266776
92.0543856845433
92.226621469608
92.3091381265286
92.233321871166
92.2224010676763
92.2520364987945
92.2203692647417
92.2573493407691
92.2640756259984
92.2312036320399
92.2825825968658
92.3260898995341
92.2432798258638
92.2324416173976
92.2606756175826
92.1802657177693
92.2386619627326
92.3405646118365
92.3779343242021
92.4474601458142
92.4289207607408
92.4419088864547
92.4623148309288
92.3145235238423
92.3180910888809
92.4339731576331
92.3964233033721
92.3305859716575
92.4256947676958
92.5148721771047
92.5189805652029
92.5093506922127
92.4968535317135
92.4783075567284
92.4720601112383
92.4878740130055
92.527769486013
92.519478617769
92.5090226004526
92.5767501245646
92.7164262937768
92.7575966712434
92.6709130887927
92.6454544076813
92.6277001972331
92.6392273751751
92.6551064166994
92.6451189504149
92.7420335248731
92.7884786153299
92.6896965515091
92.6480264718886
92.6980617066071
92.6908376336559
92.7723682011888
92.8388695403202
92.7989606924782
92.7369507434712
92.7057319203211
92.7064474891432
92.8022690496617
92.827538484105
92.7997113038467
92.8061599702483
92.7776926148285
92.7561719717398
92.762432841734
92.7266565469816
92.7530550766363
92.8184560020149
92.7811644833837
92.7357405396114
92.7333439156573
92.7526605819414
92.808183631612
92.8172463761135
92.7957955338185
92.8433890021827
92.8340938689122
92.84263308345
92.8686743770508
92.7628465395516
92.7820448236083
92.9454909132029
93.0335615958154
92.9355372849019
92.9334013765565
92.9901606373341
92.9886850595043
93.0124709171743
92.9456627188486
92.8520474110758
92.8057656593815
92.7902374243481
92.8083387289491
92.8057529305016
92.766039945294
92.7832147056971
92.794159234944
92.78373866874
92.8009477422531
92.8594433045427
92.8206818573816
92.6566309396159
92.5672755728618
92.6859593449715
92.7704369492842
92.7857349387624
92.8076951223409
92.8215107567901
92.8037867144318
92.8578738513846
92.9083545479329
92.9146998941571
92.8716916766435
92.8823496336766
92.8798066103669
92.8908086081007
92.9556340187243
93.0469220033758
93.0206374547535
92.9499822358467
92.9387492684158
92.8668235872244
92.8972256556923
93.1197976388968
93.2658304237153
93.4027637071478
93.4960951696147
93.4730893752175
93.4707012866779
93.4964742308562
93.4441399807044
93.5067372877395
93.6648539267156
93.6221198678251
93.6143176451533
93.758515915583
93.9398847670716
93.9994640440614
93.8962140957994
93.9020481758131
94.1398634769785
94.2631040707411
94.3097075999575
94.3227131218862
94.163042400764
94.115370936236
94.2445842004636
94.3629264800594
94.3941082420073
94.4192930535249
94.5401870877459
94.6609854954771
94.5538117414643
94.5306657790908
94.6281855165589
94.8245405067143
94.98813508517
94.8865834203746
94.6562352465804
94.8744061888347
95.2122426254469
95.2148026735223
95.0227503814925
94.9442682302122
94.9838445781446
95.0850458900605
95.1504942759661
95.2114572372326
95.3324794028777
95.4234826226242
95.5929004266745
95.6627165430206
95.5808705328053
95.5125259541355
95.8758319100204
96.0216162788341
95.8825619275012
95.8203795777595
96.1319346388373
96.1408976899475
96.0953420782765
96.3000695682837
96.1569524171522
96.1094804594176
96.1922469349274
96.1627370763281
96.4454804274906
96.9367901622024
96.9219650678872
96.7771571696173
97.0441947100485
97.5129798580096
97.6363604524968
97.3820896682963
96.8650743759713
96.388575197722
96.2582068808486
95.9702829197643
96.0010659320269
96.2623614235469
95.9074585440783
95.6593603665951
95.8289622542547
95.8056603979125
95.5575069875583
95.3619521930034
95.2328025642658
95.1854101463971
94.993720532368
94.7594141750462
94.7257648975099
94.8490498304509
94.8579933862465
94.681492985474
94.6159309825804
94.6551901902243
94.7393670702251
94.6042587516139
94.3849052090445
94.4530904958681
94.6248725879755
94.7451622262179
94.730917697471
94.596477172279
94.7115911245235
94.8234697345171
94.853282602617
94.7716787474686
94.7422424433522
94.8892695170534
94.9036781337786
94.6740537116292
94.713712705785
94.9120668207611
95.0348580923383
95.0376741860337
95.0316897451248
95.0763908974807
95.0625988792712
95.1696258670036
95.2501766173677
95.2202029978441
95.2150734555861
95.2497175675035
95.4422891476382
95.8452163360363
95.9840498732977
95.7936707045364
95.6221290349772
95.710145591128
96.204887109491
96.6956248741905
96.7930129718326
96.6320290954277
96.6843103795868
97.018967220024
96.9055180357435
96.7469569548836
96.7689208886013
96.9228654922427
97.3622732945008
97.8874934964111
98.0260077317418
97.9500561924777
97.8731850021961
97.6798147019079
97.1751826597856
96.7850149907144
96.9423381576495
97.1969475629956
97.0550905187156
97.1118335817566
97.314299003704
97.2398576861477
96.7725256644784
96.7727091528709
96.9049718042379
96.5644820333213
96.2310464723142
96.4809666338631
96.6670929702942
96.7190126504753
96.6466885495145
96.3977425175476
96.3483234046646
96.6364728489734
97.1345444296874
97.4373194989759
97.5093245861182
97.3185948523146
97.3489242380528
97.5957716530672
97.3352337422324
97.0545544426022
96.9468069775209
96.8379358678351
96.5692648340217
96.5095701222374
96.4193655625505
96.2521202084258
96.2013515524787
96.2350077247115
96.2248899784152
96.0658942499182
95.966409709079
95.9746843888457
96.0134889319872
96.0245604125377
95.9098519381407
95.6949231738658
95.5646508567044
95.7345693491124
95.8843982176933
95.654094952288
95.5653582425271
95.5782127015429
95.3402662037298
95.2786432147845
95.3747222025374
95.3157538696267
95.3069532082355
95.4149208454821
95.2931190315955
95.2407155343674
95.2597435683369
95.1689066934633
95.1780426605923
95.2322888325453
95.1997714817534
95.1462384123943
95.0948070357595
95.0376503920732
95.015475340184
95.0767114822792
94.9964513147384
94.9758888460203
95.1046515720199
95.1551576950802
95.1047767600807
95.1627902513335
95.1482327294984
94.9778435801801
94.9631600534372
94.9686292804497
94.967004406297
94.9652767594911
94.9768031527234
95.0188653964713
94.9922607201054
95.0178394684758
95.0609588329177
94.9810844525664
94.8619845745667
94.8730051101919
94.9505630637428
95.0245668466007
95.0430804663851
95.0161516555186
94.9933528993445
95.0283153265053
95.1355696227718
95.175880447716
95.1201253957329
95.0734011159773
95.0119740741069
94.9619165184307
94.9401999858539
95.007782601001
95.1063418061258
95.1014771789479
95.0869973737666
95.1130064512691
95.0973560887006
95.0748509579756
95.0876660227812
95.0809860184465
95.0836172014241
95.084556972466
95.0263634314139
95.013754210338
95.0497916890583
95.0271741245239
95.0328863047002
95.0990296515917
95.1103342920659
95.082304418053
95.0200455677044
95.0114777645486
95.0745999243773
95.0893456737507
95.0726499616571
95.0417464631828
95.0256017700834
95.0526126263891
95.0600602620826
95.0518941441185
94.9996796606901
94.9165943610872
94.9028350693218
94.920083936122
94.8545553621131
94.8140248011276
94.8050441645153
94.7663458913425
94.674226998857
94.5590684014697
94.5154283826718
94.5328305162037
94.4582139937806
94.3239090110259
94.2266197412942
94.199549416988
94.1306515028456
94.026088525434
93.9459444634519
93.848218298531
93.7825406160341
93.6976559075094
93.5379225828839
93.5047944202777
93.417846809485
93.3162277117195
93.2197514398388
93.0951362777453
92.9818488450249
92.8358616206651
92.6061863657214
92.3765994593526
92.2185810279087
92.0142189185607
91.8234184636578
91.5769139900272
91.2609480235249
90.9352883499995
90.5966749433715
90.3355585354445
89.9595511101921
89.556549166339
89.259564775269
88.7678252615269
88.3812219383582
88.0257557879204
87.5779482532843
87.1690784951254
86.7723281636222
86.1557911300282
85.6825979458354
85.422215324252
85.055415110535
84.6346989469536
84.1310255325642
83.7931244140842
83.4118163726904
82.9099768164349
82.556526073489
82.3074983274438
81.9106201950637
81.4489229896871
81.1635356581811
80.9058197040436
80.5906657048645
80.0905859889868
79.4603438363234
79.5700092782964
79.5088925165063
79.1293845020222
78.9133976261149
78.8334432012621
78.6595856871472
78.4139422984873
78.0842653841122
77.61777920691
77.4708231516339
77.5373793638032
77.4122638611089
77.1672603550902
76.9437047267964
76.757984423461
76.5273567212077
76.4370167291433
76.2747793174396
75.9033231625041
75.7133078531254
75.6805719986824
75.485027701805
75.2307649791171
74.9851374544921
74.7853326878388
74.5775409424122
74.3731892627227
74.1727430928374
73.9976902718422
73.7871376446232
73.574111759169
73.3996938574379
73.220752361328
72.9976631307608
72.7930590524675
72.5565231769039
72.3254332144863
72.1107261755039
71.9056682641118
71.5780460258782
71.1329879424346
71.0529203680367
71.0615904790799
70.7258351574717
70.4050846241539
70.3901451309167
70.3605619149367
70.3318271327163
70.1235634998304
69.4803205407031
69.9495999811422
70.7039202458759
70.9798952875272
71.2102006367261
71.4015051751648
71.7047772769503
71.911154056083
71.9974925925207
72.2482199381219
72.4045449872518
73.2173646636828
74.1460001581414
74.3266450848676
74.3850228075625
74.9266484453544
75.2257485457714
75.3328205715116
75.5593352070266
75.8773796823956
75.9428118328389
76.4400402799659
76.92021850706
77.0600009592581
77.4118682401582
77.6542150675918
77.7955977487764
77.7868452857376
77.6027753286194
78.6453092501717
79.572324204949
79.725701617089
79.6869085497348
79.708256163108
80.0500278375784
80.6046962219184
80.7431280456302
80.6573050280554
80.9233681431592
81.3954861868222
81.7158721436179
81.8365316836197
81.8860433265176
81.9789755273779
81.9305034432822
81.8123337490043
81.6539242056255
81.6081244542071
81.7606851310733
81.6222797106408
81.2647254316321
80.921944059205
80.8099647455095
80.5967998205649
80.1038880942572
79.634903067151
79.8574347650973
79.9594786638259
79.824585121071
79.589242708092
79.3935275438034
79.3991292790735
79.4144964156693
79.355718766012
79.2696779483457
79.0624355050918
78.9488355199864
79.1740111205012
79.1832033476824
78.9583759421802
78.7241973377865
78.5480072543382
78.2558073726924
77.899777611938
77.565495534009
77.0504064472054
76.5981444844914
76.3086266857205
75.8818256441023
75.324819822623
74.7286463208351
74.1760358821433
73.6626574041005
73.1915162475686
72.8886221512
72.6302554073114
72.3456819060001
72.2393269114363
72.1668287029372
72.1868373426238
72.3033172264642
72.2761032629276
72.1745034647624
72.2386717796555
72.4012735213952
72.4858760545984
72.553392889787
72.6415205695461
72.7272368629486
72.7522183124216
72.9175223047321
73.1559877453458
73.2715058954503
73.4066659687319
73.5494984503724
73.6086661891132
73.801962635057
74.1345925180708
74.3502299516259
74.4608029200493
74.5855636851142
74.7507143877148
74.899825933832
75.0370694361513
75.1750965560859
75.3243067682992
75.470407745673
75.5506379191753
75.6722919701113
75.9356136758923
76.1889635202508
76.3310170773557
76.4029444373137
76.4768649918631
76.5535900105278
76.6132313195405
76.6478061658615
76.6664902917611
76.6617240629302
76.6266978808459
76.6218764284686
76.6327605390675
76.6185838985772
76.6122548792378
76.625344711839
76.6444358829669
76.683049563975
76.7323713513328
76.7976158008132
76.9109454267921
77.0189088990194
77.1441619119597
77.3089562263135
77.4534785480891
77.583537353849
77.7283623526487
77.8696460195879
77.9929859953307
78.0999952700729
78.1795886482675
78.2359341435493
78.3210426425291
78.3914801535955
78.4312122753965
78.4543453163129
78.4855170466395
78.5384373875344
78.5937607412704
78.6289794244101
78.6462264262987
78.6619965026906
78.705585112951
78.760305186191
78.7925304309406
78.7903024187345
78.7958451919706
78.8468916420926
78.8885581179358
78.8963014386273
78.8927623676648
78.8854593770844
78.9075524724084
78.9333428186901
78.9388497632057
78.9229960960178
78.935339272221
78.9749680965885
79.0073460122211
79.0218925851121
79.0653255181784
79.1389473703701
79.2067702555091
79.2866850291771
79.3956335157723
79.4873406969498
79.6002903106353
79.7343113371815
79.8729839797189
80.0193516238198
80.1618292059057
80.3179342210825
80.469386822673
80.5896844580539
80.7067347469846
80.8481557605972
80.9944426843392
81.1225217721991
81.2413754731282
81.3614482682551
81.4718438985475
81.5635035745618
81.6350812786296
81.6503943842667
81.641112917455
81.629566539214
81.5982737361193
81.5308512422247
81.4409492206211
81.3252164457127
81.1985924669282
81.0903762321664
80.9641046891141
80.8338407352447
80.7028023538691
80.5528676327785
80.4087036563293
80.2473615069693
80.0591265522251
79.8602631392386
79.6629728518999
79.4589517677812
79.292669517873
79.120163845621
78.9466117020165
78.7532867569277
78.5819110571631
78.4050067306054
78.1808266911222
77.9743834857546
77.7776568213958
77.5802892708784
77.4066232632475
77.2548004944642
77.1117671862458
76.9882011039511
76.8853321749412
76.7854082113377
76.7076902717604
76.654499151514
76.5952361567169
76.5266956707842
76.4544339998583
76.3571442695452
76.2276334424356
76.0534337002335
75.8324787558206
75.6015164263036
75.383110540297
75.1687154616302
74.9467108961526
74.7031049157178
74.4839268891464
74.2639015782196
74.030854458666
73.8007635337777
73.5677150965637
73.3174361263092
73.0658043161721
72.8256336826783
72.5799706101502
72.3412165510475
72.0977374046236
71.8204655479403
71.5433637365404
71.2742725264558
70.9726333362846
70.690449311818
70.4551766898846
70.2047272424697
69.931772879751
69.6776439013845
69.496969683699
69.3683240933314
69.2290869542766
69.0944256235687
68.957663669976
68.8258208180342
68.7263353841784
68.6402021385979
68.5488241752306
68.4718005544545
68.4102904328556
68.3246804771012
68.2856261148921
68.2869064020802
68.2951388574072
68.3101335415099
68.3664970229839
68.4658709927571
68.5833848977652
68.7225798481971
68.9129782524545
69.1236958674867
69.3651630998908
69.6356790604375
69.9159001219141
70.1680100795166
70.3919852984344
70.6648507414821
70.9302010444002
71.1303821015963
71.3174618682874
71.5193269826101
71.7374963772995
71.9005551012457
72.0165440376847
72.0884302484142
72.1495522721033
72.2421256275547
72.3049037109316
72.3214843491028
72.363441885899
72.4356098998344
72.539387058672
72.6827301516146
72.879628910134
73.087276369316
73.3343670716034
73.6205586303088
73.8876722079274
74.1447141271136
74.423408624486
74.6432877991715
74.8383722882486
75.0837967998565
75.3527671991716
75.5835735324355
75.7780084119668
75.9794341897122
76.2068251977232
76.3836716405607
76.5405572532992
76.7333814743231
76.9330236349872
77.0997266015137
77.2352717663102
77.2940315449064
77.3435903407287
77.427275683049
77.4935303519024
77.5246258982361
77.5798110986439
77.6327746845031
77.6936537049862
77.7390471459186
77.7811783765008
77.8453653794591
77.9401711857828
78.0286685115906
78.1535184649373
78.2731147408453
78.3798488648654
78.5056730476082
78.6014064306729
78.6662722424623
78.7268735250843
78.7983093337144
78.8950002860378
78.9827257811316
79.0264564174237
79.0490783695382
79.0932151273373
79.1354281137659
79.1988740046343
79.26008166439
79.3201269512984
79.3464672028087
79.3784285879906
79.4412501084371
79.4792598822468
79.5103297464897
79.5378236198413
79.5802443183471
79.645542697081
79.7025910764826
79.7471344582211
79.774874913742
79.7929946609085
79.7717536809373
79.7265422822627
79.6584201675949
79.5990389462767
79.4699813011572
79.2980690707193
79.1206811376118
78.948731390238
78.7622480794381
78.6564697514951
78.604161872337
78.5728923941237
78.5572552238969
78.6064506346349
78.6590253808477
78.6394588996493
78.614749995901
78.6282139002322
78.5875711387689
78.5620346713298
78.5027268002147
78.4240960009983
78.3299888839081
78.2214360390853
78.1231789692031
78.0965599999362
78.093368633513
78.0773872830188
78.0703677872833
78.0875734317667
78.0921775129109
78.0994460897673
78.0900951023332
78.0453701873095
78.0012427015874
77.9604795859839
77.8841282099506
77.8207806653424
77.7738105903888
77.7719207594376
77.7741151609027
77.731773751955
77.6126390280045
77.5527057917067
77.5453431578633
77.4620806229298
77.3476918223157
77.2671543665373
77.2060185949879
77.2128308181856
77.190115821028
77.126253375619
77.0903847767102
77.0042665924307
76.9170612084554
76.886384387956
76.8731616510909
76.8300769395827
76.740871675808
76.6935189835031
76.6468250108709
76.5806263867467
76.5284379571531
76.5430395446801
76.5126550465359
76.4337265813447
76.3885105454499
76.2903698096701
76.1554029593327
76.1031854438181
76.0149892089125
75.861117556587
75.7593183510315
75.7112568354454
75.6362577566836
75.4923865413699
75.3164892569743
75.1948460345027
75.091671437814
74.9965053210968
74.8664722234262
74.6942655196391
74.5216292149744
74.4355382630915
74.3682895819345
74.3311579498676
74.2877982551371
74.2223386082022
74.1252451462451
74.0454938329546
73.9667924498849
73.913785078169
73.7876377791666
73.6326625103463
73.4760788909961
73.3883152539685
73.3093448801528
73.2080565823431
73.1280166546757
73.02087562894
72.7793904788985
72.9493378118685
73.0155209578276
72.8591066265924
72.7605080784471
72.6986915621574
72.6161194198252
72.5555151888272
72.4661824888995
72.3297610136983
72.2342187023466
