1798
3999.43349933624
650.420452594757
1
128
4
93.1648070000286
93.1682399933869
93.1011804937192
93.0499382302945
93.012331884797
93.1155252689179
93.0871252424403
93.0744329395025
93.1522644226515
93.2224079050293
93.2464700122627
93.2789335965281
93.2376923065119
93.1729211999189
93.1000168300768
93.1488452860203
93.1761720642793
93.2279644340213
93.2705928804002
93.2810566697751
93.2600833620112
93.2821485155532
93.3023593782509
93.2188371556348
93.0746109596719
93.0764196197532
93.1360208905741
93.1933208338687
93.2338105128187
93.2667196284847
93.1461283755091
93.1671283537119
93.2660790202255
93.346922736672
93.310603075216
93.3394155702929
93.3049415594774
93.2693078107615
93.3102152928322
93.3992210344804
93.3369098638325
93.2744227021943
93.2256081967105
93.2585069373331
93.2560836095451
93.3068438106796
93.3608450985109
93.3583984844072
93.3306365413017
93.2976915733842
93.2718308468605
93.3299081888143
93.276595714383
93.3069695635638
93.4358122884671
93.4934740797676
93.4016539200366
93.4426265905781
93.4495646240683
93.3244129730706
93.2652496112434
93.3885946177716
93.4413376444271
93.3890919297774
93.3024586783786
93.3649829077282
93.4590041223558
93.3783113007858
93.2729632560171
93.4048828085511
93.3927650919903
93.4525434158816
93.5402221121878
93.6622517833314
93.6702129894387
93.6142860857432
93.4204202010617
93.3443196071831
93.4461903051223
93.5521078697371
93.5535527315932
93.5050736186487
93.4826748483046
93.481821808928
93.5054500867333
93.5419585474274
93.5797844463518
93.6219027024346
93.574030784624
93.5676961994052
93.5533068228777
93.5649353211642
93.624829899813
93.6381633478534
93.5316044032723
93.5535751338867
93.6149625980874
93.6785621598843
93.6938195701852
93.6335633041833
93.6996905115393
93.6936553549496
93.6467021382827
93.6500183586445
93.5836228168093
93.66661574394
93.6461239187864
93.5734506910807
93.7107284115546
93.8457147093283
93.7743426774258
93.6906183515751
93.7853009548849
93.7654075927671
93.6998077582943
93.7447904115998
93.6909576949771
93.7550114431772
93.8145210871227
93.7318372907782
93.6479307604622
93.6711574111644
93.7392214940873
93.7864347056437
93.7506088935089
93.8291063270394
93.8745198431763
93.8379993845453
93.9168903032708
93.99801672464
93.9524086282265
93.8293210541138
93.7693200864531
93.9758402437417
93.9799520347976
93.8600722986319
93.852840461622
93.9715503273506
94.0515011755492
94.0202004565096
93.902275419254
93.9266029185045
93.9205616605548
94.0126202041615
93.8807179594916
93.9233970504286
94.0511787440903
94.0414914191746
93.9824409473837
94.0771180700706
94.0977826698995
94.0952692282612
94.0378725129722
93.921318642791
94.0037684289737
94.0855087478925
94.0644418188034
94.1200163560156
94.0464717880017
94.0410049133766
94.0485482530436
93.9830110585439
94.0111010329419
94.1126393622633
94.2380721922521
94.2087533809822
93.9785721556441
94.0005057287187
94.2570374429008
94.4537269374826
94.4907951487462
94.2722476712078
93.9755094729893
93.9201592968039
94.0167022455901
94.0763760332968
94.0364521360793
94.0297373454164
94.0349282147777
94.1150242046539
94.0485341209861
93.9323960945736
93.9127311549855
93.9067795997227
93.9810008091013
94.0448342478722
93.9841533906475
93.9079258592687
93.8434456367446
93.7802619779034
93.6569374804235
93.633864859829
93.5651466989962
93.5084477807357
93.5409090881725
93.6335877198623
93.6447628019218
93.59653437014
93.4333247741884
93.1950322738399
93.1968358779379
93.2834200711286
93.1899049854023
93.1688941218471
93.1416213838297
93.0364840781317
92.9163521899656
92.8355304017743
92.6232039214278
92.6630985889772
92.7869264939677
92.6376753440593
92.4990271861882
92.5084882881066
92.2582620277672
91.9858315655256
91.9350516187862
92.1519040945738
92.1573309546294
91.8712733084689
91.8054076852495
91.9248578212283
91.7843858864343
91.5679247292098
91.4550243755604
91.412592190625
91.3782313638598
91.396202516027
91.2793757014614
91.0791721401211
90.9865969964881
91.0439654079717
90.9171940647537
90.7826348906775
90.4871577523501
90.3587505079933
90.27105544568
90.2029530240693
90.1090691689821
90.0270256050184
90.0634087508902
90.0476869072875
89.8133324474759
89.7420312149283
89.7265516279388
89.6554303007569
89.432104254423
89.2675020048446
89.143881790768
89.1251986371147
88.9657641767937
88.8633701276587
88.8274685155128
88.7791621875395
88.6785170522018
88.4861577675632
88.2884975874299
88.1671493600593
88.1140420741624
87.9739872018426
87.7365274045018
87.7316934379563
87.8256102654839
87.811098218142
87.5358926637045
87.3417052070239
87.2656690590171
87.1130891577227
86.9643293545974
86.8321410028649
86.6877961224008
86.6158874504583
86.5077604821249
86.3791938097203
86.2475074139143
86.2575841081991
86.1505576739651
86.0622295856765
85.9860794118919
85.9245785975633
85.8251813459789
85.7964421420273
85.7026133597707
85.5754296268457
85.4418480126171
85.2850900949814
85.1722111936574
85.0732669415426
84.9618550751037
84.9766221534894
84.8711283592642
84.7111776317594
84.55434033886
84.3817024048652
84.2135627327338
84.1534619797798
84.137333512886
84.1369452324625
84.0846915435013
84.0558450494022
83.923282160381
83.860997143292
83.714131327344
83.5249330127368
83.4399083841433
83.4210008942455
83.3126883225818
83.2631316773453
83.2077152126403
83.13017462738
82.9815896508687
82.9267421192485
82.9301932725433
82.9105581793009
82.762030640733
82.6551495829714
82.5827786170068
82.5042466013835
82.3281421176521
82.2448530102453
82.2211958609659
82.2170880962895
82.2027854722022
82.1790500696026
82.0314025942513
81.8824404010811
81.7840256814438
81.7927852719562
81.729356117383
81.669899076432
81.5870561978546
81.5505301322339
81.478827306216
81.4871873639298
81.4772620069756
81.402141608343
81.208307305242
81.0912063380216
81.0352852568493
81.0047714348451
80.9471461952088
80.9789437732152
80.9401020460251
80.9496145524468
80.9167784363944
80.9296454717161
80.8802863963418
80.7436261150977
80.5961772836006
80.5859944611933
80.5680660103451
80.5738975341381
80.5990200405496
80.6209072095674
80.5760246882483
80.4886860591356
80.3915744402432
80.3983409409509
80.360871525927
80.3645161540124
80.4096888061576
80.4262707177598
80.2823675824453
80.2517627717412
80.2643889132773
80.2659998902222
80.1362900951136
80.1724447790041
80.1716758506214
80.1034899084506
80.0581861059851
80.0725050909184
80.0637478723843
79.9961120141245
79.9272434524303
80.0004096689377
80.0149771015104
79.9981387228939
79.9304516867569
79.9262153624787
79.9215858435234
79.9435930717201
79.8953814870296
79.9047210795349
79.9656162451194
80.0104668486841
79.9358121330002
79.8863658759404
79.9661636879841
79.9330231865498
79.8474577584166
79.9480444929684
79.9373926400314
79.9249386165552
79.9398411133728
79.942429428112
79.9093368123206
79.9977960287954
79.9990820517249
79.9530222580563
79.9366376506997
80.0315384388058
80.112954400363
80.1621320846863
80.0830982057294
80.0630931874369
80.1121530083314
80.207900304916
80.1576551114876
80.1924810528761
80.2384066546809
80.3164165082772
80.3521703639167
80.3545940292105
80.3830453374597
80.4264799850422
80.3731772976759
80.4794286622223
80.5318532175951
80.5787088400637
80.6558832285442
80.6522788495782
80.6377954106559
80.7011151581667
80.6944762615428
80.7550729218615
80.8442350521951
80.8894196831533
80.9513892933875
81.0074519220334
80.913429198692
80.9509087900415
81.1013371609958
81.2132237954471
81.2500268435474
81.3292987043758
81.3388829331287
81.2991459157691
81.3836379637635
81.5397463354569
81.5830451794637
81.6674951749202
81.7095777612098
81.7308490919469
81.7781140112329
81.854321375661
81.8811557964389
82.0030377533609
82.0933460922711
82.1256501547588
82.162408876924
82.2710967312469
82.3606998647183
82.3554039008591
82.386908085328
82.5700785693041
82.6760995383449
82.7642763846745
82.749872320857
82.7749626885252
82.8612901116289
83.0025242857385
83.1063166972164
83.1613918988336
83.1819175467866
83.2542025193137
83.3079433950897
83.3399141309444
83.3631307133065
83.4503151054978
83.5281949254927
83.613518156378
83.6475449329153
83.6768170876768
83.798907503948
83.9472917338818
84.0129456955278
84.136015811895
84.1326848744186
84.140968573426
84.2247504216534
84.3311875935577
84.4119116139422
84.4450991918393
84.397144563622
84.444551253968
84.5215033770862
84.6329262080841
84.7556139597993
84.8264477968431
84.8843349648818
84.9375674755925
84.9026167637452
84.941333174988
85.0404176482851
85.1929169726399
85.2432054279188
85.2901097525116
85.3621311482662
85.4215654658663
85.4460916505363
85.4043697035469
85.3997153225435
85.5810999787847
85.68874090119
85.7528829502664
85.808151419825
85.8857300159101
85.963905333778
86.0219315072128
86.0114182443837
86.0896025416777
86.1496664800613
86.2282443445299
86.2988707608943
86.3063971548639
86.3226663295716
86.4140686042547
86.4750649610076
86.6031013150513
86.7128078302911
86.7549114286939
86.7673351469873
86.8468928663283
86.8276533742525
86.8461900793194
86.9043127184738
87.0206895066642
87.0980744631537
87.1008608728717
87.1216102773707
87.1838967448311
87.1712091495818
87.1965395186421
87.2394552597604
87.2704809434101
87.2936942169966
87.3664099006429
87.400815960672
87.4088014667341
87.4321166606706
87.4423297591736
87.3819046901378
87.3430794353059
87.3353893834649
87.3630572706527
87.3859266016351
87.3602686718395
87.2849804642497
87.294999296003
87.2735004190586
87.1702967850214
87.0930125865057
87.0617965204034
86.9658079865443
86.9143551387694
86.8678073697585
86.7806284861735
86.6849440256451
86.6352732039444
86.5403006379165
86.4668147222566
86.3768421598474
86.3101477750448
86.2472722152282
86.1904126253221
86.0572731214033
85.9324151342667
85.7746835176419
85.5885753290508
85.43119202908
85.2820661852105
85.1082320118785
85.0217833780405
84.9070088200472
84.8091848140081
84.6380470698519
84.5251627853186
84.4738321926277
84.4547578987522
84.5283099508727
84.6148573991146
84.6508896341099
84.7288451255904
84.8176274381006
84.904454751037
84.9609261659169
85.0477276691873
85.1167882500952
85.1584593383195
85.1956893529692
85.2663067359735
85.3064577950099
85.3585379523969
85.391589368563
85.3946787407686
85.3730134501581
85.4595391676118
85.5306636560525
85.5221069749141
85.4738103174866
85.5304976192765
85.6053206822826
85.610661862965
85.6089198171302
85.7088997879076
85.7590527895737
85.7456792276609
85.8231442767944
85.9355549936577
85.9480303249457
85.97742404283
85.988326269403
85.9747034011182
85.9825222078492
86.0206853493325
86.044312506712
86.0864002317998
86.1378446137154
86.2928610568403
86.4784147920407
86.6103129933484
86.6968536662795
86.8515040118344
87.0528491549137
87.1957922404952
87.2137724099529
87.2993298516047
87.3441635721731
87.4103871291228
87.491811570407
87.5835845498521
87.6696072728466
87.7455638343221
87.7574658889478
87.8033398955914
87.8367779642248
87.8736533180156
87.9639876742647
88.0856494865323
88.1360561351195
88.1319496762782
88.1150070261607
88.1485738344387
88.1712262820243
88.2470118827446
88.3074488226876
88.3362129118824
88.3531337107086
88.4393885247394
88.5136811368944
88.4760901068884
88.429860929581
88.4602551998802
88.5225648347507
88.574585476131
88.5951011676427
88.6463014783334
88.6620358413584
88.6513448096122
88.671343541761
88.7787526996632
88.8340535917691
88.8014514142197
88.7889434989429
88.824371210092
88.8385234591804
88.8592009241488
88.860638188984
88.892130531037
88.9222731142917
88.9810767054159
89.0340079501478
89.0630543559338
89.0496046374859
89.0448266207492
89.0330956815235
89.0491749185026
89.0861425673412
89.084863983628
89.0678420398484
89.0391616700987
89.0904185326217
89.1986266893134
89.2190608099619
89.1964644931129
89.2360271623935
89.2809887364593
89.3073484996338
89.2741190670529
89.262554193708
89.3070963020465
89.3358869608291
89.3244886152043
89.3289708899237
89.364793727696
89.3833476477078
89.4124347259899
89.415826592755
89.4485506974384
89.4834726284195
89.4623187616801
89.4505974273449
89.4922620373113
89.5358439404417
89.5774116327157
89.580691047465
89.5901041054464
89.5827043512649
89.615824067479
89.6907817305495
89.7633983948441
89.737297049811
89.6738205040529
89.6831328546198
89.7390633934562
89.733050594773
89.7072828570509
89.7366192833578
89.7606682434801
89.7569082431739
89.7656005090218
89.7713867470607
89.8002832342418
89.8492676639445
89.9439366996579
89.9650647607305
89.9399338321014
89.9338339895911
89.9465026995485
89.8968217556709
89.9308448634769
89.9970169549188
90.055507987335
90.1436824473959
90.1910470047845
90.2087103369901
90.2742584967636
90.3307031262002
90.3608182825865
90.393632915091
90.4247569228711
90.4395634641999
90.5087486719882
90.5455010648077
90.5234604672338
90.5254652633751
90.5911857980685
90.6370230037467
90.6567202043494
90.6614714744636
90.6867410247562
90.7124120656131
90.7268390062119
90.7211290160251
90.7918949857069
90.8914978565197
90.8691974291931
90.8245400693611
90.9567739453507
91.0273146549315
90.9771769224282
90.9796655925976
91.0488111108423
91.0739491356009
91.0911128528963
91.0475784831742
91.0396805476157
91.1018250890644
91.1890517773531
91.1718385913946
91.1669726762985
91.2105600938662
91.1995473683784
91.2287337482823
91.3478229992482
91.3835585279776
91.3687513151905
91.3524517992896
91.3124301667397
91.3248496461093
91.3730639022701
91.3708148050938
91.3781396302845
91.4126633531633
91.4771733444577
91.534480473974
91.5634252500543
91.4560784601996
91.4199008535363
91.5294925499538
91.5502788933253
91.526834547977
91.5666446081382
91.6409843392857
91.621888006046
91.5472320364225
91.5429223348267
91.4958705526819
91.446435496944
91.5166997721246
91.6474544347008
91.6762916077212
91.6106844775754
91.6067709745093
91.599470249428
91.6787362307285
91.6867346363218
91.6011136524916
91.6810775070935
91.7572838135343
91.7501579013511
91.7325847472973
91.7693010030515
91.8012784510257
91.7393785938978
91.7349269392277
91.7451315812847
91.7084514822508
91.7363752696769
91.7900442030106
91.8081739939252
91.8106577931922
91.8451614218203
91.9130829577425
91.9013625011121
91.9021408549585
91.8987194092369
91.8951288298329
91.9515612372597
92.0142247500211
91.9598200576863
91.8721599215695
91.8964473952009
91.9367207061393
92.0035989085509
92.0401680011255
92.0386657751944
92.0362410490679
92.0658385385612
92.0911160429823
92.0904025459753
92.0570851451179
92.1365452774693
92.2064013328724
92.1689344699038
92.1064077647991
92.1253405773605
92.1588323503782
92.1736595597885
92.1481736137103
92.0947736993451
92.1600424389161
92.2278678570652
92.2040675966456
92.2037602042528
92.1930073037587
92.2177172812294
92.178431997352
92.1262612927542
92.1302159366809
92.2056151806839
92.2570443957281
92.215448676866
92.1802453903306
92.170597309076
92.1459065814151
92.1464380038381
92.154661933701
92.1869455565794
92.23506304206
92.2469479991753
92.226581210598
92.2642431954353
92.3004396946636
92.3533990177035
92.3765197071629
92.323869499694
92.3675073011768
92.4768138449584
92.4438419914579
92.333552948377
92.3452599778223
92.4328264294127
92.4437491926583
92.3709918160811
92.2428528372863
92.1949083392088
92.2436775886237
92.3061291410215
92.1951860933593
92.1615955576205
92.1860673715242
92.1315999555072
92.163806088369
92.1877072176131
92.2573326213579
92.2639120853912
92.1189425007266
92.0248134150791
92.0678029714586
92.1904147005946
92.2548158321863
92.2582593229732
92.2848901040763
92.3744244098886
92.463171578231
92.5217705639129
92.4922845978529
92.4342387585838
92.3814374949182
92.4038254755082
92.5106877682582
92.591333305226
92.5882229867631
92.5929573139714
92.6680222929894
92.6917028315756
92.6130413735919
92.582671754854
92.7485712731676
92.8667213675266
92.8496602491259
92.8213981285774
93.0230634635491
93.0711943911599
93.1586860583773
93.3278761259274
93.3146367996486
93.2510613649926
93.2696773808615
93.4198997077646
93.4883780634292
93.4302753145892
93.5193353689465
93.6904321246956
93.8509473200542
93.918634532215
93.9199912622653
93.8363654721063
93.9781480360046
93.9982395641883
93.910598541004
93.886341064624
93.9120928964691
94.1382789571045
94.3906332655435
94.5446408313751
94.3525343123454
94.2335705189383
94.4293539007487
94.5132178430964
94.5432711113476
94.5294538955564
94.6220687000747
94.8029444656379
94.9062977042851
94.9580844519462
94.8389689484352
94.956538100861
95.2256240282126
95.1254367614496
95.1313083312216
95.3634505353564
95.3926569643347
95.2260757495523
95.3674011381943
95.644322119692
95.4978286677502
95.4155988235014
95.8194850545242
96.1845639959229
95.8540781332235
95.826491936483
96.098845708992
95.9463760909551
95.9172051645322
96.0534520470191
96.439475684775
96.6025207902153
96.4556187689601
96.4653909925469
96.6083931721495
96.6592037158637
96.8996158490199
97.1605942932265
97.0611783106556
97.1359851797792
97.4722833033815
97.4357145590613
97.1813904624725
96.9988688372867
96.986006452766
96.50905092379
95.8771988697953
95.8946116957577
95.9723964734648
95.8612947417431
95.7769295849851
95.5991486373232
95.4192075553088
95.1416877566188
95.1176015625397
95.2496693267204
94.9917503170899
94.6606909607206
94.6321364695537
94.498424788591
94.4252554003131
94.3765784687528
94.269910525873
94.2292496394671
94.3360954235924
94.4304163085937
94.5672625994001
94.5683346005347
94.5317765321533
94.4178167123309
94.3949252700853
94.4366079872739
94.4006616661775
94.5409199392391
94.6110216370794
94.5247442854774
94.6159045604757
94.6995111349208
94.6417009737291
94.5884429909223
94.6063230959414
94.7369834899505
94.9130482324698
95.0144531598508
95.0029521267414
94.9441436106614
95.1696943015739
95.2163751774465
95.1902351133379
95.1411348907842
95.1293553734642
95.2879513776062
95.4787079474126
95.7541726872105
95.8304213259338
95.8165898267697
95.9812222343797
95.9674090326404
95.9488966882743
96.2302954305213
96.4616953459488
96.8741101244427
97.2285552025498
97.3033202151895
96.9768858850261
96.9812738503494
97.8575311038477
98.3512404555138
97.8577684064173
97.4260215897689
97.7726838039556
97.9145994428857
97.9964068737105
97.6251399843545
97.4636963825433
97.7004269128448
97.62366469031
97.477129045092
97.4430820922756
97.3224202441589
97.3486308145507
97.7579630362521
98.0027275041519
97.6521465260926
97.0477516481556
96.5668398731996
96.5545932653201
96.6388423760639
96.6326438027207
96.6107529091575
96.7671112425361
96.9107970423299
96.8900382097523
97.0161408007132
97.1729993077051
97.4860064496987
97.7279617781418
97.5464493458957
97.6237335965974
97.680733771669
97.0082570805871
96.7280537452978
97.0971323560506
97.0713250802222
96.9321133249913
96.7797001071434
96.5702878090056
96.2464758647648
96.1652877178241
96.2028219891317
96.1789654659785
96.2216630091846
96.1609074499512
95.9196624402451
95.8064338312449
95.7526176284217
95.4116469441359
95.2426755609641
95.4031335353536
95.4518770158698
95.3835016661062
95.1735334987743
95.0550368425305
95.0895727443887
95.0840197177224
95.1163053512443
95.1559484311841
95.0321776730529
95.038082641742
94.9740708147656
94.8534752849973
94.7843764537856
94.8572017527303
94.8827718229685
94.7662017767484
94.6121757773378
94.6778129769691
94.7238662817653
94.6892349006027
94.6358663343193
94.6234151941798
94.7050751406114
94.6223398148905
94.5903523266809
94.6706237106222
94.5984468376217
94.5168403206541
94.5651283002821
94.6303484429916
94.595251325229
94.5460384787222
94.5701340045355
94.5650963941662
94.510035744745
94.5092549457818
94.5055443344685
94.495684259094
94.4680715645229
94.50987481032
94.4948217485789
94.3902258358478
94.3811361250095
94.4776531142982
94.5017106813253
94.4436936141007
94.4060143746983
94.4861528098489
94.4952484036042
94.5062379060014
94.5612299091242
94.5633263260931
94.5092861641994
94.446610906286
94.4189797793892
94.4363641510358
94.3860851968168
94.3957938319082
94.4118341183852
94.3845367201233
94.3863495772536
94.3900770424421
94.4080000683885
94.4320382673226
94.4639467634242
94.4455516101713
94.3806781025896
94.3598974111107
94.3943770223018
94.3823384624737
94.3499411247549
94.3512268420618
94.3382501849461
94.3653395904513
94.3551895077523
94.3323902074456
94.3564714109811
94.3963899574965
94.4541921186866
94.4479867569302
94.3792630513047
94.3595695636158
94.3668595115569
94.3966266146561
94.415350839009
94.375170718094
94.3796268187392
94.3855759566458
94.3567679660842
94.3832505526069
94.4109502810912
94.4132575812747
94.281273538479
94.175141190131
94.1621636214209
94.0931055298633
93.9659307059244
93.8683379425562
93.6817431209078
93.5278052611049
93.3781461457309
93.1666256391502
92.9512199636345
92.759621229501
92.536217453256
92.3382671115789
92.2165883978248
92.0119270640437
91.812463410708
91.907687367351
91.9082057966569
91.8251506647188
91.7211138729481
91.6645403166626
91.6429576982986
91.6402861893976
91.5500385137927
91.55674508
91.7182067729165
91.8074793488006
91.7689084563728
91.6831495563214
91.5459429569261
91.4366571638123
91.4039515334887
91.3176818818069
91.1358933552625
91.1312674244764
90.9435382447648
90.7894459516869
90.6256894953701
90.3435247015135
90.0937836372036
89.8755895722643
89.5146574225353
89.2973950245862
89.3085442273963
89.0820237497367
88.7426721999572
88.3704795909439
88.1249495755494
87.9215886779611
87.5922944709035
87.3354161561784
87.156971142842
86.8264101507
86.4717988418811
86.2980950118718
86.0992724302046
85.8173597923683
85.4206102091059
84.948488953142
85.1417569961286
85.337072904026
84.8933570458708
84.5564993796706
84.5721904559866
84.4812741661251
84.2114306381299
83.9385784597017
83.6132220440215
83.5080980488422
83.7587921096801
83.6737843409874
83.4307364893957
83.2639589623372
83.216946985944
83.1151160296031
83.1944052185853
83.3783165322127
83.2366548204893
83.073115164866
83.2907326500676
83.3664447315623
83.2430530119985
83.1283103365739
83.0576835485779
83.040803805032
83.0095399180582
82.9724469238808
82.9659645716497
83.0141818985123
83.0336531047744
83.102160256702
83.2208451042239
83.339901905126
83.4726353319894
83.6406553512344
83.8134765877098
83.992219271091
84.1614376921073
84.2981260856737
84.2547248658965
84.3985529358327
84.9081800233223
85.0161688197019
84.9271976200229
85.1506706878842
85.3501054478194
85.3952011058756
85.463244683282
85.2199287586615
84.9830916660551
85.7712601279671
86.0038391306866
85.9195492452377
85.8646759169662
85.7811783753477
85.8156053299564
85.7654897903395
85.7311526464033
85.6835860458569
85.6341321363476
86.0611153133399
86.3203655428311
86.0733247029254
85.9979494262565
86.2066072842947
86.1449160091242
85.9981592582629
85.9608273228847
85.8950571089319
85.7169796880521
85.7338428293647
85.6018244489121
85.4546791881779
85.4201970114754
85.2828103198351
85.2113317666271
85.0919627122431
85.063888607246
85.7870543417482
86.0702867610295
85.9092072142262
85.76964145508
85.768093343157
86.050730373799
86.3305180703307
86.2514042141496
86.1492251071755
86.3274404133793
86.5313057234635
86.5778328591428
86.4726553790281
86.391132908559
86.3238759443782
86.1290163658291
85.9393524449816
85.6972028405062
85.5297319250059
85.3361281217087
84.905163530493
84.4358165083471
84.1828598741178
84.0487439478576
83.7492959348776
83.3732881922749
83.2937283900927
83.6036083392227
83.4566180042718
83.1904875114297
82.9532308177988
82.8534689096184
82.8326002259014
82.7269498741113
82.5802134409763
82.4001382893017
82.0963662610344
81.9664299003144
81.9782224766138
81.7081469067706
81.3634637296632
81.1114980290326
80.8797156971137
80.5839314664943
80.374181180163
80.108934154124
79.82770382126
79.8919859891615
79.8874515103926
79.7314334476855
79.5666082126036
79.4678649958397
79.4143355889719
79.3516906791535
79.4001442719156
79.5306010274543
79.4840133409116
79.4665732753927
79.5849122947074
79.6411284847802
79.8493477873439
79.9358827781431
79.8143987021868
79.7057368686075
79.8057038152222
79.8687486959759
79.7850447266208
79.7000837885076
79.669304648179
79.6361620536287
79.6225366828753
79.7896108323007
79.9370663047726
79.9892976747555
80.1160689891443
80.2123095725312
80.2531067831328
80.4787371056947
80.7820692208767
80.9430525005929
81.0439892219657
81.1860111635121
81.3706794299135
81.5313713708444
81.6667824613282
81.8171422196787
81.9739765593792
82.0978980257202
82.1400959121801
82.2380251892804
82.4638693757495
82.6110983277808
82.6872418232596
82.7434370567475
82.7881864196846
82.8454279357346
82.8823633731049
82.9027088701005
82.9396306731474
82.9736068696086
83.0216852439634
83.0846480504026
83.1207327967723
83.1578624567543
83.2095214049165
83.2370599914619
83.2656288148367
83.3296877515096
83.3977807151484
83.4546108374138
83.501172301395
83.5443785486712
83.5946813995269
83.6420963540936
83.6871704651283
83.7105413966765
83.7173957761477
83.7295843739993
83.7422251937146
83.7234507982542
83.6825595557425
83.6136203392115
83.530394389831
83.4704160640724
83.4006773159907
83.2965415923301
83.1983810048744
83.0952924979314
82.9809324263162
82.8619600025154
82.724803252633
82.5903494006453
82.4654283366563
82.3338333717029
82.2111228128566
82.1100613465307
82.0471741415202
81.9994259371999
81.9364912111244
81.8861872715152
81.8971214306946
81.9402395397084
81.9646949572898
81.9953233171692
82.0709767343148
82.1703883065985
82.2738690588606
82.3857298896201
82.4836696935776
82.5763093696888
82.7004557067453
82.8253975325876
82.9296449802807
82.9904985195082
83.0741908376406
83.1977495942602
83.3101732032641
83.4044990673789
83.5070415546222
83.6292494742889
83.7340119770175
83.8432052717961
83.9607516707458
84.097493212568
84.2546408730276
84.3898563698268
84.5195136981204
84.6311700921529
84.6953146475182
84.7034350434684
84.6604670168933
84.5607848900363
84.4117581762952
84.2177081380009
83.9780552613776
83.6928780520697
83.3855054130161
83.0711080340058
82.7225562846612
82.3288572115281
81.9244454613453
81.4827714637702
81.0021908931653
80.4757451467991
79.9308716049134
79.4048542457715
78.9038632558323
78.4311787246524
77.995912546769
77.6097377898004
77.3043136301884
77.0523878410238
76.8368015928974
76.6444073478803
76.4881768055253
76.3781754533795
76.235783879782
76.0420991149795
75.8044520222048
75.4845029087999
75.1271828210471
74.7475598894364
74.3271826375836
73.9097587878374
73.5059059261833
73.1169870919447
72.7685260764129
72.4143441062591
72.0453633513966
71.7064527493673
71.3935915920425
71.0460876048016
70.6391726391144
70.2468645827135
69.8613415133383
69.4596628313405
69.0288396801663
68.580695010468
68.1525510726721
67.704705686438
67.2086520259797
66.7052975883882
66.1913210942436
65.6276841427614
65.012352596454
64.3730126464602
63.7093677262522
63.0158691088199
62.3356381284522
61.6811573007978
61.0660026149603
60.5281400690275
60.0926057974783
59.6891153250339
59.3516220903433
59.0865454147906
58.8230747015733
58.5078560008119
58.1893119501879
57.8277281197707
57.4192671795485
56.9818709886471
56.4945204341697
55.9561316024235
55.4174209759416
54.8539107717096
54.2693663408897
53.6818837170719
53.1370726247639
52.6334108722012
52.1936128983468
51.811417799927
51.4843621725418
51.2261932966401
51.034566441274
50.8583406603879
50.7191587332941
50.6008744345424
50.5081285524034
50.4649862631098
50.4841430026649
50.5701170414492
50.7252870021875
50.9323034513766
51.2148039973093
51.55240834187
51.9384376926108
52.3495559460577
52.7971448214588
53.244576574853
53.6692888189082
54.0596097767706
54.4691847092871
54.8819365350178
55.2760033019516
55.6621921379864
56.0559655869484
56.4836704989015
56.9726579998816
57.4361795988142
57.8789624015701
58.3233354118978
58.7783408035157
59.2234881019039
59.7068434335858
60.1765030107386
60.6673366562246
61.1592297541387
61.6462475769495
62.1431338529694
62.6488832167276
63.1096681755559
63.5693415076482
64.0393378933339
64.5268878200962
65.0271820559175
65.5345886558952
65.9994085855165
66.4806488638262
66.9799319044018
67.4684162128962
67.9405411510938
68.4468506535845
68.9627706896756
69.4434663704068
69.8626319407707
70.2719625927683
70.6770154128864
71.051971989217
71.3939761858064
71.6993286870879
71.9568670985415
72.2289587189711
72.5085201168662
72.7416337339544
72.9773017204663
73.2241094894219
73.4186486282408
73.6381609794496
73.8637786351752
74.0317191623869
74.1458655545932
74.2017068839048
74.2103866589477
74.2416379786552
74.2894836166684
74.3572492424483
74.4455250465505
74.581135278332
74.7595490813912
74.9959384457464
75.2585460716503
75.5647091389284
75.8383411203167
76.0354821352721
76.2320246422887
76.3954299135052
76.485311809352
76.5590883762326
76.5896141323974
76.6104631757172
76.6499805613014
76.6842910854396
76.6818767076411
76.7066068173972
76.7823092907878
76.874555198966
76.9759460545091
77.1313774784051
77.3034312112387
77.4817511826673
77.6625941669735
77.830821634647
77.9202716451635
78.0098630282447
78.0873584362931
78.1317109656945
78.1414239057507
78.1691090817621
78.1971697233209
78.23216865602
78.2918964770808
78.376905992515
78.3398559456271
78.3145573115478
78.3081080344893
78.2585744075627
78.175608492814
78.07878473383
78.0002465482376
77.9433545326244
77.808454961625
77.6769007110705
77.5916895941317
77.5408679343817
77.5237344226231
77.5477255576123
77.5521639301816
77.5342193694344
77.5481327373245
77.5922276459055
77.6236994332002
77.6522934921034
77.6421466514254
77.6104442541844
77.6103482288138
77.6511674300947
77.6233479841003
77.5702096228177
77.5197034792271
77.4614094494304
77.4164067143356
77.4194654822046
77.3652846241325
77.2900726615158
77.2873030974014
77.2990389875488
77.2452543983695
77.1939926567252
77.1558715170043
77.1283250140172
77.0760231827444
77.0647586575993
77.0585741199788
77.0642674559112
77.0489746830386
77.0248849497602
76.9938788175792
76.9339233373173
76.8068532153687
76.6998355523337
76.620451088055
76.5237791569753
76.3946601324484
76.2479424391287
76.1216903001657
75.9613584065423
75.7443721825858
75.5574836447461
75.3568956265455
75.2180004314752
75.0033875518486
74.7765910606879
74.6083135390713
74.5046498585159
74.3366501785629
74.1893146814824
74.0033381720711
73.8158214928411
73.7108412987719
73.6463306024102
73.5556884426593
73.4312300959144
73.3075327593581
73.214331768384
73.1519718572552
73.0563189111907
72.9274533068736
72.8705574931041
72.7594654500518
72.6546185146395
72.5017732288254
72.4219875289878
72.3197890498522
72.1737299094465
71.9992850538306
71.8585400897981
71.6933015922612
71.4629052917562
71.1584547615398
71.2637529520245
71.1162182354422
70.7448462686606
70.5080595339173
70.3936125657854
70.290662845603
70.1859810117809
70.0381503573522
69.8781301528379
69.7462472646228
