1798
3999.43349933624
650.420452594757
1
128
4
96.442092400428
96.3264854754253
96.2775200282739
96.313540424832
96.2389811035702
96.2386318754518
96.3589156775672
96.4161727626745
96.2402439347363
96.1497420842725
96.246308681127
96.3488942513345
96.2889559154782
96.2811697536081
96.2609236305124
96.2190265950327
96.2340821054111
96.340234732948
96.3971039599855
96.3697631486977
96.3484395088825
96.3210182085084
96.3028293772039
96.4196977441483
96.4416114836021
96.4285998295293
96.4063617241895
96.4573273394449
96.562274870233
96.5922844908819
96.3864854892479
96.2709245376294
96.3246057435412
96.5005947252364
96.5726508067859
96.5032512605428
96.4050033806818
96.3774525105745
96.3292966835982
96.3479537370526
96.4276368705618
96.4680988695509
96.4017308031721
96.4241979644642
96.4677622849747
96.4558403686908
96.3915159058822
96.5036843735402
96.5380260325825
96.4962431125998
96.5104560234352
96.3776562199363
96.1764645821086
96.2590783096747
96.3720577942911
96.4332715743837
96.5794647234929
96.7170224737296
96.6245135857923
96.5318472095902
96.4891012260411
96.5326800092409
96.4486527835058
96.4104025698375
96.4865113420826
96.5977169886607
96.5593004517203
96.5875433243541
96.626324696566
96.6102106694952
96.4737901129571
96.4871576557095
96.5587155082207
96.6039702455547
96.6022108934204
96.6733039413505
96.7858265790792
96.7814285828329
96.5952077573939
96.4868705472584
96.4663713565321
96.4575606201618
96.5080994433154
96.7170844179511
96.7055097836838
96.5456714796481
96.5322939169165
96.5504017857838
96.5255617630134
96.507118946673
96.515374189953
96.6172560462238
96.6276755050506
96.6812010175868
96.7320144774891
96.7771969182373
96.6669245649408
96.5151073588842
96.4429730269771
96.5186577677826
96.5316912495177
96.4916614747696
96.5890513902713
96.8578716060525
96.7772734510482
96.6267423303044
96.581202319333
96.5170319591765
96.4854836098747
96.662250966496
96.6319315075066
96.5170972197922
96.567209395882
96.6473835349391
96.6774610887371
96.7329284326273
96.6890639968838
96.6086304262983
96.5852676442593
96.6823422179157
96.7561342749851
96.7512069777391
96.7532297750078
96.6750963489934
96.4848022151926
96.5740555145426
96.601653940654
96.7014962604701
96.760918588069
96.7083937954408
96.7120641103686
96.8623645689677
96.8797785449336
96.8565464806072
96.7892358185654
96.7018945541873
96.5277273054663
96.6042421884802
96.7781792493657
96.7426631896194
96.6628298552174
96.762712494854
96.6789369172789
96.5192230150674
96.4658648405468
96.6074214192536
96.7318320168922
96.7568165886357
96.6265386646048
96.5489554396626
96.6447698238525
96.7179819280383
96.7466923130206
96.7978086563992
96.7618031213639
96.671944712751
96.6183053766536
96.6285409157117
96.6056792549796
96.6016890286051
96.5319182238808
96.5123192999624
96.5457862240818
96.7025819514039
96.7348660407975
96.7879771826481
96.7107841495781
96.5067464748029
96.3689674317276
96.4175916555259
96.5845770070268
96.6676460395943
96.5157745565818
96.5061015130992
96.3407249923613
96.1502783812478
95.903624736559
95.7643824209152
95.7904196863467
95.776882800942
95.7706145528465
95.849520832946
95.8165477227509
95.7696957449916
95.6489132907447
95.6848720624224
95.7674560223693
95.481416668198
95.1011419695285
95.0350667107579
94.9454764816039
94.8898610688049
94.7372518813976
94.587738097821
94.4797841558171
94.5316591752034
94.5192950198755
94.4011006395595
94.1146550620007
93.7967701537323
93.6650318511293
93.6622630872931
93.5520233073765
93.5059581222562
93.4520997829805
93.302460696836
93.0956400791076
92.9738037451784
92.751420543338
92.6076607169184
92.4965019360666
92.3929242637592
92.1876711098392
92.1686214290371
92.0332231744502
91.7712959908604
91.6316153982704
91.6555218026703
91.5638879510846
91.4645318815227
91.3703329078735
91.2273420009675
90.8891135741696
90.614336710181
90.4505156947429
90.2779169425279
90.1382474852451
90.1819799798271
90.1798563060865
90.0496344041734
89.8518264670935
89.7105024139319
89.5320460326162
89.3607868400014
89.1686060151671
88.9657291294491
88.8012816220906
88.7531658691743
88.5842622685521
88.439472756089
88.3617840122756
88.1810029082682
87.93651785291
87.8174746228208
87.6815795606981
87.5471077825196
87.3470856974982
87.2495220865047
87.15711759991
86.9699195651017
86.7794426130039
86.765051844256
86.5954244541076
86.3708387833087
86.2069795599324
86.1744962379358
86.0553607074212
85.9007606999945
85.696183525006
85.5609965743977
85.4413061595209
85.3319740937878
85.0957282378775
85.0013203695437
84.9048988473892
84.7794024196553
84.630234978034
84.5519434518613
84.3970751144666
84.2044083682303
84.0336607002744
83.9447970301983
83.878317965726
83.8040362855815
83.5339319518614
83.3520493978041
83.2681267314719
83.2611565206208
83.1401076123685
83.0209984046918
82.8877523610943
82.7877906308379
82.6626549736509
82.5315458615523
82.2567056959499
82.1704318460246
82.1319339403088
82.0955099277766
81.8964922138146
81.7531704155014
81.6965938708532
81.6253135119387
81.4825737789261
81.4169835088177
81.2939064228584
81.1650025361787
80.9956209127879
80.9043392805081
80.7996339096264
80.7545111371923
80.6493477291738
80.5140330689091
80.39242607419
80.2528268170311
80.1603258895853
80.1736313861751
79.9969020527828
79.9257281442947
79.858526120164
79.7414170010671
79.5678751158618
79.4084189604323
79.3006418060348
79.3080939710605
79.2531949440516
79.2356314280416
79.0786053795856
79.0298198513962
78.9196474192587
78.8076909482966
78.7082577034659
78.5735429383945
78.4189194929696
78.4213950791377
78.3942951120342
78.350352048953
78.2450268751049
78.2027058360298
78.124908512958
78.1120799884147
78.0109137580279
77.9379892720382
77.8946767329118
77.9176634939965
77.7915475753112
77.6871734738656
77.5973124285661
77.5580317867617
77.5521091379945
77.58955718788
77.4626998610452
77.333567547145
77.2578417588944
77.2669839568229
77.1817119259989
77.1899656539531
77.2046303461479
77.1851381720655
77.07471465513
77.0539559434077
76.9703734542262
77.0221457310936
77.0321457722653
76.9142653522996
76.7646041783241
76.780752209482
76.7359451674814
76.706959504918
76.7653829540469
76.8197949885557
76.7945023976425
76.8384759765618
76.6982196783052
76.6628131733804
76.665359540767
76.6879008708097
76.5691348706039
76.5395691740149
76.5736459266233
76.6027178450489
76.5350997755056
76.5337409214418
76.4628304379907
76.4323220296762
76.395315470405
76.3437310614622
76.2837602911308
76.3583125432987
76.318611473344
76.2788276102092
76.2979042001005
76.2812977591502
76.1582980601368
76.1928303709987
76.184515469875
76.1470135384136
76.1116308678118
76.1175791793975
76.0282030993979
76.0755547473874
76.0988425329717
76.042995182194
76.0354245490399
76.112270623505
76.0327164739437
76.0336104221742
76.0337249214822
76.0097076698858
76.0095605247397
76.1527556173129
76.1085037840969
76.0234707618985
76.1435185334574
76.3164892416937
76.2352640810687
76.1896366466295
76.1924422017797
76.242097785233
76.1647181904739
76.1231002028763
76.2131661676099
76.3509867944806
76.328865572098
76.3655270137312
76.3579547719533
76.3771226030427
76.4414201021017
76.4840666079865
76.3710336068556
76.4236421813874
76.5474356030906
76.5573294600812
76.4654210597233
76.5227996277502
76.633882398822
76.7708245878217
76.7584902919895
76.7574423739924
76.7661847065823
76.8430224532155
76.9346699487757
76.9830832209812
76.9558019140702
77.0345898533795
77.1487624231702
77.2695331552239
77.3276713192776
77.4030915956589
77.3729022387616
77.4096788856766
77.43836268322
77.5812963106412
77.684782695518
77.7305661120919
77.7139290353554
77.7794668243587
77.8808737847451
78.0128945742557
78.0547664318612
78.1141189475891
78.1342733915521
78.2647154406956
78.3484728732245
78.5090197477974
78.6180083710779
78.6862030997799
78.7096508876555
78.7795807980456
78.8424940216289
78.9418966734618
79.0417566212065
79.1274751955098
79.101088138089
79.1736865804198
79.2685541335857
79.3075766330285
79.3739239001991
79.454999462556
79.4353231153003
79.5544723149227
79.7433025180598
79.9269346306868
80.0122337835215
80.1081963446093
80.1356709304655
80.1131279284797
80.1185453187418
80.2634896784816
80.3248484892254
80.2865809379615
80.2669383730347
80.3552605936097
80.4396357849316
80.547581525126
80.5945617128213
80.6036918957881
80.6643632718255
80.7907309862434
80.8476039365024
80.896388392646
80.9286932365219
81.0649820546521
81.163302113023
81.2849396167275
81.3602501431747
81.3529061181946
81.3143361339226
81.3407774457523
81.3687280849371
81.4792847420216
81.5562590100464
81.5747810734365
81.5688872946498
81.6670697837061
81.7330885341015
81.7993117361294
81.9032937392374
82.028371667947
82.0429961930284
82.042689910651
82.0991952664555
82.2543586284565
82.3658159689962
82.4523743659088
82.5001646240868
82.5544486047512
82.5648192454731
82.6739928057488
82.7796646714574
82.9070530109006
82.9481492320161
83.0132200570589
83.052215111651
83.1379932062017
83.2454249364329
83.344038787893
83.3160757393463
83.3596587387552
83.4720813938637
83.6032686323967
83.6590901340975
83.6816014858692
83.6731647713662
83.6491657915706
83.6399643571254
83.7583425344398
83.8704979914444
83.8671232422253
83.7652838237056
83.7641101162721
83.7897072291273
83.7398766446047
83.6651986429414
83.670542975381
83.6391476378578
83.5433662401524
83.4327582340476
83.3826006905653
83.2821106440806
83.2546883569441
83.1801308461
83.0178954723569
82.8431234873325
82.7047365517157
82.5384082523501
82.4809372923086
82.4215805239793
82.3154653126809
82.152027921147
82.0633455396561
81.9921867348496
81.9628953945811
81.9771975464526
81.953179527604
81.8952437386221
81.8694933100844
81.7427293780103
81.6233243213855
81.4613102231317
81.3752944645211
81.2856838193499
81.1239724195323
81.0034930229632
80.9422486740009
80.867656601331
80.8864867862852
80.8934209149928
80.9176866414413
81.0386177182153
81.1926862358321
81.2550459926008
81.2944141433247
81.4282687397452
81.6800438946883
81.8141199371438
81.9432177144435
82.1015201403868
82.2570209028061
82.3311194669149
82.4777370293336
82.5754966674186
82.6919558961251
82.8387074352245
82.9687046352616
83.0999169524313
83.2285265120767
83.3058101736788
83.3740319832342
83.3870224189757
83.4089072559589
83.366349079199
83.4058675539165
83.4238695702995
83.4274382050584
83.4927040616999
83.5736497837023
83.5416759422227
83.5416677091915
83.6204485828485
83.7037389976873
83.7485449523051
83.816790164132
83.9124537104439
84.0727219835874
84.1206781807632
84.1520432600877
84.292847494182
84.5044094237808
84.6719285485628
84.8137562319447
84.8594652331619
84.950773923646
85.1671861298122
85.4579520578706
85.6274118559308
85.6981562544627
85.7731458678227
85.8863689876187
85.9288316579585
85.9971907731788
86.1323120299503
86.246176632636
86.3267057605979
86.4626727756307
86.5698171664544
86.612701326456
86.6457928495453
86.7429212856117
86.8491870682783
86.9061250580452
86.9491262251803
87.0130104867411
87.0739686527108
87.1639385437037
87.210993621348
87.2924730276611
87.3792668951774
87.4344875430617
87.4734751632993
87.5945104362205
87.6932261599481
87.6773568739571
87.6448662954991
87.7005969709688
87.7791306656388
87.8782161014371
87.8816504083191
87.9357097865975
88.0471941715062
88.1309621888565
88.104277377736
88.1184866158747
88.2329135737207
88.3033510140339
88.3019549022607
88.3116058261969
88.3504433454679
88.4224945148471
88.4446353937444
88.4296698604089
88.4722033666837
88.5400542937952
88.5852178304767
88.6143243111173
88.6503443978798
88.6957601710508
88.7170662845364
88.7285789554321
88.7669670452965
88.8043262694388
88.8057036065725
88.834993466869
88.8780479316395
88.9709193886264
89.0229136117374
89.0385995159988
89.0506176432871
89.0866335635193
89.1093854160643
89.1301484162061
89.1760256562146
89.238886089751
89.2566500928787
89.2496772173744
89.2892243542573
89.3326428447225
89.3815168075412
89.4763743613095
89.471287813955
89.4832132998317
89.5327620917684
89.528595814669
89.4643974668192
89.5289934799575
89.6217343779314
89.642145425059
89.6473459845122
89.6931326380864
89.7387366011077
89.738186676416
89.7464407165769
89.8131563634021
89.8902126161724
89.9361231151225
89.9083765435267
89.888202560965
89.9842163987303
90.0250577048278
89.9653179598654
89.9857027983579
90.0169854660442
90.0721934993907
90.0922550646553
90.0856139664805
90.088588706584
90.1674262951528
90.2570063147124
90.2585681261154
90.2739889766333
90.3328604884251
90.3852196987901
90.4283389225488
90.4663571320064
90.4961824618351
90.5361568610722
90.5890903728199
90.6143804318719
90.658244936197
90.7229219731362
90.8049764929284
90.8633275395296
90.8996215913466
90.8193431044191
90.8684448433342
90.9431677086195
91.0242128596496
91.112457013073
91.1182354347729
91.1752351922923
91.3316542243419
91.3765318416901
91.3505345920482
91.3753818410465
91.40559465464
91.4047111452499
91.4416707788311
91.5218302952441
91.6180795983562
91.6509231378566
91.6149187564892
91.6405456191247
91.7172569758952
91.7288186027495
91.7751694304512
91.9520315526511
92.023689001918
91.9381139998917
91.9814388713179
92.0025740866805
91.8572846880261
91.902532265852
92.0525378403379
92.0800705069942
92.0824924691678
92.1074170019202
92.1485080379704
92.2776684661898
92.2903635738239
92.2493818344715
92.3099155261139
92.3167578403749
92.330048015216
92.3290668709046
92.2876078126104
92.357500343369
92.4081268827939
92.3471157429025
92.3745028075303
92.4352848058272
92.5043296176166
92.628681945528
92.662694789975
92.6287546621243
92.6261990913225
92.5662953603289
92.5789061100415
92.6288295790585
92.6740610096807
92.6681719459071
92.6498754764832
92.5798329718227
92.6474963813552
92.7447378626372
92.7876321483992
92.8321325479588
92.8140529571997
92.7728190989894
92.8013845024356
92.8321035264365
92.8603457859946
92.9378477158692
92.9510853770739
92.9129642922636
92.9766124568023
92.9673988396053
92.9730412951476
93.044591153227
93.0387820834477
93.0109400381125
93.0080596459976
93.0447204242499
93.02712647177
93.0201747355128
93.0632813410188
93.1215004103823
93.1442944965242
93.1328831252311
93.1720273854297
93.1246221483928
93.1380413152787
93.1774380770664
93.1490526641574
93.1524648170145
93.2701517463759
93.3206628037262
93.2562847127782
93.2663035912004
93.3458320937649
93.3766842332728
93.363365301288
93.3619436420649
93.3820529139842
93.3641976993746
93.3628525976637
93.4079421070868
93.4754496939625
93.4543844411585
93.4498387456732
93.4276017617855
93.364597787669
93.4117755979578
93.4641108337525
93.5093991921367
93.5393765179281
93.4801081857401
93.4515655923581
93.5177614725855
93.5901399718955
93.5770779193889
93.5384592586813
93.5414809287117
93.536032338514
93.5131904166699
93.487748293851
93.5246688478187
93.5300423911711
93.505104046625
93.5310386338795
93.5111436847598
93.4325961460487
93.4035622937735
93.4684659457558
93.5317621929116
93.6647299502937
93.6963994838777
93.6483874723067
93.7226922589784
93.8160035711297
93.7906914094994
93.8391604279517
93.8632501541398
93.7854189987467
93.747522539795
93.7854161346376
93.8018632977322
93.8050905911821
93.7855358343629
93.6668787045902
93.5815153142726
93.6276438188392
93.6949952769501
93.6349540220614
93.5835351143528
93.5929146416058
93.5695976069476
93.6779089578284
93.8276023998869
93.7708652975081
93.585064867594
93.4501381382526
93.4291457574571
93.4667281836929
93.5323420790075
93.5971236181377
93.6253929631076
93.6268793879626
93.7063070023603
93.8132313658251
93.8496223875884
93.7595928378301
93.7202855458859
93.8043771446667
93.8344404018759
93.799730135538
93.7282106956174
93.7675292242958
93.887134236459
93.9160528940021
93.8699482563726
93.9778734295809
94.1153095758277
94.1615034373635
94.2012838288513
94.2014069940745
94.120788621696
94.2792114441413
94.5186610745139
94.5411180706763
94.5546141436854
94.6346982411887
94.7334050882394
94.7413317278062
94.7973459441425
94.9615659516181
94.9505652091153
94.7837003300118
94.864363070023
95.0990411468527
95.1570153576237
95.1663590908879
95.2352074732329
95.1514855890604
95.2129690740566
95.2535427477471
95.4042748038029
95.6120047944381
95.6083576762918
95.5570902308378
95.649805930058
95.8491468445218
95.8437811038708
95.8525336992187
95.9437748272876
96.086814726419
96.083106947316
96.0164419260352
96.1074277048562
96.1917093597354
96.3144274202307
96.3327768626706
96.4887963186075
96.5841688349309
96.4806775251637
96.3468285932386
96.3416347881366
96.5724572228885
96.8165339284793
96.9510183574834
96.9767675071894
96.7330993271175
96.802712316765
97.1376179349394
97.1526235089312
96.9607734126036
96.9772250538543
97.1924355579764
97.5123683392239
97.8487327015965
97.9320399468507
97.77972999103
97.6542697990366
97.808495815702
98.0294793257753
98.2612086412935
98.2195441412505
98.4145377548895
98.6650147101712
99.124171142643
99.387908777869
99.2324616875059
99.0310605561229
98.5056658412663
98.1910821508806
97.9020946803843
97.582175598464
97.4762366466975
97.6014378914932
97.4771999407464
97.0359925476669
96.9374933096148
96.9851229008799
96.9430163836664
96.7315455873889
96.4134783458775
96.202660389448
96.081693719352
95.9209101083302
95.8542988958781
95.9259374567203
95.7536123019124
95.6097862817976
95.6014964458512
95.68574267834
95.7877026085278
95.7533069360786
95.7554712575328
95.8604876341128
95.79702872097
95.7354454516157
95.595589410268
95.5928775809102
95.9117975678116
96.0557675373035
95.9785712217823
96.0029772444572
95.8944272556673
95.8448404758433
95.9204022821851
95.8501343837522
96.0197629649596
96.2508292958308
96.1566962709787
96.1210924871069
96.3223636829004
96.3612999681252
96.3189681520124
96.3967193823778
96.6850816910321
96.895194175256
97.1412976048994
97.1837856576973
97.0842043232182
97.0604230071671
96.9727228875068
97.1682423138592
97.3593032946523
97.583065864766
98.0068289931893
98.1309574892417
98.2468891960875
98.2177396106868
98.4569825738636
98.8535022105576
98.8261787253123
98.8481144341776
98.8548305946798
98.9153218013101
98.8457275917875
98.9861786905805
99.4067057021766
99.8184268973622
99.7672587850501
99.5818847140879
99.218642755046
99.1025467678447
99.0427498231112
98.8352457624359
98.7643559954257
98.8517973763567
98.9936173680744
99.0365695388785
98.7351798567967
98.2414502306061
98.1311133494792
98.2963576308984
98.2744616958724
98.401168818058
98.3569595546209
98.1896378973335
98.2587712582499
98.5309379654605
98.8624226168714
98.6793587637529
98.4063258559373
98.6322716856692
99.0134613669753
99.4252582680368
99.1592877660631
98.9378838667202
99.1308943886174
98.979018364369
98.6367578004128
98.4961574978396
98.2894013396554
98.2646037890114
98.3513328877627
98.1442494603769
97.7111766316693
97.6007528190907
97.5556581520074
97.5289754804452
97.2547674184399
97.340317678364
97.5474923513887
97.4050441056407
97.0667391983437
96.9728746711096
97.0242046628153
96.9837379407477
96.7870432459451
96.7251589851441
96.760551300737
96.7738556985675
96.7093389447298
96.7012394874602
96.6477539192635
96.5781106179897
96.5046505089691
96.4790301644489
96.3681198508776
96.2551979009345
96.3759944368306
96.4401930947368
96.3689459648915
96.3503495137547
96.3509402777066
96.3264974300194
96.2873060107878
96.3120419985399
96.2743464013916
96.2603973393987
96.1385526848839
96.0741204503196
96.1796398378462
96.1965301351064
96.1998824834465
96.1775275259393
96.0803881940416
96.0605338991008
96.0982152746296
96.126285854906
96.2096354406345
96.1971509961195
96.0919528609315
96.0386524631026
96.0286149111926
96.0610350703947
96.0615797977262
96.1114138469467
96.1061668683444
95.9975653681194
95.9341202281683
95.9932784844305
95.9787904304919
95.9592992989859
95.986027959189
95.9633127030408
95.9264142082602
95.9650086386097
95.9705270013158
95.9880755222036
95.9754085727907
95.9377830358893
95.9386883169473
95.9797251566027
95.9008248870365
95.8272614842701
95.8801398238861
95.9436150212228
95.9095442311893
95.8824189278609
95.9566656024765
95.9378435480531
95.8620572669608
95.8666347280167
95.8284613578153
95.8086472055172
95.7853061342151
95.7610472940314
95.7098504636855
95.6839642142223
95.767326569072
95.8356669901063
95.7721241617211
95.7575490314915
95.7336065159888
95.7103672822355
95.6727082539213
95.6103068048128
95.570471260307
95.5678643044098
95.5636794387357
95.5970686292749
95.5648473794679
95.4956278592
95.3714605051076
95.2941694539855
95.2281406185653
95.2113079006554
95.1182073129024
95.0177157964773
94.9077733747784
94.7904355429134
94.6846641677934
94.6068509081522
94.4856921638974
94.4009751738665
94.2491728860558
94.1098800975738
94.004135547338
93.8432388736594
93.6332859405836
93.5192326082548
93.472297072657
93.3701781381021
93.1209017357093
92.9389787292164
92.807806883947
92.6556085080641
92.4591584411724
92.2948662238542
92.1161801759382
91.9150907469919
91.6504354879566
91.387852716787
91.1133252940076
90.7911038438587
90.3998180653125
90.0160311985513
89.6084246251591
89.2481200362489
88.8647345228684
88.4458712501985
87.9449372902367
87.4438677167932
86.9734832742598
86.3991067293066
85.7344398402313
85.1802815261339
84.632739904586
84.0673869261636
83.4382165588282
82.8890285483418
82.3964376145365
81.8680994233732
81.2432199396674
80.5875228233473
80.0215650210437
79.4927774310037
78.8815989228219
78.3282763084164
77.8694849831027
77.331246679563
76.7065864100869
76.2251407488537
75.7741614639616
75.2840900850601
74.6607133549993
73.9059627564228
73.721734929709
73.8816230450312
73.3671702369141
72.832937960535
72.6738516387369
72.435336411776
72.0405437195999
71.6326140887041
71.1089755780445
70.7695026316201
70.9957263245729
70.9870135868157
70.6219710526601
70.2579391279625
70.0306270120837
69.7958908012666
69.706182858226
69.6942294790219
69.3440996919162
68.9440352659017
68.9709055322015
68.9370983290654
68.6456783322269
68.3223436652005
68.0513195189853
67.8169622951382
67.5477643965834
67.3368986139214
67.1339665157347
66.9238334695152
66.6317459024969
66.3949853982355
66.175431107888
65.9787914206516
65.7352544642185
65.4895513317794
65.2147355720604
64.9816628757547
64.7128838764182
64.3539923199166
63.7844971336292
63.4792312353504
63.5901757018871
63.2970541330396
62.701206467411
62.4807538339031
62.2883684601676
62.0415220658011
61.7632625283871
61.0639615693262
60.3210550790068
61.550610364946
62.1403954976667
62.2087512348521
62.1648024869814
62.1658606649331
62.4506633751327
62.5530263857409
62.6671467960813
62.8843268782503
63.0415672192117
64.6345150857577
65.9733759700192
65.8764284492834
65.9344588312311
66.8625982730304
67.303093016588
67.4255273477057
67.8096109304868
68.2977572924204
68.3825161805062
69.281539498966
69.986310253261
70.2781159135291
70.8535551838719
71.1614251448801
71.3323496365529
71.182844883271
70.9472478972781
72.8278069879643
74.2399268573691
74.332483461379
74.1460324308246
74.1290306587221
74.7045642254033
75.6056139048448
75.7526148141252
75.5684611589398
76.0079069425544
76.7066467562888
77.1324096135346
77.2279472103371
77.2827543752256
77.4010036411116
77.3588955756541
77.2469827562093
77.0463094678088
77.1206980615313
77.3413706130235
77.0215269371041
76.4103100687993
75.9988323889657
75.8919585755815
75.4720897827509
74.7113053843187
74.2561734687106
74.7702022265798
74.7743348040238
74.4276129760743
74.0390671671697
73.8865136755676
73.9660844798004
73.9579109701934
73.8650985530928
73.7930304942301
73.5032993167417
73.4212743043527
73.8565305168854
73.8493284209733
73.5658544344032
73.3588242700682
73.154872864771
72.7470909130589
72.3362234780229
71.8726349829377
71.2305392651038
70.8430068230143
70.4658445939213
69.7840378949081
68.9579768829543
68.1704344358131
67.4403529474799
66.7117863635454
66.083351127531
65.6327600246785
65.1489343461613
64.7302732806763
64.5738197466124
64.4629507240826
64.5962467376563
64.7209464874751
64.5741524766304
64.3906829923258
64.5978629381735
64.8637600024522
64.931197541677
64.9688303802436
65.0925043055751
65.1941924806829
65.2508627734755
65.6059312966557
65.977065988661
66.1000595277945
66.3141220151352
66.5304374940228
66.6176311669747
66.9505446485818
67.4598495460063
67.7279446764423
67.859238876127
68.0496625355479
68.2899860535516
68.4699869413738
68.6539003793238
68.882727012101
69.1038070745581
69.2880334983126
69.378959246681
69.5614397800492
69.9674981673868
70.2797236942261
70.4617758616731
70.5800709197137
70.6899202471104
70.7891128455497
70.8674985225239
70.8893283907798
70.8898470663391
70.8621175537471
70.8193437088456
70.8036887357218
70.7846734011541
70.7196105924055
70.7059953411681
70.7103716809934
70.7370688640138
70.8163936802935
70.895696013273
70.9853873293458
71.0978537226641
71.2258872282103
71.4032502237795
71.6338629572711
71.8686342943878
72.0610207748556
72.2441231870891
72.4589723267154
72.6826769064181
72.8426753943789
72.9728723140897
73.096351512909
73.2029395439369
73.3016621120941
73.3667932035705
73.421489003982
73.4880215865256
73.5585067439102
73.6083721048699
73.6366579954454
73.6983711580475
73.737088950419
73.7948568393321
73.855643413998
73.8990464983028
73.9569973647861
74.0155631760087
74.0371937217463
74.0288564723347
74.0447929367074
74.0849050735169
74.1171969407259
74.1388331636965
74.1453989098392
74.1651095059196
74.1814641968095
74.1996054579048
74.2465488431283
74.306535137702
74.341431129934
74.3777114406717
74.4677029459575
74.5803920149567
74.6729922877514
74.8122197688359
74.9941722429081
75.1489734831714
75.299165924908
75.4867508132802
75.6775582188497
75.8570409515583
76.0515786859946
76.2384360247622
76.4240231437105
76.6104031507675
76.7932423983434
76.9837250570075
77.1700996132789
77.3513074131782
77.495275770767
77.6149347168035
77.7232447044939
77.8265966104165
77.8812449149508
77.8755927678326
77.8655278045436
77.8055891384428
77.688509887936
77.544770318727
77.3993212389241
77.2454405113339
77.0860131126484
76.9296678036422
76.7330855959326
76.533927458302
76.3588351524709
76.1553767484792
75.9241528746046
75.7025206686325
75.4549457685449
75.1759985131352
74.9238071937188
74.6955008385712
74.4638159434657
74.2470890347037
74.0281056733075
73.7971357022619
73.5372326259133
73.2579325383441
72.9847340513963
72.7133157162752
72.438008034693
72.208982992487
72.0020240265636
71.7932799641133
71.6162912315428
71.4707310217686
71.3376885104324
71.2352024525069
71.1595588650803
71.1094830840362
71.0290511421473
70.9605035054795
70.8394319135194
70.6561702849561
70.43614521155
70.1613504661576
69.8608341097219
69.54787970414
69.2516683171187
68.9282585093057
68.5890917441425
68.2939396511549
67.9730091271433
67.6592051104398
67.3629626723443
67.065775317769
66.7402370907681
66.4067566236963
66.0773112007806
65.7576661735365
65.4464743559072
65.104928668651
64.7427845895866
64.4068037605579
64.0409611515978
63.6879484416974
63.3448343061687
62.9982266778255
62.637592734112
62.3229587985183
62.0509080332653
61.8248694696004
61.6505748354081
61.5059413711587
61.3518128075692
61.2100190905908
61.0520021114329
60.9090684866272
60.7333331027671
60.5883790563252
60.4929934829356
60.4213739324998
60.3634103720867
60.2856865551198
60.2130603124675
60.2232278494892
60.2839043509024
60.3824853335458
60.5029629415361
60.6820105034203
60.9232037682623
61.2003589956247
61.5101010557958
61.8582046031333
62.2292805341416
62.6380495143232
63.0587880678272
63.4399533780126
63.8004509763196
64.154146033146
64.4865229228704
64.8218644546638
65.0938793310016
65.3375740882963
65.5822443988191
65.7936809917124
65.9158584671756
66.0152932110933
66.0765462016664
66.1045946702146
66.1576303384616
66.2078424402271
66.282022745755
66.4529028778038
66.6825713384856
66.9375042251743
67.2508472191621
67.6139268364693
67.9887604046635
68.3657974904065
68.7051976292936
69.0429412868391
69.3952104334148
69.7651833885046
70.1043967244801
70.435280773419
70.743541665401
71.0387776102568
71.3455531473779
71.6450646287106
71.8831442827886
72.100591747051
72.3178560245306
72.5524412619097
72.7515229717668
72.9122846488059
73.0483604306413
73.1729106797757
73.2674711704545
73.3409587552391
73.3822614412983
73.4183598261496
73.4813039976164
73.5352479006129
73.5784209172953
73.6993673038783
73.8270160580669
73.9365765202947
74.0521425770284
74.2077846629423
74.3689947842324
74.5015895682252
74.6081995563948
74.7344735829243
74.8524272356011
74.9530424845137
75.012208804663
75.0933622308702
75.1829967640285
75.2274458371631
75.2627446235754
75.3453469391596
75.4172621495627
75.4902470524236
75.5523722913522
75.6095235828499
75.6357698006368
75.6812953626043
75.732096497861
75.7726298000475
75.8044347121898
75.8384058992343
75.8595945048563
75.9022270560522
75.9236302929501
75.9173363464428
75.8947190887921
75.8690276527592
75.827912913211
75.7606234645964
75.6420634477665
75.5155685728735
75.3642082660771
75.1350432435829
74.8653789129319
74.5811810289901
74.3220032244623
74.1523468227308
73.9854080494625
73.904843677885
73.8941012388322
73.9188641632026
73.9495113147083
73.9220759150677
73.8962220095529
73.8794074855578
73.8378907643099
73.7560544638691
73.5966892133953
73.4493379659084
73.2621872398259
73.0983537330319
72.9713925706337
72.8638532023509
72.7871582071221
72.753545227897
72.7344299051837
72.7326051144136
72.6847894944971
72.6451394962451
72.5823344866554
72.514188074904
72.4229640977184
72.3046450343542
72.1939938596718
72.0934383801357
71.9224001021296
71.841987644203
71.802835424125
71.726941207322
71.6091683921742
71.4666429334391
71.3687170562586
71.3050652974851
71.211927179897
71.0951714475944
70.9765451331788
70.8911763569096
70.7557012277593
70.6220906416853
70.5103893692946
70.4232338324205
70.3203141787149
70.2425894816739
70.1418884126411
70.0462099164885
69.9144947252552
69.801055731575
69.6969923240997
69.6070765242617
69.5342183215345
69.5103296552811
69.3970382002133
69.2815917112428
69.1970847263356
69.081523852571
68.9179509169845
68.786739764524
68.6439706800291
68.5134461919571
68.3394991188741
68.1941883359102
68.0414760504238
67.9224622008264
67.7806259825724
67.5985385669129
67.4071727393578
67.2429920918876
67.0344393609822
66.8582009183605
66.6550563489503
66.4488937620852
66.2865920144832
66.199216199816
66.1450618219023
66.0944307114853
65.9944023779657
65.8889854122318
65.75749326356
65.693774411546
65.5441309514203
65.3666965948199
65.2445053237584
65.1472690481603
64.967046908716
64.8285056911787
64.7309061255809
64.5717413821728
64.2948666433488
64.5384850019007
64.47051828422
64.2192047465708
64.0920885171749
64.051880016446
63.9754224784807
63.8163566163194
63.6393049237443
63.6144747900115
63.5287617578237
