1798
3999.43349933624
650.420452594757
1
128
4
99.5848654704642
99.5254007483074
99.4550227176023
99.5097011625961
99.4773835666367
99.4583115336503
99.4974607179097
99.4524776489881
99.3936234209548
99.4673343811902
99.4508484607881
99.4712978917661
99.5719852426362
99.6036876968456
99.52984853806
99.5380225994492
99.444579704075
99.4961538637231
99.5191852955146
99.3744746353992
99.3579644836278
99.4808390794738
99.5479021520912
99.6430565016312
99.6303275119459
99.5782805994479
99.5272500738764
99.6181033410175
99.6496755334024
99.5702940944301
99.3942225436688
99.3297389795413
99.4415163272374
99.5941090968957
99.6158440294694
99.6614943518013
99.6677913134567
99.6132315680872
99.5824972712263
99.6055420663381
99.553186547453
99.5507239139505
99.589335449261
99.6742134812481
99.5892172176606
99.5190566582693
99.5425102457214
99.6743156105867
99.7722810830445
99.7885272854346
99.6784743387565
99.5747900372759
99.5370924714183
99.6651559924252
99.500998704581
99.4342889530792
99.5175489696707
99.5955718475326
99.6021349587291
99.6181197865394
99.6408321729823
99.711900717986
99.6390696365535
99.5790484802563
99.5246830881534
99.5612737822093
99.6323777681174
99.7990581979145
99.7934747873519
99.7717029945443
99.6973015363708
99.5503707242237
99.5791938934401
99.6697937228898
99.6552052195257
99.7159364261953
99.7461405879481
99.7714079309407
99.6672809914446
99.5114646073301
99.3342452253154
99.3365939538487
99.58574338833
99.78553307277
99.8884124589895
99.9532720071868
99.8035467453646
99.7107946682519
99.5821857232182
99.4624217432187
99.3672064233778
99.4896761836148
99.5898834676509
99.6645682015225
99.6222472538654
99.7247676804655
99.719769441212
99.5211952833307
99.3755461872198
99.4301877391631
99.5359843763559
99.6077241540436
99.7175107129488
99.7956470651273
99.6587260588261
99.6299818668772
99.5954127601241
99.4652320712193
99.3226312573828
99.2880692876881
99.2644471922304
99.4605252208902
99.5619812068884
99.6384356972462
99.6302109089181
99.6300995500084
99.552480417725
99.4888937763968
99.4306425956515
99.4127157443581
99.5016973693627
99.6440859222587
99.6013409377965
99.6357128739957
99.5682838477003
99.4401530317562
99.4368441368472
99.5485879013567
99.5315890775535
99.592670344419
99.8130602587907
100.004434737658
99.9160027379178
99.8175807195529
99.7686501250515
99.5328289559924
99.2854472952285
99.3202347247185
99.2230940453713
99.234418678861
99.4565498474823
99.4824647799684
99.1975881768127
99.0819019181562
98.9473154336214
99.0842949330879
99.1402713186888
99.0775094198505
99.0332257958036
99.1108344038214
99.0906369326948
99.2407500510337
99.4409240926319
99.5290642837671
99.343937689984
99.0798825927231
98.8963178980786
98.9300434373659
99.0835672897076
99.1358370417366
98.9789464228264
98.9881802086747
98.9843480248758
99.0935628770457
99.1811789359443
99.2121513864028
99.041796992063
98.7770915184761
98.7091520013628
98.7867438106317
98.7154753901368
98.7690583708592
98.8189112612235
98.834314235241
98.4302639199472
98.1905830703707
98.1115462738206
97.9246858481896
97.6146977753346
97.6145045396932
97.671717605049
97.6547619020316
97.6619002484224
97.7812435068571
97.819647066884
97.7784411284001
97.5838267857927
97.1664602882062
96.5328766755759
96.3450357342066
96.2323096055636
96.1428330989271
96.0431309857554
95.9383814601984
95.8651465649151
95.8747085324805
95.8363726131751
95.7136904467773
95.3911954699342
95.1049555095319
94.7213062954162
94.5657710740406
94.4284608660691
94.1721741030053
93.8284140931597
93.6647369762947
93.4938684713932
93.286511354582
92.9406460471863
92.7126761436645
92.4751198969485
92.306943152904
91.9943609690802
91.7750304936997
91.5410974107695
91.264912410814
90.9299175034383
90.7315311897701
90.5382663803442
90.3244446604094
89.9060710959761
89.4141577118226
89.0512510750695
88.9487878815955
88.7806023867475
88.5079054561821
88.0962896712057
87.7543755024488
87.4051892559706
87.196086751791
86.9764686152533
86.6769520374435
86.0837357845085
85.6773999747793
85.4782479894972
85.2085431214768
84.7880257959074
84.4855133129783
84.1764572177049
83.9347179884177
83.5780884225801
83.1834351187424
82.7521545557204
82.3808763781736
81.8028551970933
81.4797180058977
81.3530262223666
81.0738594221581
80.6319352918241
80.3183132335313
80.06731114856
79.7175862346132
79.181449993289
78.8127731801147
78.4271109167463
78.0878005480859
77.8029735801989
77.5217692135933
77.1372877280218
76.7789906784198
76.3559794836418
75.9438136337932
75.4238093292159
75.1254075414513
74.7984374243661
74.5301311231044
74.0769992335726
73.7590677657521
73.4641734888338
73.0853074378896
72.5514479670502
72.2549360501991
71.9203503209266
71.6194097795345
71.2602801960594
70.9389888095943
70.6281265168025
70.2820422956838
69.8052507140983
69.5633841816715
69.2777655601639
68.937848130165
68.5014597832767
68.0936840541494
67.6692887434262
67.3556370825563
67.0574366714605
66.830968725849
66.5498637721234
66.2119983271359
65.7812831477096
65.4818657673303
65.1361571942488
64.8820043523587
64.5601534834338
64.2886997827854
63.8537328358364
63.6098622331561
63.3300944202054
62.9929912955014
62.6542035683136
62.3364679408202
61.9006832992091
61.6094332440318
61.2332273551257
60.9306740606113
60.7072698471242
60.5744688883807
60.3185223191616
60.0430443279003
59.7003185424061
59.4670606365768
59.1037514717866
58.8246335389116
58.5006405787443
58.3363264400237
58.1908434225763
57.9196313479526
57.4793602118116
57.2426371485952
56.9094933455949
56.6187698700669
56.3796394143791
56.2105389780934
55.8939779702885
55.6647383341263
55.392268504482
55.2339953584864
55.0901296253705
54.9558091829535
54.6909275016756
54.5367415196866
54.2917174869878
54.083774882781
53.7601695152726
53.6216521577593
53.4135271107196
53.1213376157139
52.8351466411073
52.690744776042
52.5219935546527
52.3875885683936
52.1923513558721
52.1114621105855
51.9361227436177
51.8621794630503
51.760920943567
51.5436045785013
51.1854045701924
51.114336443271
51.0165399939578
50.9401641344171
50.741333588737
50.5664550310886
50.3593008036686
50.4100110268894
50.3206040812851
50.2219535083742
50.0383545191537
49.9544117617413
49.821035714458
49.6754638556742
49.4780095434796
49.4349256343374
49.2627345529598
49.2226989383867
49.1603531804768
49.191043936046
49.0603002249945
48.9268939385492
48.7230862016304
48.5886883681075
48.5230012472338
48.5725601123671
48.4960080288414
48.4859951332921
48.3584819420663
48.2450382583935
48.1150298083802
48.1797918425278
48.0934192095541
48.1098737798079
48.0932385527044
48.0611530874423
47.9507134750568
47.8873483826387
47.7937938256798
47.8221229990712
47.7701298338639
47.8261121307583
47.6972935013871
47.6612369885384
47.7080864598978
47.7078116614151
47.5361545498259
47.5991463639531
47.6136801538281
47.5771968538129
47.6000432681723
47.7054594105392
47.6221471221553
47.654745647099
47.7062942387111
47.7653161451736
47.686647750528
47.7076762294227
47.6434043491061
47.6037709850705
47.6151987303966
47.8411855211097
47.8122820023893
47.8757447508309
47.9059952889322
47.9413900138711
47.9747744857897
48.1191804652271
48.1409261144259
48.2319100287658
48.2599343236688
48.3290536285467
48.357179634618
48.4848249717752
48.6138432236108
48.7619747050829
48.7337299879936
48.8704981190923
48.907438573726
49.0501068416509
49.1889209459728
49.3502823438405
49.4444737388954
49.5885469401049
49.6279459243998
49.8232237764395
49.9229678818954
50.0748642814932
50.1999024968545
50.3668151468425
50.541699942662
50.7633655936305
50.8679101432778
51.082498913972
51.214177579322
51.3609690759424
51.4520856861824
51.6656798558841
51.851596282672
52.0643899515823
52.207071414147
52.4262144506328
52.5981313270152
52.8409708874946
52.9754887287309
53.1738685310862
53.3719352687056
53.5948500578881
53.7840210358527
54.0252201017615
54.1853737201747
54.4148250069418
54.6249809720931
54.9339934607829
55.1155923177939
55.2994542706514
55.5238553368891
55.7965786112041
55.9687720013984
56.1842824574111
56.4090178169492
56.7671190730467
56.945670425532
57.1425431205598
57.3615043705607
57.6295854698941
57.8993144133072
58.2453118400472
58.3941715945976
58.6176610069724
58.8644180727354
59.1084749244086
59.2715297273777
59.5626660769142
59.8287562568654
60.0894216803949
60.2753847706743
60.5710974026065
60.8934198557557
61.1936151400027
61.3564955694379
61.6080511760593
61.8630395713269
62.1594331896444
62.3704283478833
62.5742603815951
62.8447984996914
63.2093251373392
63.4069770273444
63.6013493843236
63.8141876489616
64.058270289679
64.3731846701981
64.6196129673715
64.7687784667076
65.1317927487108
65.3788376090707
65.5738754205369
65.85952091572
66.2266671532027
66.4323348790514
66.6787723508093
66.8961237628158
67.1561612138001
67.4035454271692
67.689448666462
67.890375994738
68.191496506265
68.4752177926084
68.7403042083413
68.9488388115486
69.2082524920925
69.4290709364153
69.6639567552023
69.8925149380931
70.0695878598278
70.2486899275185
70.5408378885416
70.7630383926469
71.0277418282122
71.2437795430254
71.4598158266185
71.6558983694056
71.961767298673
72.1517648726435
72.26985589986
72.4077060187354
72.5963609695126
72.7070044400119
72.8354897311797
72.888925076823
73.0610949698421
73.1228945461472
73.1514972470045
73.2001001731343
73.2165219911371
73.2137601379014
73.2199210139741
73.161142838513
73.1042444329321
73.0816750737418
73.0876365538191
72.9459938576811
72.8508974141268
72.7531597762869
72.6742873031126
72.539097587862
72.4442055540711
72.2571280698427
72.0846991104459
71.8610996590566
71.7276201755548
71.5681656831238
71.3166394325033
70.9949341275183
70.7242431905041
70.4592560160821
70.2526276065532
70.0038977789341
69.7543880663802
69.4695427990222
69.3448115432077
69.2350764306637
69.1274341638653
69.0052584220486
68.9835881509158
69.034652817506
69.1349041936539
69.249456406695
69.3738764984065
69.4346448391224
69.6183043300062
69.8356871697387
70.0924316422464
70.2831777873096
70.3843744371022
70.4981111802473
70.6502275793295
70.7293248321593
70.8111142557849
70.8223487608008
70.8418331543158
70.8620505758306
70.927572809466
70.9494469103985
70.9509250554325
70.9041057448222
70.9287259575626
70.9830974335268
70.9897998810558
71.0039040674066
71.1252084256879
71.2220922991886
71.2989466435961
71.3563683462409
71.5214090179974
71.7661386981672
72.0096476424614
72.1288302867694
72.2567657871578
72.4583740039238
72.7136421197714
72.9065104203316
73.1235432235595
73.2468227192342
73.4102853244417
73.6089568070638
73.8257275386491
73.9875553069931
74.2153673700874
74.4581361438705
74.6259374802679
74.770897073463
74.9984716770833
75.2107248469351
75.3934789396933
75.515977686455
75.72230195861
75.9417092685519
76.0912263632028
76.2096394953388
76.4008718217782
76.6406819751888
76.8132702526231
76.9337045056135
77.1304278214459
77.2497495612293
77.399704318356
77.6018490684307
77.8029707165897
77.9547354232769
78.1232282220365
78.2427049579502
78.4010202868878
78.5425351201523
78.7302125352802
78.9204059880805
79.0954993643163
79.2159585884355
79.3114184980913
79.4072478649321
79.576565819781
79.724201866091
79.8293365981583
79.9166022622829
80.0224398014421
80.1263606372482
80.2408070333406
80.37447537558
80.5316282890325
80.6563947234888
80.7581301926643
80.7501811863504
80.8363028798779
80.9730479271927
81.0542402333234
81.1351359221662
81.235983441994
81.3262576923988
81.3870930471584
81.3759392755007
81.4417642942758
81.5576990757649
81.6858944958922
81.7729475190503
81.7801726085234
81.7897311800659
81.9051479185012
81.983982670194
82.0254360402172
82.1052932510339
82.1283720249449
82.156803614458
82.1971810260898
82.2561622775387
82.4009670706015
82.4526664488336
82.466830502802
82.5101388271682
82.6006762094703
82.6858924332759
82.7323940728732
82.801181865017
82.8923756143631
82.9360143752315
82.9962532529717
83.0792243887075
83.1479417129764
83.2020345143438
83.2319049228473
83.2828441262066
83.357482991415
83.4075943112336
83.5060838520177
83.6049826400687
83.6947293409595
83.7408390817946
83.7953706227522
83.8561273987111
83.9332663320584
84.0512156516028
84.1882116792769
84.2787327107809
84.3287223293736
84.3785930092371
84.5238915765182
84.6488212188619
84.714118793194
84.7379935696799
84.8052712215731
84.9473665213698
85.0533359549253
85.1039452144306
85.1730269604391
85.3076942989515
85.4583396614
85.5293309295735
85.6301502303848
85.78084115236
85.912639535878
86.0141225513279
86.1512558552245
86.2356427308076
86.3512961394242
86.4702488536917
86.5975462097185
86.7027274084416
86.8530621854093
87.0289314177778
87.1770646376373
87.2865208274784
87.4234591968584
87.5398311989331
87.6381361418032
87.7681856432903
87.8757612311774
87.9536343745229
88.0362159851248
88.114489985397
88.2136834666956
88.3768502833205
88.506982039988
88.6232963056849
88.7450153275112
88.796378998616
88.9053223812456
89.0893848044991
89.2015371933645
89.3027411039593
89.400066864563
89.4641482749814
89.5200309867851
89.5691120041482
89.6561201613752
89.7127292085697
89.7855870253004
89.9240977651985
90.0272959216477
90.0819575674142
90.1909046661712
90.281938550821
90.312351048467
90.4100762188291
90.5081324639662
90.5182874223924
90.5844943320232
90.6506495994827
90.7033454104215
90.8923174651304
90.9158727811502
90.9299067097134
91.0290702696062
90.9920219106862
91.0355597360718
91.1920182258388
91.2676302116089
91.3226374166235
91.3943797572715
91.3763627406548
91.3765089660834
91.4932976750454
91.601800928011
91.7022035639017
91.7630906349064
91.7399919263593
91.7916756907436
91.7908336794225
91.8126930133358
91.9746222178596
92.071204333997
92.0982443792231
92.1402231286954
92.1770167522785
92.2825570262487
92.3511483990939
92.3366164238888
92.3259283377069
92.4719281154214
92.5505992004747
92.5378785720349
92.5994207021432
92.6837902381325
92.7481265722646
92.7990708529618
92.805319301878
92.8934807110554
92.9691034204424
93.0215102107501
93.0217789862247
93.0511375145529
93.1357808304563
93.2216933115467
93.3073818083404
93.340003923875
93.3528064991886
93.4339608992277
93.540872292708
93.6011468540843
93.6400620930599
93.6321465876474
93.7129006355315
93.777343492983
93.8141948875437
93.8581880693613
93.9316148330887
93.9739625196954
94.0040920535677
94.0269042125489
94.191857739013
94.2404033598692
94.3077975041762
94.3853060123692
94.3761360315062
94.3814236522753
94.5055735532265
94.6130870866171
94.6036636861342
94.563622969674
94.6341482240151
94.6053231128558
94.759244213339
94.8849908636378
94.835107004079
94.829283950214
94.8583551193393
94.9056173701847
94.8581762628111
94.913755375573
95.0596745901457
95.0923292169362
95.0580296369829
95.1064642851557
95.0944025183773
95.011552005977
95.0407398771092
95.1347552615186
95.139103821836
95.0924454231012
95.1385421699117
95.1926976787089
95.2213432766316
95.2525408012392
95.305607824608
95.2775699705929
95.3530737757967
95.4922685988932
95.4790658720041
95.4951685167867
95.5843493743353
95.537236709077
95.5569512070345
95.5964750107626
95.5771177937599
95.5789886156514
95.5718958439296
95.5964701393561
95.5641405666924
95.4946171868589
95.4082175550927
95.2635767913185
95.2199616480627
95.2026016344009
95.0952768496587
94.9096381994392
94.8880896456181
95.0437811321804
95.253639632336
95.4246091584182
95.5253058149404
95.5626952650381
95.5723548759243
95.6344001702989
95.752639199416
95.8008540262765
95.862345401048
95.9144675262517
95.9045631463747
95.9508553686607
96.0464445617234
96.0252132732374
96.0684747839028
96.1158877682777
96.1335696678315
96.1563244534347
96.2442528289499
96.2898142021302
96.3040297807614
96.3891079378291
96.4980273578707
96.6169778240394
96.6929240944657
96.6709134107292
96.7087695980844
96.8209833696467
96.8860825608431
96.9485072463585
97.0461096991996
97.1385436166134
97.3559747389896
97.5064229499598
97.618151773522
97.6464423589643
97.608415884811
97.7154817626621
97.9753061636756
97.8401191596567
97.7597433433917
97.9141913544087
98.0687061146204
98.1825950177164
98.2557971045009
98.2696035483474
98.2962874909688
98.281490979708
98.3982421657726
98.5984638558083
98.7408118968286
98.7239200140635
98.5187942897501
98.7061152654243
98.7836201274857
98.759472640541
98.9279804379518
99.1031824309349
99.2934436395278
99.4400636796812
99.5818640130878
99.6494338585038
99.747815232526
99.679208838125
99.6811515514819
99.6475822723575
99.696498059521
99.7381898800908
99.9727833936406
100.141449762261
100.338802129574
100.213445682946
100.193772442971
100.324971309162
100.512971504853
100.644485547963
100.828709188122
100.762570713291
100.677777066625
101.000382280732
101.231482996092
101.189971994293
101.428723081224
101.533952553549
101.535677819196
101.455340518681
101.572651609915
101.84581386732
102.380192155142
102.876405136587
103.214803267743
103.03417394526
103.19205722441
103.172974302004
102.96386846393
102.361716590972
101.982514074666
101.522336733786
101.228956473311
101.133267919298
100.716483563046
100.293296966158
100.291256134708
100.004173818622
99.9184443386711
99.815396487841
99.6097397168737
99.258665911144
98.9477276461105
98.8644769798679
98.9033194146393
98.8210291295126
98.7148263534931
98.5020973795916
98.294088321046
98.3696281115755
98.5096971493496
98.438226221869
98.4380061679733
98.6765565385868
98.9648687031213
98.7833034002765
98.5312129482028
98.6033227321447
98.8319113214563
98.9012929134916
98.8973316316452
98.8969683222265
98.9573192253683
98.8288708653703
98.788312517073
98.9020071406654
99.0557440887145
99.1290920420729
99.0568132573252
98.9112926190783
99.101861497983
99.3660388817477
99.5077094988891
99.487547458619
99.5965504756804
99.6741893816376
99.8420731596174
100.028686700917
100.059180200149
99.8799304079992
99.9799185993567
100.11475436006
100.346574982113
100.541280123889
100.751471331953
101.117380696024
101.461310626598
101.693617927287
102.104944180783
102.321607002033
102.557925796368
102.431247453721
102.564349024878
102.773664586066
102.911116008539
102.909889925997
103.16748923167
103.008119148605
102.874417559424
102.910086182554
102.82924295679
102.835859153919
102.741515540507
102.883917279292
103.127784315402
102.704649095772
102.630842950878
102.425301949533
102.305838856315
101.97340347933
101.827048570169
101.775884689513
101.694468374092
101.598195610247
101.62518259524
101.490857800842
101.580317814997
101.476469144089
101.31466585928
101.594175512889
101.910726391388
102.120785893072
102.254068344913
102.104640417673
102.592340493366
103.032590646311
102.695795128607
102.314004129276
102.447404756806
102.225911328037
102.061033737381
101.708406474978
100.924846163769
100.704308623243
101.181553089068
101.095885298772
100.714995817775
100.395403112808
100.291380073509
100.346199369691
100.371391796319
100.01862899985
99.8486474779402
99.9251507710085
99.8048981966993
99.6155134357514
99.4746553435719
99.3042988325013
99.3202062901525
99.1933925601648
99.2232614968339
99.4092683646688
99.3548848389073
98.9820497750696
98.7656825983858
98.7977606120617
98.9352999400217
98.8582503225877
98.6099433195233
98.5900325332487
98.64232685386
98.4834381479798
98.4564458122731
98.5355668761949
98.4376302061548
98.3172922379086
98.4259010243069
98.3297277762575
98.2795178553344
98.3027045917777
98.2384872638915
98.1150467112223
98.1586125673726
98.1067928713772
98.0278514566191
97.9596969902703
97.9589471370932
97.9975036501157
97.9862187557298
97.9272250172462
97.9370554518924
97.9719915329996
98.0666808692871
97.9620348368057
97.8531491950002
97.790190912721
97.8246192319082
97.7700756294113
97.6772113923481
97.620637709272
97.6107319658869
97.6030978561992
97.6555941980279
97.5565319463786
97.5112206020586
97.5640161540263
97.6005518410584
97.5143837229122
97.4720014177243
97.4031111853031
97.4089604055658
97.3786604179497
97.3060235433926
97.3088328758022
97.4075578309716
97.3121494413801
97.2579694280293
97.2025640539003
97.1494357963403
97.1116077804184
97.0852161267868
97.0444078126208
97.0421945123939
96.9746723915005
96.9359626491391
96.9361298293399
96.8831505173211
96.818892560573
96.8387868009678
96.8199214634215
96.8243718546831
96.7820054391028
96.6433924577858
96.5172347662665
96.501565654138
96.4299755605386
96.3395169623047
96.2676349794873
96.2056993684597
96.0986993713691
96.041808480352
95.9793235741785
95.9242332488346
95.8695387372572
95.8172976808875
95.7278350095557
95.6296177839357
95.542421995308
95.4597697257056
95.3707915785002
95.3293987501655
95.2566467954582
95.2229848979607
95.1426084506798
95.0595689674017
94.9510651260853
94.8080257108428
94.622447794649
94.4021589642793
94.1706619609625
93.9522029769367
93.6959104928756
93.4845020559444
93.1947968849385
92.9133303218715
92.5312132304964
92.2309330412119
92.0189050595215
91.8017542805979
91.5760256000426
91.4346303605481
91.3346939549498
91.2915858563765
91.1593132127808
91.0254878227766
90.9741671907665
90.9630105487413
90.8163399192421
90.6535093325788
90.4594232431709
90.288549674815
90.0559448578934
89.8569098722409
89.4879708479806
89.0435525155543
88.5996598057609
88.0239645392753
87.4600641975304
86.9864017951188
86.3586325035516
85.6681677853792
84.9727528109079
84.0840628513873
83.2048279579758
82.5344294710085
81.6835905515948
80.8274383227098
79.9020801837611
79.136818543608
78.3321960823703
77.4682617047975
76.7271556668188
76.0577837432989
75.1944919651358
74.415800654336
73.8133000914208
73.1348116625348
72.3023864651804
71.3968331968332
70.5390275689146
70.271625109034
69.5351946763549
68.4835775937167
67.689177983832
67.1073199816946
66.2505723078494
65.3129873781096
64.322645214573
63.297628733318
62.6021986111826
62.0320056366763
61.0913420426173
60.0868200758856
59.2154903789857
58.3846842353729
57.50738807698
56.9108842915828
56.1328144025338
55.1305047402225
54.4671752435897
54.1148792222007
53.4570315966137
52.8261404711527
52.2982932787389
51.9343075749716
51.5544047188611
51.2533823756819
51.0386863504891
50.9554433477558
50.8358496826288
50.8289960078788
50.8689020272456
50.9611548658988
51.0895883429892
51.2855008477202
51.4517524753253
51.7104629430404
52.0142427589434
52.3506153766124
52.3267715551232
52.4974472614036
53.7449979506861
54.4353285480112
54.375217682959
55.0502282093901
56.1703476223462
56.8703463141319
57.5442133932225
57.5092089297269
56.8863106896352
59.7170285868594
61.9665880570407
62.8000869821106
63.6397879804206
64.3719940709384
65.4773155045538
66.2283676532889
66.7457877982963
67.3974245499536
67.9467334870901
69.7926763770947
71.6150246908637
71.8585874645
71.9756604076622
73.0111514741535
73.6568743401169
73.8404656687548
74.1544517117183
74.5953615204559
74.6748186156243
75.107955750467
75.5552628413463
75.6376334913462
76.0523780034127
76.3331826685301
76.509438944446
76.4562697336331
76.2507897072756
77.3603309208842
78.2810614789881
78.2319463513926
77.9863661410303
77.8787367606025
78.0529472495907
78.2877404064358
78.122187974241
77.6907622265305
77.5920377435286
77.6173361882934
77.4450520335887
77.0608234364092
76.5917657358982
76.1275898745633
75.5540010237209
74.8321932649549
74.0686513328289
73.3320525383408
72.8229298876382
72.0577090045357
71.0698589974088
70.1272176564624
69.5334397492277
68.7685928149546
67.7236215781337
66.7434262111472
66.5786397975085
66.2074605890152
65.556843419253
64.9031950768123
64.3765837660249
64.0220104014432
63.6174916912605
63.0605905462229
62.4284031356622
61.6231490574696
60.8133728377757
60.3934287404087
59.7435061449705
58.8070968435597
57.9753592168361
57.2644675584258
56.4665737922857
55.6932981630894
54.9745611509661
54.0961846783205
53.6014072362565
53.3283683358849
52.8046892614297
52.2621035204169
51.8850840957734
51.6508348962308
51.4210673988152
51.2838246340971
51.367870825458
51.3338718249918
51.2039923205637
51.3373368984061
51.4703110716634
51.8238622386408
52.1921541416114
52.2776594940485
52.3525699596983
52.8445261965586
53.4245773123052
53.734531765011
53.9659915576915
54.2427143914761
54.4764943401073
54.6052349001092
55.0258062841105
55.4807013195356
55.6291774055471
55.8420426628291
56.0877773924252
56.1786946244018
56.5249298213961
57.0751529006263
57.3998689987534
57.5596238475166
57.7301125276014
57.9610243429261
58.1314532846646
58.268197784205
58.4198787530035
58.5707238401119
58.7159469282087
58.8055435498016
59.0095106923683
59.4807747556296
59.9557461068756
60.3262458124427
60.6171801438223
60.93015809883
61.247262457949
61.52512077844
61.7600581151337
61.9807472660918
62.1442155996838
62.2934277399249
62.5277293004601
62.7384461015772
62.8895218891077
63.0726838996458
63.2425593920846
63.3846396676033
63.5490939148452
63.7319883520098
63.8783282414927
64.0257942477969
64.2015195940691
64.3588497854085
64.5096303584653
64.6433847611246
64.7433130668501
64.8271758702528
64.9118980697369
64.9993156677693
65.0411527638509
65.0592777744369
65.0960155210681
65.1209205037306
65.1154261500545
65.0769569876143
64.9935961840825
64.9018973667119
64.7587349427235
64.5549576070657
64.3736275869702
64.2076961160257
64.0510371571054
63.9424140062836
63.8894569413935
63.8697902522033
63.8812680691331
63.9197593002937
63.9518371879432
63.988505403408
64.0209381474589
64.003670667599
63.9847316866213
63.9496435088605
63.8764398529305
63.7931436286026
63.7095514278217
63.6372400866527
63.5614874152499
63.5161813796253
63.5037375244694
63.5258965469036
63.6065940283432
63.7467021014563
63.9119276676488
64.0824449298603
64.287352405078
64.5006289509623
64.7138767726627
64.9358168596338
65.1005349244304
65.2112169325639
65.3061594560721
65.3334931415294
65.3023570343285
65.2698182675519
65.21756341698
65.1047713448792
64.9468963507175
64.7726679927988
64.5873976538805
64.3680054364734
64.1300166486703
63.9142945819542
63.7296068205627
63.5802689148453
63.4397136416873
63.3229987671753
63.220526933156
63.0785718418416
62.8615638582307
62.5839918141914
62.2226425062247
61.7368793451642
61.1047235733551
60.3430132394518
59.5380370510659
58.7319890301626
57.908938523399
57.143071527612
56.4480307872427
55.8364050648862
55.3297799889264
54.9155679622358
54.6065182054638
54.3868715530334
54.2116061557104
54.068039626422
53.8952071065591
53.6991347492753
53.4549376020418
53.187903687505
52.923981273314
52.6262337252595
52.2789833395388
51.9272710153429
51.5601714199255
51.1560307474578
50.6814221870615
50.1292005528696
49.4519511683419
48.6352667142894
47.7002083054351
46.6727077837787
45.5486984852982
44.3914042758478
43.3007553527928
42.3708863642313
41.5866916156341
40.9814355110957
40.5586532103501
40.2208554365498
39.856750528204
39.3687364682001
38.6313010532717
37.66291388662
36.4994908356253
35.2541217079691
34.0242764411316
32.8616591597079
31.823010301801
30.9614336147516
30.2388896752844
29.6565669841626
29.1131619376284
28.5297448920603
27.8747916851708
27.1451768676713
26.3596005236709
25.5366414985694
24.7240075314236
23.9659674748705
23.2385623858145
22.6002490835792
22.0805719813187
21.7109035286385
21.4675661687309
21.3156117308551
21.2160276304783
21.1827429805207
21.1102387200163
21.0015430889895
20.8650201946478
20.6728345152676
20.419932776185
20.1788272779563
19.9973415966605
19.9207844175345
19.9653705052048
20.1666526664111
20.5022588352142
20.9491752949659
21.4422378735805
21.9355977388943
22.3861301373176
22.8202956753063
23.3318578894522
23.9657522939514
24.7458475456239
25.6890119839792
26.7942703720236
28.0440208485092
29.3517406314894
30.6248762610911
31.7647543162775
32.7260704026038
33.518147147474
34.1571010319582
34.663514308806
35.1112852514396
35.4562827932869
35.6471476831947
35.696763286118
35.7189263038148
35.8162762488751
36.1499326889687
36.8143590027625
37.7318741366762
38.6585745772332
39.4255820287072
39.9849431871277
40.4661532682244
41.0672837323433
41.956267962575
43.1109337594916
44.4557780916125
45.8103888806527
47.0981457832902
48.2722963894511
49.3161714288923
50.2074104864739
50.9397788927656
51.5872747761947
52.149703824354
52.5738134107946
52.8995225566824
53.167486582971
53.4135324418145
53.5633594189871
53.6268416953775
53.6528455107704
53.5944024763683
53.4175565196917
53.2186875149073
53.0355932358668
52.9485429731672
53.0232076372463
53.2820558147686
53.7170063971601
54.3041911443101
54.9134478292902
55.5085687402476
56.0027170930766
56.4116107920423
56.7242782438072
56.9520321472964
57.1132492389103
57.2345469059215
57.3662644157231
57.5823610518437
57.8048528925543
58.0555075259993
58.2860571454766
58.4937822163078
58.6621084508271
58.7134638110492
58.6280876153204
58.4363110166734
58.0653929731648
57.546380614133
56.9494918591148
56.3309997578652
55.7655452030949
55.3293478872952
55.0040045646404
54.8996645409174
55.0508688376936
55.4124884212239
55.9623412392921
56.6163513617042
57.1805507128133
57.6734225762292
58.0935380325319
58.3607069654502
58.4653774869712
58.5346835765469
58.5787421582702
58.5647273241958
58.5338979028192
58.507839829339
58.4521935703289
58.2896148664043
57.9562262363842
57.4569046067211
56.7336523387834
55.7973047687611
54.6264670395211
53.3540519826415
52.0734497463921
51.0060536281139
50.2945149543361
50.0647164285131
50.3244821775184
50.9398095280535
51.6965878832041
52.4919156355014
53.1587472955637
53.6622501724335
53.9260212651071
54.013971026177
53.9828090425926
53.9052242724815
53.7107697383097
53.3383044687334
52.8105740129694
52.0852798992764
51.0542725972528
49.7950153829801
48.3732130509706
47.0264849920047
45.873294733312
45.1369789327382
44.84615712506
44.9974334647535
45.4569046360015
46.0814798428811
46.775349931221
47.52361593691
48.1818297383987
48.6906536138366
49.1031713303715
49.470997563934
49.7061849423665
49.8720879283178
49.9801856082442
50.0712640670818
50.0850949368099
50.0444500358522
49.9451422138738
49.8502641540262
49.7574031212808
49.6076871559176
49.3479187152395
49.1548548113948
48.9884928108003
48.7931283601189
48.5228808260316
48.2827345893689
48.0272405312794
47.8065183329557
47.5699510839369
47.3246330307066
47.0560804229345
46.7964089321112
46.4979262999089
46.2298294427728
45.9311053356344
45.6372021693551
45.279120837384
44.8512830248394
44.4807195058722
44.199433110706
43.9345463236834
43.7815195314909
43.6754674431127
43.6540166172101
43.5846163018217
43.4448111081436
43.3046348898848
43.2871616121018
43.205835821473
43.0727296569171
42.8832262551874
42.7663477780209
42.5517788669941
42.3305611684404
42.1359238100892
41.9922850479106
41.7750036002738
41.5470249903726
41.1879918654022
41.3412365103767
41.2655093268461
40.9222364146586
40.707187460295
40.5894089222867
40.3865527151801
40.1869564967333
39.9880092660532
39.7511564715232
39.4775857055038
