1798
3999.43349933624
650.420452594757
1
128
4
92.754861803226
92.8294181825164
92.78394925865
92.6327890753579
92.5705723991745
92.6509244975721
92.6981643643577
92.7582218998711
92.7524774114883
92.8184377653024
92.8159070774627
92.8179149080076
92.8109390561316
92.8208049129775
92.888399261164
92.9640599821468
92.9177316092557
92.8266883220308
92.7853570418442
92.8663107947271
92.846519095274
92.7498985872836
92.7891873839826
92.9494335124311
92.9166103119551
92.841716229726
92.7345076156702
92.8175005179782
93.001951077791
93.0005377890155
92.8286817942272
92.7801011361662
92.8009683812926
92.8969692787768
92.9120359031926
92.8814168911033
92.8426008735769
92.8725384995402
92.9303032305894
92.9471671633141
92.9014583825367
93.0191078623526
92.9472304875575
92.8190194436972
92.9226964865856
93.0581031239667
93.0862077502097
93.0805641783712
93.0398476208378
93.0572557401809
93.0338053840528
92.9490848092086
92.8089770111837
92.9624240901568
93.0537410197803
93.0671522472573
93.0672705114749
93.0735882171938
93.0290551512615
93.001474955139
93.0093967861677
93.0829346486248
93.0444167232425
93.0550405837327
93.1541350122917
93.2925661586076
93.2890139699203
93.0899586632661
92.9637528670501
93.0896687928274
93.0632748030379
93.072601012273
93.0976590530839
93.1560208072011
93.1104965767441
93.1167468388603
93.163847078773
93.254279217113
93.2420957862008
93.189975819394
93.1523507504449
93.2419661400987
93.2731985277774
93.232477005815
93.156665632267
93.2488324825282
93.2914450778852
93.247555924916
93.1433968996635
93.1892571185852
93.1631873739145
93.2347538677635
93.3137725508474
93.334629474055
93.2805055441841
93.2359900994669
93.1895427571852
93.2293065836098
93.230528718268
93.2854812299113
93.2977371332875
93.3466573920173
93.2686083195745
93.2729171644242
93.4142387557506
93.4305438797438
93.2987206442196
93.3280483286329
93.279690211454
93.2414587253021
93.3198696054493
93.3789788864388
93.3992184793669
93.4061656144225
93.3546613971898
93.3695320739444
93.3765194334474
93.4199248930909
93.4109881011582
93.438717925894
93.4439075359731
93.5175534810114
93.5741941504168
93.6305338028521
93.6451850983988
93.6288397317256
93.5451055733536
93.5381069394141
93.5333638425413
93.5557795205477
93.5411171679894
93.6266185236533
93.6279824834589
93.6982773659827
93.6269330998629
93.5650460330285
93.5257019632323
93.5546556430797
93.6831987095999
93.674371077213
93.5099061605796
93.5163575978022
93.579153307343
93.6874428326834
93.5394799287674
93.5143110425274
93.5896163527201
93.6156682979192
93.555864201237
93.6228333098761
93.7533149424939
93.8834999543262
93.7768446906746
93.6313043347973
93.6698041091384
93.8140712363431
93.7896514257459
93.8049334794264
93.7576382294677
93.6428320452132
93.6765521466362
93.8014291762254
93.7511315091981
93.6535492241163
93.6343491524675
93.7079122211384
93.7228152725491
93.8257568816069
93.8450482071118
93.8902006501639
93.8838884428754
93.8077280142795
93.7543755803067
93.6950250762572
93.4734946259633
93.402108292872
93.3847140112479
93.4842103509687
93.4247856546524
93.3766528657197
93.3554956276384
93.376768849495
93.3409146511775
93.3027450570203
93.2692796942704
93.320381660634
93.166544376963
93.0635460549229
92.859967137786
92.6776201502713
92.4723149695228
92.3934787611517
92.4066438360156
92.432005387311
92.4173544946322
92.3736818862533
92.258527456046
92.1561831111054
91.983258391218
91.8747739449484
91.794314440703
91.5921329869232
91.4734163273771
91.4428809658994
91.3695429576682
91.3875202002907
91.2152609317586
91.0797560248182
91.0454493724016
90.9743802306574
90.7929967360673
90.7149602720408
90.6275314782664
90.4679143597603
90.2851074343906
90.2498767125889
90.1768925407827
90.0189867646602
89.8990396372448
89.9420883802644
89.8353173515616
89.6055659688891
89.4386794162923
89.4531594159809
89.4028507697666
89.3188723485124
89.0680716157535
88.9710621365949
88.9612474941021
88.9314681148649
88.8329946747217
88.7392020371018
88.5546158604687
88.5208151932769
88.4029732561824
88.3536205613682
88.3835950693264
88.3128312366358
88.1363831308137
88.0338444063462
87.8614476309028
87.7677700690835
87.6869428410413
87.5703165946058
87.3651585434355
87.3186967099217
87.266605372853
87.2697269541501
87.1370988944293
86.9854890347289
86.9389866734063
86.9526828608959
86.8109677507989
86.6631925211792
86.4704177738607
86.3915084547335
86.3403991728121
86.2986499211711
86.1489495454976
86.0607787671963
86.049715602916
86.1395817906842
85.9208123606438
85.7872533148336
85.7293434006121
85.6421088314978
85.5003548395428
85.3758813803412
85.2412590972952
85.1672744497531
85.0908618870788
85.0986445937278
85.0499786810904
84.9092274227443
84.7430429095544
84.7840064627769
84.8147665116238
84.6497351052309
84.4805159281502
84.4368994606052
84.3609043105431
84.3755301692358
84.2695358314107
84.0829166733804
83.8666122706931
83.8071502114535
83.7849897721541
83.748928824091
83.5712124231942
83.5121593676089
83.4816953177845
83.4809344032349
83.328624685149
83.2677487166101
83.1780628037258
83.0214772848686
82.9134533053721
82.9903955222506
82.9281903930036
82.8224067044651
82.7014297362556
82.5796173472938
82.5770791108728
82.6148814332162
82.4829774383803
82.3707720616606
82.2952391537166
82.2728341241662
82.179834461445
82.1124196443274
82.0483635223349
82.0123735077266
81.9208882614109
81.8686430165911
81.7211909850178
81.6824384840682
81.7119697676286
81.612737913119
81.4526437753543
81.5266517935548
81.5213291717098
81.4925609583682
81.4803222142603
81.3804721994687
81.2200592977402
81.13084129521
81.0084865092604
81.0286390139449
81.0428695174172
80.9804449017615
80.8671335871641
80.8573579510014
80.8294028190702
80.8181952209445
80.7784275331283
80.8182191099787
80.7294033980556
80.5939231001611
80.5083144564945
80.6041660184612
80.6277373906527
80.5671637739678
80.4946414836459
80.4840659132309
80.3445039395099
80.3515266805238
80.3410805521518
80.2616174778117
80.2355882910122
80.2451974309228
80.2647716675743
80.3509692142875
80.2719337770799
80.20462284418
80.1579280671159
80.1803214939976
80.1481249697349
80.1693304299658
80.174171227108
80.2139312669887
80.1254270313351
80.0807897272187
80.0597030127852
80.0836098558797
80.0361834283309
80.0926139842222
80.1571226262175
80.1446091809498
80.0152240213295
80.0060945449292
79.9997350362977
80.0926621962842
80.0657165855842
80.0297979354725
79.988722139963
79.9452862893912
79.9139691910034
80.040265084082
80.1087213882309
80.1006345624786
80.0154397509816
80.0253073799354
79.8927315834166
79.9111874578151
79.9843431503331
79.9509903228543
79.8846336457809
79.9278602444472
79.8906204801498
79.8778635911759
79.9484813512216
80.0685410455556
79.9502821262103
79.8780535393291
79.8485315140729
79.8614329455922
79.8387622261874
79.8806864094707
79.8326458003281
79.8108401597761
79.8094968130392
79.8667658988858
79.887894320601
79.9732489073398
79.970296922044
79.8781677279623
79.8692720974935
79.9477255589175
79.9826406881048
79.9833990099092
79.8966003947457
79.8914975279073
79.8781810855877
79.7699964881977
79.7577572065168
79.917511692163
79.8663663837226
79.8252527126042
79.8154476254448
79.8819751854425
79.9556866538854
79.9895392046906
79.9342487434716
79.9760848496694
79.9880600855471
80.0485682471637
80.0077133227247
79.9081995884292
79.8785193049822
80.0224913909328
80.1194940455635
80.1465281238362
80.0706701267121
80.0810540461896
80.1765447575933
80.2128418052289
80.1748699106835
80.2233388993673
80.2248749127498
80.3114968569642
80.3401674938044
80.3504148821489
80.3765301711153
80.4141945500511
80.4132178731581
80.4386673891293
80.4891422772892
80.6185743172157
80.615223205181
80.642683393762
80.6546289677911
80.7069399222314
80.7477034961166
80.8540693737651
80.9433645464102
81.0223033183404
81.0260177900554
81.048011397921
80.9879223392001
81.0241737014663
81.1653818603611
81.2977322052984
81.2901773989975
81.3353332635286
81.3457025986766
81.359126526827
81.3060988368083
81.303188575699
81.405217497723
81.5456920148379
81.5994498181805
81.7204432232269
81.8461695617293
81.9488405741124
81.9411173062258
81.8856406470832
81.8072752199041
81.9308493243534
82.0122170867979
82.0117705383003
81.9924162364851
82.1306130577126
82.214088740675
82.2359879028772
82.1536588099507
82.1842666121712
82.2657667064024
82.4011949231962
82.4281411649719
82.4717211400679
82.5348198516987
82.6393096172221
82.6569577139881
82.7491154251439
82.8441019921282
82.8439958818224
82.7723045200971
82.8189943511605
82.9076046869228
83.001465425264
83.0305894487116
83.0902987322429
83.10896568241
83.1626729047346
83.1349451975918
83.235562032567
83.3552733783336
83.3813244116674
83.3602816955496
83.457274444514
83.5748538147247
83.6499655728142
83.6696681462935
83.7183443887912
83.7875005541793
83.8528571091111
83.850840389321
83.9728616383636
84.0069259599987
84.0218308128479
84.0421240689623
84.0286103423985
84.0560615968491
84.1507598199736
84.1717365090947
84.2013887391114
84.2670714438858
84.3272363066649
84.3512480587765
84.4328137503613
84.4804557308131
84.5082498398102
84.5137494284924
84.5254643881301
84.5284701288746
84.5949295870189
84.58298598348
84.622858845144
84.5952184930082
84.5973835393986
84.6540537505747
84.6505352031158
84.5752191611367
84.5952583384402
84.5981424553798
84.6262349760937
84.7323625745625
84.778133437783
84.705503580892
84.7255279537715
84.7529626101865
84.7646011761803
84.7400714175388
84.7220066884016
84.7762447025728
84.8956602444313
84.8918548844951
84.943223531723
84.9519211167597
84.9321739328928
84.9123781389811
84.9954957645781
85.0319309260997
85.014572236941
84.9935954189698
85.0839414714976
85.1527274969675
85.1410300287378
85.1097344780378
85.0925876686392
85.0777953566484
85.1478202103382
85.2113358454281
85.2991926100673
85.325170964373
85.3504970677705
85.4523368372568
85.5409740688674
85.5529989881178
85.5748506173292
85.6543870462523
85.7721496441247
85.8418682816184
85.9576947884071
85.9779610991364
85.9969409844048
86.0252064977012
86.043329255412
86.0269237684745
86.0703181513734
86.1029836248814
86.160621118597
86.2745398712046
86.3298518037825
86.3228435933966
86.3644569066272
86.3771694073241
86.3813997222076
86.3723268878057
86.4299414400433
86.5027548506273
86.5421491531423
86.5843851877547
86.6645845459487
86.7283958584761
86.7991437438618
86.7891456182783
86.8224674347947
86.8361383471157
86.8582266365661
86.9189139224849
87.0421224378301
87.1498364334662
87.1651934424198
87.1800752690203
87.268757823363
87.2840937415858
87.3085201285773
87.3611024120786
87.3707912483621
87.3816140947692
87.4368618792344
87.5268240377253
87.6260636586923
87.676327880982
87.687300028896
87.6663509388878
87.679763069137
87.7415437150422
87.7944046008031
87.8049704285229
87.8259574559813
87.8447697951802
87.9029759422118
87.919681088012
87.9211336665919
87.9430633558401
88.0226374407873
88.0677514761458
88.0913548009793
88.1257697191473
88.1559785222939
88.1564490684327
88.152181971286
88.2098662146783
88.279007276196
88.2509706935013
88.3164157010133
88.4415904037621
88.5425582110351
88.5171398323087
88.51592232146
88.4999184810932
88.4873432370804
88.5109336556943
88.532330649234
88.5848299790459
88.7140851631534
88.7333899634396
88.7495742227073
88.7899632252788
88.7840628122378
88.7423243589581
88.7442878341902
88.7651161528297
88.800802433646
88.8763605616961
88.9511243512193
88.9245168160293
88.8992039217016
88.9337115812759
89.0182992368668
89.0539214706167
89.0616583952323
89.0803974515935
89.0797714107708
89.1028796475275
89.1670148181144
89.1800936879132
89.1850341326485
89.191668088339
89.212904182695
89.276204769426
89.3292791774014
89.3187246697598
89.3371875316568
89.3415032386066
89.4005260909133
89.4652000655303
89.4385177679535
89.4354781554349
89.464177345255
89.4577065698651
89.4922852851073
89.5601049596511
89.6322847356261
89.6447446532274
89.6273562379496
89.6480578072345
89.6991120329662
89.6982073687067
89.7320011866285
89.7434415156311
89.7597920689438
89.7603595501301
89.7683873803416
89.8328057526349
89.8764927334071
89.8746451987479
89.9157909753545
89.9307927178295
89.9273373300374
89.9800169079362
90.0364576361354
90.0369194727942
90.0405328392357
90.0484902625972
90.0836285205632
90.102830093218
90.1024673716617
90.0799340272386
90.108263032559
90.1700542758974
90.2085081631838
90.2041704629023
90.2313262857075
90.2859212942802
90.3401955977342
90.324820215984
90.3098270918228
90.3539767922301
90.4344294786366
90.4845739945533
90.5408909925701
90.5647613902566
90.5499125675365
90.5334707080585
90.5502522539887
90.6202610608254
90.761589902186
90.7835222870841
90.7817541447469
90.7491358964266
90.7819535329125
90.8796161753471
90.9168963944512
90.9285389901605
90.9776121388964
91.0097626813906
90.9922049927733
90.9697938635384
91.0442258435217
91.0778839916847
91.0735864437413
91.0795855447856
91.1914925284139
91.233302178619
91.2307308521471
91.3269645321346
91.4272155824718
91.3895981890496
91.3503925024631
91.3438038189241
91.3874953542301
91.455166420586
91.5325470159091
91.5334671927321
91.567234458402
91.543512940425
91.5351285760665
91.5395131400378
91.5329620833221
91.6145226231151
91.6903234201351
91.7027933796443
91.6279891650822
91.6012351301735
91.6732941993227
91.7048149685884
91.7827205701121
91.7983150291604
91.7215265604874
91.707427931681
91.8256380247254
91.8682135728636
91.8301158063314
91.7876837808752
91.8574474105489
91.9591419048796
91.9363373180876
91.9244736736921
91.9324334303401
91.9265133206645
91.9530736567737
91.9799174885905
91.9989677928935
92.0572448026232
92.0923831477749
92.0498653386168
92.032991560563
92.0911915306893
92.1898087550203
92.1236336755622
91.9815978691593
91.9686048475347
92.0196633927614
92.0711003295926
92.1097600798424
92.1135535537961
92.2020373700143
92.2013982117876
92.1012722220928
92.0990384773391
92.1423915157113
92.1807876572766
92.1363222804079
92.059879512919
92.1279564296036
92.2224223788467
92.1881012177224
92.2046472564934
92.2762333329905
92.2149766899983
92.1203506694585
92.1649743206845
92.2391117214435
92.3012788909171
92.3085961899498
92.3022303670716
92.2805642451398
92.3067873137578
92.3987045682523
92.3784346507471
92.3561222789345
92.3618495044479
92.352540550279
92.3615097838187
92.3701807980618
92.3604588126743
92.3307695708014
92.3363651523685
92.4063525906141
92.4195498090838
92.3942885877809
92.4184739886814
92.4374481193686
92.5060123895602
92.5532472882829
92.4537971193666
92.4757887542078
92.5467393121011
92.5083612654032
92.4742892133255
92.4127351038205
92.4206555888889
92.4265106665895
92.4778794347655
92.5396968442599
92.4621187873344
92.4241865144801
92.3791038721269
92.409867637844
92.4896045034874
92.5233200751573
92.5063315314277
92.4790543010732
92.451544075692
92.4180226428224
92.4584470079379
92.4758059436625
92.4538584494079
92.4755333498313
92.5184161669893
92.4828554951978
92.4700342308532
92.6339155745708
92.6442515921691
92.5891382293853
92.5443767468764
92.4999832105997
92.5944290414934
92.6530553777046
92.6204794573518
92.6042691331853
92.5708818367375
92.5603398041849
92.4523327661794
92.3570494992058
92.4046443542039
92.4756762879358
92.4647428466973
92.4508369708552
92.4227721248758
92.3994121442258
92.4640839384357
92.5724975405213
92.5482406497268
92.4725690515913
92.4124612201191
92.4353542267941
92.491554392516
92.5506320796879
92.5495103267017
92.5767474600114
92.6467511351111
92.6552512124783
92.6829576479776
92.6425524509515
92.6073077940474
92.742620490295
92.8790302688332
92.8728720526911
92.8194235661433
92.7508623820613
92.7485027378192
92.9127961204084
92.9465165359257
92.810253799171
92.8570743290228
92.9745010933758
93.0356890491798
93.0812329263947
93.2127382844289
93.4278297205216
93.5442447805162
93.5077737542468
93.4743250936839
93.5132416893603
93.5138188952032
93.5068711264343
93.568303663884
93.7792138438896
93.8970927879407
93.7968899523179
93.8617645604446
94.0558050331021
94.0764330717844
94.0973969703194
94.2070422393176
94.2814697257562
94.2180617705389
94.0896601819875
94.1479725903035
94.2858945942225
94.4794687410473
94.4943075668939
94.4501492295525
94.431322239612
94.6370964257433
94.8062648744377
94.7773876156468
94.7209277005607
94.7034136746431
94.9540084936476
95.1448930159026
95.0284192644065
94.938341133534
94.8481028305241
94.9271949950487
95.1551928887816
95.4168983425102
95.4871149087556
95.3147223713153
95.396721790928
95.7032243112997
95.5499149941452
95.5567685251728
95.6207520910379
95.5665922496163
95.6651623655214
96.0196556997604
96.1419871768605
96.1772461618997
95.9641648824799
95.8881429594294
95.9470686115936
96.0158205813014
96.2626689097415
96.3842223708715
96.8174987087308
97.0382481329906
96.9989198662718
96.9833191950867
96.8783762045065
97.1113075857328
97.5376400787845
97.5285908737518
97.636853432207
97.710232197414
97.2679820010976
96.8500311936026
96.8706695708472
96.5746952080208
96.4926386529406
96.6651880552454
96.5852270218179
96.275281790039
96.2874273662972
96.3202110936211
95.7885055092537
95.4996885200252
95.5205632727415
95.649503037604
95.3598247244552
94.9971929007126
94.7870582031594
94.753206325586
94.7751021302913
94.8563328847213
94.9762237720785
94.9272055315638
94.7948172212179
94.81971560601
94.888358409636
94.8029653612936
94.7987850548431
94.9228324552285
95.0488655879155
95.0177976870629
94.8772728763185
95.0017739977828
95.1658091968928
95.108958833247
94.9870594872603
95.0342568657439
95.0592820030003
95.0039883899501
95.0332754963613
95.114229523693
95.1965637660396
95.3349355654791
95.3184276743278
95.3669363884807
95.6038389854449
95.6635925504137
95.6634726069911
95.5812919685758
95.5429467481381
95.81455908883
95.892415046286
95.7602013651357
95.9207725410663
96.1184704006856
96.3846679121476
96.4714327316011
96.3723157829192
96.5181406810123
96.86409661351
96.9496353819743
96.9679946116843
97.2250922133485
97.2673999041387
97.5641509142772
97.5905552483289
97.5693684498246
97.8553330542099
98.2630233550476
98.4738128432023
98.028707500109
97.8443580533672
97.8669060440617
97.6208988972228
97.7097642140229
98.0166427130741
98.0750065930152
97.7838302725613
97.5411370256273
97.2397820722169
97.3537475429302
97.559529760165
97.289627033346
97.2290801037476
97.3324031193451
97.2832565037614
97.0765133529826
97.0966260851316
97.152579468297
97.3073579540887
97.4065947832547
97.1070953804407
97.1031588151061
97.2171820899984
97.3829883074381
97.6792548071174
97.7811066473187
97.9202800030943
97.6875173951665
97.4067098273764
97.5562625883368
97.4493888196936
97.318888406607
97.2735615014887
97.2067092136096
97.3019654374241
97.3596789172281
97.1255374903821
96.9463433054746
96.7744548118626
96.5365451050646
96.3183149327547
96.3887516187898
96.3665391524703
96.3153485066561
96.4613346312858
96.4058174491692
96.1235448527724
95.9977653288528
95.8185600184451
95.8566985369941
96.1023550665241
96.1371929303745
95.969701668084
95.8835818839606
95.7937724847274
95.8095103461943
95.914579997438
95.9162126644305
95.7684851184703
95.6309481870112
95.6416301470236
95.7667703515667
95.7287992168566
95.6863024533429
95.6619659889028
95.565215790672
95.5150337870031
95.5730043603688
95.6078065831563
95.6108189083246
95.5473631289331
95.4928760292432
95.5051490973918
95.5827126974625
95.5736862489234
95.5268105180779
95.5385088217174
95.5945889943255
95.5957534808353
95.5381056634022
95.4967111341878
95.559550489245
95.5497368695584
95.527382644791
95.5695845042974
95.612368300429
95.5731143053122
95.536177935309
95.527690734648
95.4818695180997
95.4398248362177
95.5333312014962
95.605033055569
95.5443626011236
95.5639630026397
95.7050739699647
95.7003522714452
95.6875868794641
95.6648094010925
95.5748437391897
95.502726168783
95.5364374884326
95.5547240929161
95.5564780454658
95.6001631356058
95.6039124782607
95.5180143893074
95.49510622429
95.573642830392
95.6320742555236
95.5894745067265
95.5629427745121
95.5740016918707
95.572235539478
95.5323037697101
95.491713715499
95.4663279163369
95.4046742983945
95.3342945791142
95.3043569577161
95.300839952863
95.2655591316488
95.1691412563955
95.0683520311739
94.9670866345926
94.8689081053842
94.7642915074942
94.6620535169694
94.5217153018468
94.3679607214904
94.225040553889
94.062145134559
93.891921191008
93.7288956389952
93.5432644145176
93.3585834329771
93.1347119259534
92.9663686749541
92.7803610521575
92.626150366536
92.44495101325
92.2463350165716
92.1187042266317
92.028929675698
91.9028400813642
91.7923537114914
91.6253494087521
91.4992647641558
91.4166625433953
91.3572698706687
91.268557738608
91.1301743865245
90.9897035335541
90.866928407439
90.6869734337069
90.5167875055504
90.3019117198795
90.1414522383934
90.0062622678793
89.7633655635641
89.4765341507646
89.215307056339
88.9501547086384
88.6645155935518
88.294892782493
87.9214373966304
87.6621163293033
87.4827947878186
87.2040819537717
86.8826723477292
86.5320578063053
86.1627526684326
85.8091257212192
85.5345440729743
85.1405539656496
84.8110846741117
84.59797523335
84.2751271603223
84.034460528423
83.7578215800969
83.3272844405708
82.8939750344023
82.5024803456217
81.9956587349525
81.7609894502234
81.5566204055442
81.1916842411227
80.7739045661596
80.2566619571552
79.8918005302728
79.5344475404357
79.0970625060988
78.7830970785837
78.4817412388818
77.9893651500423
77.497524511209
77.1998711479361
76.85386438007
76.3776932253407
75.7121513825001
75.0244965107393
75.1221671763623
74.8898051161443
74.2760499204908
73.8986063669836
73.6871355246069
73.2470879886011
72.7337471321853
72.1335027383234
71.5102699408492
71.3027996365202
71.1388991665742
70.6642336349473
70.1129264990255
69.6369703855576
69.2064411940183
68.6864188585317
68.3259278067087
67.8713540232871
67.1782173068799
66.704399643795
66.4752027555319
65.9730535102033
65.3868898043447
64.838009052418
64.3601239440632
63.8671873951167
63.4083094624202
62.9601954138181
62.5383998776645
62.0593246387423
61.6433603949178
61.2246960967275
60.8619662321442
60.4832306551823
60.1406391468054
59.8065438471188
59.5285823149916
59.2206306488854
58.9658966202112
58.5765963063431
58.1981541319374
58.3735282321132
58.5058553575742
58.1545081541336
58.0852012262203
58.3478871486728
58.4046012084058
58.4171693238988
58.102292954563
57.2597056698593
58.4808998394738
59.7458872793742
60.1764974553061
60.500865164596
60.7655583626647
61.322842635316
61.7490677806781
62.0219382402793
62.4869099961733
62.8465523382042
64.4635328993207
66.1319438484396
66.5025139469466
66.7496472551595
67.8513458012597
68.5898404648567
68.9716524720556
69.5556184389526
70.2577376849969
70.5930686803455
71.607537057333
72.534879161497
73.0542698125069
73.7541019816667
74.1599715967805
74.4248351391138
74.4767047097824
74.339248660108
75.7662045580142
77.0023759560171
77.2181277350924
77.1971154367715
77.2874833138605
77.7550445609917
78.4199076340383
78.544976262483
78.4003837275979
78.6787459177928
79.1639671547233
79.4348107579536
79.4680137847077
79.4180785975426
79.415717318373
79.3061097819475
79.1515516602499
78.9532277996872
78.8953200699373
79.0305118285285
78.8087890397312
78.326640462824
77.9340956342104
77.8187060257634
77.5258912638783
76.9035151722434
76.316862500074
76.459095320422
76.3606846367149
75.9296732033734
75.436604240613
75.0050634424904
74.7315640481527
74.4503698341078
74.0527841413599
73.638717281392
73.1106314434517
72.5320956505144
72.3608960046082
72.0765527285938
71.5127706280848
70.9778503868354
70.5583193892587
70.0263598013933
69.4528417631578
68.9401463239517
68.2716078061567
67.8048036828826
67.589181638296
67.176076392942
66.6177688179203
66.0940843188945
65.6744485001765
65.2369315108012
64.7929191831812
64.5431728515414
64.2594719287237
63.8667718179199
63.629064697956
63.4295792530849
63.3784383839758
63.3946925482025
63.1989559055619
62.9486008268751
62.9926207880597
63.1595787673546
63.187376526759
63.2083803645416
63.2792706359224
63.4059811205813
63.5094457095133
63.8125859769443
64.2070164668144
64.4310727120745
64.6938492823851
64.975226570563
65.1311933750091
65.4760826731594
66.0171725745165
66.3920072683188
66.6755549552352
66.9861861889925
67.3600396780952
67.7405210704773
68.1165091095763
68.4822517906956
68.8390814809943
69.1904738944954
69.4162580080631
69.6668824578475
70.1100259872998
70.5331128257178
70.8403946566409
71.0732158543026
71.3272680113591
71.5743537376893
71.8035478328499
72.0386162663673
72.280921370014
72.4710354461986
72.6501672867274
72.8905165742217
73.1194185146834
73.2724980760791
73.4484758261456
73.6238829501237
73.788235386067
73.969991206487
74.1323994824355
74.2999849540928
74.4562319973394
74.612091823853
74.7823656305891
74.9368483933459
75.0676388355272
75.1995000758802
75.2989364494235
75.3908471136997
75.5312835134813
75.6467561903812
75.7203416044257
75.7598464134989
75.7979190995795
75.8587943914565
75.9091536009341
75.9468274631357
75.9763970535043
76.018356786788
76.0638894452241
76.0863334136996
76.1143543622173
76.1571645031813
76.2274429215127
76.3141689036314
76.3610499172993
76.4202514857901
76.4830280033206
76.5175945860468
76.5513817107972
76.5945110772737
76.6290147545704
76.636319447677
76.6655360847755
76.6800920644187
76.6804248501313
76.692935300344
76.7140700261966
76.7315384088836
76.7607941828228
76.7709460314479
76.7743542067254
76.8073495287063
76.8406491977008
76.8406719397178
76.8599747872469
76.9022835165193
76.9321285022735
76.9712854043443
77.0233080133251
77.0886733386788
77.1524062621206
77.1864234837344
77.2320160524425
77.309372150295
77.3713499951332
77.396030535418
77.4420791907095
77.4870936681836
77.5210919307309
77.543659458613
77.5760356707907
77.5915184791588
77.575219155676
77.5491298517525
77.5266774208893
77.4890330615394
77.4475394793445
77.4005330543247
77.3813941759063
77.3203508602795
77.2602441571248
77.2185061276777
77.1469201741374
77.0762441980537
77.010631959045
76.9391122591213
76.8727747779049
76.785126659391
76.685527408002
76.5991777910813
76.5129455594998
76.4272987715522
76.3261421471793
76.1977080389963
76.0942592017951
75.9677247893653
75.8229943293477
75.6878828563062
75.5449206555089
75.399280609391
75.2333445310846
75.0360382500736
74.8749550873933
74.7187718551576
74.5410223542836
74.3686955008386
74.1965201045916
74.0427956395491
73.8840518032812
73.7410345455882
73.6200031935491
73.4868850942815
73.3572846406249
73.1797935754687
72.9773354223251
72.8148354399842
72.6744484136586
72.4830556063575
72.2717175715996
72.0843686965348
71.887116462945
71.6864708466594
71.4989405465632
71.3207779707352
71.1500611579738
70.9711304893626
70.8014419280136
70.6510108444033
70.5205402215699
70.4015579123459
70.2914316464748
70.1848247418499
70.0565244441453
69.963178846881
69.8951420311652
69.8191040959034
69.7394747223381
69.6311591904609
69.5109774758219
69.3927682143557
69.2716927735044
69.185722587921
69.0583450880728
68.8905423767941
68.7700656256416
68.6599040050326
68.5273711352509
68.4031301950509
68.3346847332724
68.3020811941389
68.3206858871485
68.3969239612838
68.5244514230715
68.6464342705287
68.7767694142468
68.9465138251828
69.1112628195659
69.2763091353012
69.4607977007016
69.6744237896891
69.8923036353998
70.1273207066284
70.3681785934119
70.5780463208255
70.8144193903782
71.0911912251284
71.3712518313747
71.6333015004673
71.9075930835869
72.2039951339092
72.4819596436133
72.7393815721428
73.0224871846851
73.2918417861893
73.5626695761928
73.824889882367
74.0843757207998
74.3449503008138
74.6001553040557
74.8450707520925
75.0970986187326
75.3329491732925
75.5625359016773
75.7839106360457
75.9718422876852
76.1738188547887
76.3905183024516
76.5891047439879
76.7621536046406
76.9142684726015
77.0599033060144
77.1994718197434
77.345636631178
77.492559643438
77.6274444398127
77.7242842937547
77.8230902855244
77.9466212903748
78.0668765628098
78.1774889848486
78.2977699893045
78.4248936041046
78.5600892089449
78.6687110724262
78.7733662396891
78.865960393196
78.9984758699708
79.1453262084325
79.2683709910969
79.3354336392922
79.4296592362775
79.5484329810745
79.6444742069029
79.6969918080561
79.7890066836348
79.8708110971668
79.946201524651
80.0413821675372
80.1238266073086
80.1586065779336
80.2102896527415
80.2588065746681
80.2875957889826
80.3141039231794
80.3360306511731
80.3717958537097
80.4071740220302
80.4130940387303
80.4171013743194
80.4136433806699
80.4141458701939
80.4197716948987
80.4302320753793
80.4018318226704
80.3728534449009
80.3359560701046
80.2899172457637
80.2489022180979
80.2429703521006
80.2308855835202
80.1466412582895
80.0518174856503
80.0031102531359
79.9499339697753
79.888373107959
79.8368957570182
79.7654020249185
79.6904393193956
79.6288501989765
79.5518543892079
79.4472227568748
79.3079901888885
79.1856046472651
79.0660578900921
78.9192107755477
78.7303604879722
78.5799724671923
78.4100153049658
78.1761759436208
77.9704708800277
77.7865071098336
77.5841512743919
77.3679574076483
77.1404162471018
76.922398096629
76.7103379099586
76.5078664144435
76.2877043454242
76.0986422808347
75.9035258830186
75.6772466103212
75.4744276946003
75.3005574084189
75.0836250455161
74.8707177843794
74.6879444758141
74.538468190198
74.3637079723093
74.1766688871606
73.9978237619231
73.8033362981834
73.5804427164489
73.4070228212619
73.2458457978843
73.1116645998856
73.0273726374816
72.92185375255
72.8276786657783
72.7707640352339
72.7046303933579
72.6448593266992
72.5511212194679
72.479097321417
72.3949738999152
72.2654569956498
72.1808590225785
72.1301711113749
72.0211241655161
71.9274276669538
71.8451419421134
71.7553537412279
71.6646088915066
71.5972178684126
71.4887682733726
71.3680183282172
71.2720412067736
71.1620170937965
71.0672968289375
70.9691668227549
70.8401978669084
70.7026997589879
70.5829628747528
70.5098010177059
70.3950113164038
70.2246190729033
70.0599975351575
69.9402863771008
69.7890902874099
69.6649932619665
69.510970715869
69.354321460351
69.1618690405726
69.0124524951989
68.8712321725362
68.730672669598
68.5657980290598
68.3830259289188
68.2058392998491
68.0663456900827
67.9484158349661
67.8223261940738
67.597586425235
67.4109952637334
67.2335424918941
67.0971761743134
66.9559515241254
66.8711025616423
66.7496764532643
66.6056352296276
66.4048267076878
66.2071449818451
66.0538598017804
65.9143003278763
65.7520018154165
65.6404546100569
65.5139777523956
65.3648589976857
65.1771678040846
64.9498161478715
64.6658188081315
64.8372702211437
64.791974952621
64.4885316450799
64.3171392445909
64.2164872938329
64.0658010444417
63.911324298723
63.7018087807164
63.5446006157289
63.4176495533906
