1798
3999.43349933624
650.420452594757
1
128
4
99.7551813544032
99.7748310875092
99.772702009086
99.8649608033404
99.839463311682
99.8138284928867
99.6930668804443
99.6835637466887
99.6490620298113
99.7106993449642
99.8038698798626
99.9334152792576
99.8741287144924
99.7336694450152
99.6684711053693
99.7644898572535
99.7250068238853
99.7523863449882
99.7365077870133
99.7975238855882
99.7733389589823
99.7430960026635
99.7107035012618
99.8496082073198
99.9282123436328
99.902191823257
99.7341156616492
99.7322307104055
99.747835968445
99.7944623206015
99.6679115036933
99.6296525951479
99.7065440365173
99.7797671056974
99.8264320568852
99.8910472348723
99.7711185033917
99.788777372395
99.7499119746287
99.7729794401641
99.7946789863682
99.8661329864595
99.8566148081809
99.7693852591579
99.6521183921205
99.6397148515065
99.6049363437262
99.8046613264241
99.9620854135974
100.114834924037
100.16401461432
100.060091922747
99.6626748958493
99.4022079128012
99.3299762640107
99.591408850803
99.7735745355599
99.7671970242361
99.7351189331393
99.8959209013894
99.8654674402872
99.8209706175607
99.7518425430127
99.7459833441221
99.6450642813091
99.6861311170687
99.810099631863
100.000723124191
99.9917749312271
99.8106934424717
99.6936496806456
99.6469312642087
99.4664250019742
99.506557729492
99.667861040008
100.096132457954
100.423596336706
100.427097526555
99.7348864242208
99.0441165549703
98.9513685935142
99.3083477285465
99.660973988957
99.976936315054
100.084087354777
100.072703477968
99.8359528742367
99.4917293329458
99.3063627504268
99.3459981074576
99.339656944082
99.5851252989006
99.8463810595696
100.00162723737
100.07311522116
100.127671055307
99.8767406069861
99.5533468599198
99.1765465234624
99.1241255068386
99.4037795942656
99.8344726580432
99.9417179035878
100.056874975821
100.065329496672
99.9864738015227
99.7146283800052
99.4150624800546
99.1831780923394
99.2609388522834
99.3587389187733
99.5786906874896
99.6766379452455
99.7820236502228
99.8639061501882
99.8047130455181
99.7062157935779
99.7502223646038
99.6146432982588
99.5930818468585
99.6776270077379
99.8126643678934
99.7805803604662
99.7316908744269
99.6223069752272
99.6427645065729
99.6193224524443
99.7383535986351
99.8022542722779
99.8547348715758
99.8508079481393
100.024623376198
100.118834870307
99.9426866144273
99.6760654402363
99.4959695369851
99.2029990993941
99.0365337425077
99.1108865941422
99.5171768270497
99.8224066723459
99.7000653416828
99.2236124593401
98.9488035117495
98.8827058859457
99.054469642658
99.2908459603495
99.4423404108839
99.2371280422187
99.2069789052282
99.294455298374
99.6108189620994
99.8000395206082
99.7763392811313
99.4820088949124
99.1469322651059
98.920543582604
99.0147994862134
99.1419100881104
99.1409460645367
99.0643616711539
99.2547226206669
99.4187678990184
99.5849312418075
99.6801735047886
99.6457909443297
99.1067585458282
98.5811479926162
98.4062992028063
98.6047022808386
98.9025345019879
99.2640656085195
99.4762820472414
99.2520944696649
98.6106429990411
98.4763277141415
98.0768949345981
97.7092447103598
97.5285912686257
97.6638588241582
97.9775496821795
98.2061584278152
98.1763385671149
98.2241496567406
98.2114014687946
98.2233350407756
98.0003844911387
97.7532445857801
97.2129035781288
96.7689350571526
96.490992364843
96.5833971876986
96.6451521660834
96.7013066564867
96.7390502336122
96.7969274626245
96.7889429100426
96.796951761864
96.3703997097999
95.784822111868
95.4159591066782
95.5406176660108
95.6401016574528
95.6523080851386
95.4068305692767
95.1642061128814
94.9459298136175
94.8771538755365
94.667526498333
94.4720238780416
94.1338742559758
93.9631515024186
94.0473817380731
94.0595594601213
93.8425231562631
93.7044450027342
93.4389859262493
93.3055013949892
93.2410095035561
93.2432314279363
93.0489275442215
92.6644290620718
92.2118072539284
92.1354218568152
91.9751697289343
91.750145242258
91.5360379323798
91.5962392917694
91.5393183227544
91.5534657249595
91.5314970563738
91.2527404847867
90.6014005199725
90.2514373801686
90.099554046388
90.0650683604611
89.9673943191528
89.9618073827072
89.7239567503216
89.4836935669402
89.2725275713126
89.3119898174947
89.1166920241751
88.8415132193896
88.5267450427968
88.2682463834511
88.0295986817509
88.0824871517097
87.9652830197338
87.7470609281514
87.5330274475379
87.3374528027618
87.0792836430403
86.9621858773572
86.6914461475798
86.4007399160103
86.0249336434519
85.9680917641342
85.8724125509424
85.7128652232431
85.4064520384255
85.3161630906297
85.1178941154615
84.9747562134705
84.7326460472237
84.4912541703663
84.2371496467754
84.2092986004195
84.0453074718845
83.7388159635217
83.4769880618247
83.5486867524779
83.2881429949604
83.0535016216013
82.8963600889711
82.780457184336
82.4808429625196
82.2373434481208
82.0928975262155
82.0672101653745
81.8173814171848
81.6794963026768
81.4921387727644
81.4404810338176
81.1789122487317
80.9738821055088
80.7236832964839
80.5994150915517
80.3254749580904
80.2088800607908
80.1331693532454
79.9788360753596
79.8635644313693
79.8172027105016
79.5855625271273
79.4880071936437
79.2822634994348
79.0565303211172
78.7767770814695
78.6835468870153
78.5751896054911
78.5063695132781
78.3022225424509
78.2670661301483
78.0726877548682
77.9891072836342
77.8229905882766
77.7104049472395
77.5337906103887
77.3675362879786
77.2396037914365
77.2077454157361
77.0384593225353
76.96055765173
76.8109286767896
76.6862888033788
76.5265229620804
76.4810904685119
76.3710116244527
76.2942800184493
76.1625250466124
76.0807528710599
75.8761604266798
75.7432736216801
75.6419684463027
75.6548535565476
75.4707631550926
75.4387036789282
75.3848198984272
75.2947564215806
75.117434598984
75.1237136811339
75.0705606519902
75.0531672532203
74.8537213612067
74.713386606112
74.693028779319
74.7755176622537
74.6358441244821
74.5593284898581
74.4880290971106
74.4640104934057
74.3253458385425
74.2663603254233
74.2545812477085
74.2666907856842
74.1157799295065
74.1883696347272
74.2431284358981
74.2164512835669
74.0801241914053
74.068674184752
74.0145211433972
74.0622798762639
74.0683779828525
74.0459778789882
73.8866641948797
73.9063613046977
73.9230524597057
73.9550735327265
73.8883779567463
73.8898329997168
73.8014959915004
73.8077094596843
73.7123129577748
73.7504935221814
73.7358889058253
73.7674904626866
73.6731721649912
73.6903720464716
73.7232719478741
73.7416413916574
73.6075715594273
73.6496081456976
73.6724692945128
73.6703711706511
73.5977452514496
73.627337265647
73.4745755345091
73.600598252799
73.5571032687557
73.4781569917431
73.4469891767697
73.4686507418058
73.3941958617312
73.3810617767226
73.3807562071041
73.4653310815408
73.3943394165739
73.4370587848803
73.4098748413605
73.402385030225
73.3485928950574
73.4031757221084
73.3664939488077
73.3940446746441
73.338760588693
73.3720825504199
73.3386724888106
73.4203696882719
73.3521071130187
73.3069168036668
73.3006462951136
73.4282077243086
73.4404540991283
73.4554894177
73.3697918936051
73.4224563837579
73.5038167857111
73.5624776452121
73.5246215350245
73.5966543855839
73.554663623247
73.5451100146748
73.5282952240016
73.5907843578926
73.5474688492769
73.645715401527
73.6611408155644
73.7229381024694
73.7549521362028
73.8270765028109
73.8116900405406
73.9143208274444
73.9543931675832
74.0055470166595
73.9440642728375
73.9705191746346
74.037184380841
74.1412020243173
74.1394648585533
74.2349240543862
74.2416645137737
74.321087024961
74.3949956944588
74.4232217874917
74.3200156821653
74.4149056135159
74.5842992184833
74.7244114016953
74.7380123796768
74.8286340056238
74.8493353258529
74.9337542730559
74.9430562569639
75.004811129284
75.0407983163393
75.1779469713647
75.2618213100968
75.3180749848458
75.3815268082061
75.5029245675144
75.5627511172153
75.7792163993347
76.0153957693655
76.0636799873651
75.9226090371152
76.0339256878808
76.0971576160691
76.1266313164362
76.2481907582246
76.478070888382
76.5531523890708
76.5799850008399
76.494217404958
76.5286627113953
76.7003075514195
76.9235968274229
76.8719664358792
76.9085962427936
77.1093433981613
77.4375422498815
77.621494837877
77.8436651913051
77.8706701516602
77.7248109955489
77.6639894689675
77.9031709971811
77.9911173078597
77.9807983862913
77.9275072459435
78.017344595254
78.1789416620763
78.2826819754008
78.3110994047562
78.4493877408553
78.4448282163388
78.6102904062798
78.7632746569308
78.8741467909021
79.0052533083905
79.1686241501254
79.1941677272572
79.3415428946023
79.4818385265164
79.5245454017418
79.452959175605
79.4682615282669
79.5480700549351
79.7200156108087
79.7872910232429
79.8075903927556
79.802791422354
79.8383713116366
79.8722112169151
80.0636954189259
80.2067049510477
80.1771220821191
80.2673424652775
80.5137846775221
80.549903596308
80.6264259121818
80.7150564801119
80.8741482604879
80.9764558599371
81.0216948124366
80.9323703442126
80.9421996007436
81.004979445244
81.1085381656788
81.1841748978897
81.2207435439794
81.235008246617
81.3102871640156
81.2555934769478
81.2720017076477
81.3042286335274
81.3722025450455
81.4176840181202
81.4920020882279
81.4309367562502
81.2919838725205
81.2614813537514
81.3525699669689
81.3065038830362
81.3114132074497
81.306286007108
81.2766785319007
81.1988500944753
81.1712869918648
81.1676335623295
81.1478998787958
80.9696295051957
80.8461432054324
80.6810551547431
80.510009043595
80.3705607372144
80.2271294200391
79.9105350197083
79.5842412620636
79.2093477875089
78.8623787164043
78.5400086715872
78.3376768233309
78.2126383085029
78.1592875308314
77.9959014401677
77.8501386952744
77.7177423751666
77.7075646664546
77.7746978899594
77.9287366542132
78.0121022517976
78.0636535031736
78.0802860498989
78.1933758697376
78.2265536467635
78.2011673323142
78.0862122202563
77.973510209813
77.7655734398437
77.6130064388702
77.5032967336685
77.5427598907387
77.6602525189245
77.8676309397316
78.0283046651427
78.2553081164786
78.5430357876757
78.8799448745988
79.1948103316631
79.6226731523982
79.9785830800048
80.2771681071913
80.5172262072204
80.6997011370178
80.8125770881222
81.1220355361901
81.3701339572846
81.5051802903944
81.6888130771213
81.9322903349825
82.0917468167637
82.2499324584296
82.3179443073065
82.4474275549215
82.5713535859587
82.6351008594096
82.6271058652578
82.6588323709801
82.6212086049338
82.6016985591263
82.5406438163512
82.4903119285432
82.5729881315411
82.6429419318801
82.6301277233973
82.7198892959431
82.8469022181828
83.0501463177481
83.2682762084654
83.5565300573439
83.7994020079907
83.9931444920889
84.1359184559705
84.2972394227448
84.4733794254146
84.7000218446586
84.8859981826247
84.9890081228827
85.0534451944919
85.2702766202897
85.5384714015153
85.7655538111923
85.9107944101004
86.035905587524
86.1051742122782
86.1715879820509
86.2503347927992
86.367305113175
86.4359889073723
86.4947098538187
86.5779664365108
86.721522406875
86.8021177913366
86.8267998912978
86.8498504546286
86.9710472288771
87.1349510810593
87.2077014966515
87.1601228214232
87.1991108812765
87.23124790033
87.2588577443813
87.3464384855295
87.4286504453096
87.4121372009499
87.4381187379337
87.4970325149569
87.5890623188528
87.60617277529
87.6099441813109
87.6026403575636
87.7332032489846
87.8560267662567
87.9029337268039
88.0379063968312
88.3313427836401
88.5471685858827
88.6781526626632
88.854886727048
89.0410951955466
89.1778821734825
89.3489835359206
89.4570025572162
89.5091748016989
89.5382916165866
89.6415765309556
89.6932936208062
89.7702721039919
89.8492643828302
89.9094015788558
89.9778652682088
90.0398359175287
90.0250533282709
90.0486128216488
90.0847427957385
90.0983234349695
90.112510301254
90.1810529963751
90.1826207280162
90.2204601602157
90.2927241905664
90.3730496000578
90.4100364688516
90.4495254503957
90.461964550296
90.4740260318683
90.4974187869678
90.5217322599671
90.5093608372581
90.5371276724253
90.599262532703
90.6081413881594
90.54003463669
90.51320261309
90.4855008633277
90.4792613034944
90.4930535313794
90.5239947658199
90.5408163882538
90.6642804044983
90.8393390595306
90.967582304051
91.1059399091899
91.2226343378561
91.2982575883479
91.366047122117
91.4813887503966
91.5924429988469
91.6624288187624
91.6909260442214
91.7006745172534
91.7437464055174
91.7352456245657
91.7494984158708
91.8277513035796
91.8800536544325
91.8813746205555
91.8788114151406
91.9037996341573
91.9434333767788
92.0030142720786
92.0344223285857
92.0774066139629
92.1467863191175
92.2032331659434
92.2307915859893
92.2549646766644
92.253859868978
92.2733086259662
92.368566461739
92.4287635231278
92.4329382246995
92.4658093731209
92.5384788236106
92.572590949083
92.6691653021659
92.7479789935161
92.7445724123486
92.7511371223535
92.8122895138136
92.8594593526882
92.8574941107435
92.9337267371712
93.0527259107785
93.0857833476933
93.0826164257137
93.0642800372646
93.1365028336447
93.1558666536414
93.165338536001
93.2853369111007
93.330190120283
93.3518695125883
93.4007312240193
93.40989763492
93.4410847908628
93.4899116121299
93.5482947661353
93.5467653343619
93.5424485112423
93.6688725255244
93.7367679542862
93.7038107585599
93.6907653290976
93.7183263896513
93.7310382811053
93.7611038656443
93.8859409917939
93.8749990497998
93.8019604016623
93.8282501928372
93.9423733216288
93.9854520756971
94.0176696327639
94.1161929188842
94.0655244896344
93.9860665850919
94.0792273350615
94.1534178909524
94.1165636341569
94.1519495311077
94.1381811147837
94.1337905362573
94.181168208388
94.1839705420134
94.1734994531752
94.1584736092361
94.1776246733106
94.2550589661829
94.3343236005752
94.28770352142
94.2236836917154
94.3026543105418
94.3797486262191
94.3190142488706
94.287013546976
94.3423879157876
94.4110014313465
94.3648678684215
94.3763360105253
94.3716565103173
94.4175022888501
94.4968015866203
94.5114063134781
94.4676081281418
94.517702767435
94.5536271764535
94.5272665356117
94.5078003707077
94.5470820027763
94.6272036631544
94.6830587655477
94.7107838449632
94.7468071214942
94.8032058951759
94.7837283336163
94.7473663219459
94.7573121955111
94.8321591983141
94.912453653765
94.9160291074061
94.9359454129026
94.9317630317892
94.8914845036181
94.882277897432
95.0058641389436
95.0808248670847
95.0074561205775
94.9532611525033
95.0426781679382
95.1738529005822
95.2152968841449
95.1728017223399
95.1412915125486
95.112877966886
95.2117654460937
95.3157051706644
95.2231880024344
95.1453689296589
95.1874585182611
95.2870636972558
95.3189147416297
95.3011963680648
95.3562420266117
95.4044746333508
95.4183154458018
95.4424644229842
95.4045224862731
95.4221432761764
95.377963211286
95.4654716772405
95.549397326498
95.5388916666843
95.506907378325
95.5230427423316
95.5986596429862
95.6211824793489
95.5570445995595
95.5550574539018
95.5699358566361
95.5821545781
95.6003213002672
95.618920058125
95.5877418697246
95.5945566907014
95.6540176372418
95.7338686396706
95.7940136934227
95.8890155380311
95.9603843210781
95.9992441814103
96.0452989342332
96.1006801692673
96.1275652046945
96.1649468418723
96.1911350756417
96.1881257732532
96.0708791371498
95.9387841529701
95.8402101259292
95.7261131914855
95.6094273612832
95.6067723162126
95.6473691604459
95.7969896326071
95.9068264970377
95.9602267064557
95.9611069955298
95.8715131127875
95.8313172861674
95.8685860058105
95.873353478676
95.819026553614
95.7522507919083
95.8375725899038
95.8667859140833
95.8616359514246
95.8804553179951
95.9499433861528
95.9476050164335
95.9366414179104
96.0205307450013
96.1271876901793
96.0917110233818
96.1358864430956
96.218315420951
96.2210337989859
96.1817082812231
96.1596571012923
96.1779518553639
96.2704731779367
96.3140917548109
96.3662440810946
96.4212223687005
96.4975301955718
96.5650785217595
96.6092478995631
96.6120794973538
96.6480413824319
96.804724452935
96.926623715419
97.0089528867607
97.1553735961032
97.1998601435476
97.3040540193246
97.3345696685348
97.1964391638484
97.2101880912972
97.5050970586858
97.5093959310112
97.5012397595212
97.6086061639979
97.6899224676448
97.748369758198
97.7468743017037
97.7169773349859
97.6214117426502
97.7287225853296
97.9173700504752
97.9085193781222
98.0154559309789
98.0423615806883
98.1105938290807
98.3437778756894
98.2574699348486
98.1107862862044
98.2945197669202
98.5237128859887
98.7972626544829
98.8319646060454
98.7395751115545
98.7881335065527
98.780341202803
98.7751872073432
98.9828890837764
98.801898269094
98.6632327696162
98.7523885607546
99.0446600673772
99.1744103185092
98.9541932719395
98.9157849070573
99.1143922237055
99.264503628536
99.8144217951325
99.87967420155
99.6843360178888
99.490667025181
99.4643861618341
99.6932656933078
99.7554405053752
99.8822088378018
100.373089356015
100.540106851176
100.558320848189
100.110660030529
100.086090203737
100.357087404001
100.775617853109
100.803709214652
100.86892832009
101.250844979517
101.746299466943
101.716945154051
101.768867002661
101.574375564878
101.450038563263
101.041573733942
100.82276410935
100.55227225682
100.260980528978
99.9503782372698
99.9217896147021
100.071160793503
100.128330168146
99.7511150362456
99.3430450953073
99.2307314256707
99.1727606012962
98.7748276759559
98.6480322732091
98.5409175395457
98.3738526781675
98.2722545485137
98.2913344287193
98.3448477383315
98.4604362418209
98.2877304539901
98.1322146320898
98.1875839983504
98.2964524242407
98.3935327078928
98.5470695367961
98.301447896282
98.2597670273489
98.5683811639689
98.7626102914274
98.6879486659919
98.7061871363319
98.5233004996419
98.3866124245408
98.2984907579822
98.3184617349121
98.3265734660381
98.3853167698709
98.5767192801962
98.6958617636543
98.5950639710908
98.6008966755428
98.7027178061912
98.8970816806818
98.9666609249405
99.10013818073
99.2291644854192
99.3623001898468
99.3147249771461
99.1014498359516
99.0938090506607
99.4233204757924
99.4008689015934
99.3341407921811
99.5077863583868
99.9197841793012
100.21744445619
100.53111056439
100.500035957413
100.583795421488
100.646802769104
101.095724614916
101.15516778832
101.050440579295
101.00987883322
101.230041964181
101.649035272628
101.777003397911
101.477014523474
101.600720537363
101.317455096597
101.495946592415
101.505485587794
101.255978560535
100.966873768869
100.921643660875
100.77622022856
100.887477165405
100.593559035244
100.35588417492
100.321615573453
100.547424102337
100.271638526829
100.004130039963
100.224784849799
100.337781816903
100.298149468096
100.404115393944
100.108620046854
99.8312518915295
99.7037017108005
100.195940169697
100.449926758105
100.659281862905
100.962720069819
100.809293256538
100.599683801698
100.759594570494
100.487118337421
100.425840284535
100.417965042713
100.65374557568
100.33858624913
99.8626455707134
99.5660089896846
99.7535352219643
99.5021986353884
99.1143901376431
98.7178515516228
98.7585539707611
98.7769816292829
98.8945828325185
98.6416121980454
98.5017353906423
98.4271588849976
98.3320621889142
98.2601207577895
98.1662155544543
98.0855124105073
98.0620702974652
97.9650727922853
97.7914863791905
97.7207880136223
97.7862880095131
97.6585710716046
97.6597770231463
97.6102396667581
97.5590214953927
97.4993327056256
97.4847762440498
97.4541247603344
97.4511221805344
97.3450110312122
97.2575531063911
97.1975180517214
97.2942264249721
97.253045454424
97.1849222245524
97.0777322414167
97.0925577026289
97.1786852779995
97.1541959106067
97.03267883063
97.1121788603768
97.0098842632343
96.8994138654018
96.8424005657069
96.8686561781915
96.8504634141603
96.8550690817042
96.8579541838228
96.8986032134489
96.9581358543638
97.002785327506
96.7467227398322
96.5126025737138
96.4477974673065
96.5598301398281
96.5942129446346
96.6405602138504
96.6175637644039
96.5746388031493
96.5489318688442
96.5754950700867
96.5758581153692
96.5832718300297
96.4886144264235
96.4166937675179
96.2473228822615
96.1887645349811
96.1185927268426
96.1701134589078
96.255126854037
96.3178040754028
96.3372951272558
96.2901795805767
96.1520852496798
96.0488280358143
95.9848953003199
95.9428573966451
95.8841982566625
95.9032686835262
95.8977762963849
95.8783324381702
95.8321586360968
95.772303660007
95.7157764321249
95.7497980780394
95.7500566120066
95.7417533380015
95.6997575888425
95.6543584580181
95.5690599497368
95.5718104657781
95.5619411599183
95.4375197442119
95.2325031779607
95.1819626102944
95.1931154736622
95.2147160082221
95.1903580294025
95.0917657950837
95.0076556324844
95.0030162003866
94.9588620157532
94.9094496971579
94.7289808142119
94.5527644025159
94.3806294261744
94.3030918749021
94.2687915018139
94.2142524516504
94.0278287757207
93.8954381279806
93.7336860476019
93.6703676781897
93.6279268822649
93.5030215840988
93.1147751151589
92.8179659305787
92.5747999482479
92.3863555252234
92.2177918639547
92.0869275494491
91.8656728119136
91.7199400092131
91.3566361016583
90.9191493627457
90.5881636417873
90.3240085604537
90.0838340073629
89.9883969182839
89.8099133329257
89.6306562603568
89.3345541216417
88.8503778693124
88.0845356128964
87.5032039010733
87.0965669329996
86.712815853461
86.2495136559201
85.8025493314839
85.1653092748083
84.6676155616414
84.0188421292675
82.9326065493962
81.9930748730882
80.9868010640542
80.122089391916
79.5542595838653
78.8268178276207
78.0804981018747
77.3467519532398
76.2868996715358
75.3678259610076
74.8483499369281
74.3125744801968
73.7987910503798
73.2444760558465
72.8794527501006
72.4617966049541
71.9674060737094
71.684886975871
71.4738438536856
71.0440624029564
70.6796638377443
70.4679054248494
70.204400862763
69.7915930287465
69.1907684399862
68.3066584521637
67.9720941697013
67.4648833959306
66.6857858924898
66.252832970172
66.1286416473134
65.8792115778475
65.6426406818607
65.2864436283173
64.7790035677029
64.3979551793516
64.1246637305496
63.6535148083819
63.0581095690551
62.3704536976935
61.6607201241123
60.7435316338905
59.9871538750242
59.1874564469617
58.1766312327785
57.0834223490813
56.2564202917068
55.2300873896667
54.1622298377299
53.0264559056248
51.9422696427583
50.7492082209021
49.5315792679576
48.2386126090314
47.0156137688383
45.682688169548
44.3669406036102
42.8793888549274
41.4015577868272
39.7653928284988
38.0897624998138
36.2347283421506
34.3315644640155
32.2099781928778
30.0814367266953
27.9621502194772
25.5332006336776
22.8829269320078
21.169507872358
19.5835696652889
18.3139090693799
17.6330011758401
17.4802053592403
17.5791290483347
17.688842793577
17.6032994349368
19.6518380746584
21.4191939017037
22.8784506352465
24.4116877645197
25.9746672950633
27.971476930523
29.6173964441519
31.0778473971994
32.7538188623211
34.1658946001939
37.6261809247197
40.9179317069398
41.9787091351481
43.0670067834837
45.65306816528
47.4262884967345
48.5637057095687
50.0161367119404
51.6348481014409
52.4808375027318
54.3031191757544
56.0876820757007
56.9559977097452
58.2968672260457
59.2154672737729
59.7668500797701
59.8766392606557
59.6292313550927
61.5024360517427
63.239302979083
63.3821832500232
63.0510939361244
62.7429515690517
62.7123611757602
62.953767610928
62.7495097647585
62.133688268793
62.0799985394437
62.4464920596636
62.676232355414
62.6805185772934
62.6492654432281
62.6937188741364
62.4554490357443
61.9611387054576
61.3611250272712
60.6480850309607
60.201304447962
59.43020303558
58.3837115212266
57.5391181265824
57.2657056257068
56.8582634787169
56.1145823957071
55.2986161164516
55.0618291630911
54.4474767473803
53.4371523453275
52.3656687571498
51.3528297829813
50.4982691334618
49.6195441118253
48.5595522959388
47.3959365347076
46.1281759020059
44.7124010968604
43.6528022141439
42.7265555933839
41.6328944732592
40.5335174412517
39.5090514201797
38.3649562669591
37.0816417537483
35.879890145029
34.5740683004715
33.2151873900498
32.1089194139225
30.8702346215444
29.5628632298624
28.3634656567503
27.4415183903868
26.8131975753557
26.6497530095922
26.9238504404813
27.3137348798194
27.7964124235333
28.6394480890309
29.4661172207194
30.6178982219282
31.707619102077
32.4354245346984
33.0458525599994
34.0192860575996
34.9852953852438
35.6379552218094
36.2268504104479
36.7739506110868
37.1440375574199
37.3053888882357
37.603320411978
37.8704030532046
37.8210619764685
37.7684210177992
37.7686188555154
37.7895669758767
38.2710412036211
39.1123892530615
39.6560233913967
39.9936736827146
40.3525188522217
40.8111004959426
41.2708423373991
41.7728555456285
42.3261171515634
42.8786687059504
43.3603607395156
43.5315243625331
43.4753037560299
43.7568993057755
44.3346434535023
44.9986037327164
45.7100154114623
46.6091894156935
47.6381350133443
48.651811682556
49.5158903004802
50.2089260514099
50.6972193439078
51.0744702177103
51.4459333901183
51.7003046672982
51.8302482874654
52.0013483061275
52.1584182764412
52.2709856838528
52.4016312035773
52.5309500499075
52.6273196925414
52.7538286259922
52.9186976187761
53.2401947313122
53.7460258886643
54.3442133294755
55.010521168126
55.8196007448573
56.7829106496204
57.8053575031546
58.7362763545861
59.5970316186624
60.4088678502103
61.1378292901949
61.7796616542031
62.3532956331797
62.8665572993839
63.3516658789642
63.80873787501
64.2129659667042
64.6017861593155
65.0431737239617
65.4415960410218
65.8316131230551
66.2146215598531
66.5948520830291
66.9668673862712
67.3133146739637
67.6192402434667
67.8764230481874
68.0680287262864
68.2171740401612
68.3732226017152
68.5203794011679
68.6749427427169
68.8529286298851
69.0437018103103
69.2512610355948
69.4581801857637
69.6066654132412
69.6548785079374
69.6732934207237
69.7106453386273
69.7519747847755
69.8200189452232
69.952196246097
70.1108992966367
70.25290489067
70.3834663800473
70.5459399392346
70.6856677481832
70.7774305113272
70.8628917636917
70.9489548944651
70.9871555783729
71.0071817782429
71.0479224228083
71.0621946208621
70.9834943072913
70.8326589375888
70.6565641813698
70.4956704431328
70.415072634802
70.4273943132357
70.4198548990864
70.3634424473692
70.2621232878933
70.1091593134266
69.8600588821869
69.5347608737275
69.1458159029568
68.7736946111182
68.4641128312706
68.1658340379746
67.82847039043
67.3831368476489
66.7239314586814
65.8520079544658
65.0158800509577
64.5803275265649
64.5479817557228
64.6333991481034
64.6105241437859
64.4038314862085
64.0195434290439
63.5646378385344
63.0938491024762
62.6762788692262
62.3257218413988
62.032747279278
61.7796056632804
61.5278121630918
61.2657424356458
61.009085428036
60.7554916632273
60.5244876109975
60.3153671270823
60.18242765138
60.1112790546831
60.0961846095219
60.1181285552772
60.1583918180246
60.2337662622757
60.3956742156942
60.5800596404843
60.735092463544
60.8695243470833
60.9950941280969
61.0653934466979
61.0863163922686
61.039720225717
60.9813159454859
60.8531444711754
60.6581593510664
60.4303826219303
60.1985365872529
59.9482465328453
59.6965964746758
59.4275552019728
59.1393122503393
58.8354552324803
58.5406103204736
58.2799853076623
58.0816143361071
57.9147338829473
57.7503131868016
57.5392600718792
57.3783713469582
57.2826045652446
57.2142621423157
57.1094785667711
56.9884772877013
56.8134632606103
56.5353642267395
56.1408095921312
55.7124699107479
55.3545339342182
55.1537708590445
55.1547522751102
55.3918828196393
55.9213160630433
56.678467239035
57.4535347796057
58.1556661635071
58.729219449509
59.1647052950667
59.4554827901979
59.610899957512
59.5669193955893
59.3934515882257
59.1107621247904
58.7641361609848
58.3999051059831
58.1000991688093
57.8674315847165
57.7795066663678
57.8918606574722
58.2595951908005
58.8709467168498
59.6621120645953
60.5102744627637
61.3298285218921
62.03920123538
62.6058947787763
63.0585072257937
63.3628647734382
63.5721493957455
63.743552957783
63.8958742980678
64.1189810806438
64.387390756738
64.6851428278947
65.0499044191042
65.4692472741797
65.9351424094377
66.4929623348837
67.1090192389592
67.7368863150179
68.2850329523025
68.7685838190163
69.2030778388631
69.5850514557714
69.9637754982631
70.3276821585216
70.6732942872826
70.999386173181
71.2928525939275
71.5401377773524
71.7294290974219
71.8754505712359
71.970470804
72.0249917532088
72.0307482308169
72.0336517770696
71.9819332893718
71.9281879589384
71.8447946405902
71.646674971389
71.2808422505531
70.6503911610849
69.5192014704136
67.8685312506358
66.1790825535757
65.4621630621991
66.0744078093374
67.4461230318881
68.9060958881886
70.1657295181594
71.2306800900039
72.114624128774
72.7601562821227
73.2325761816184
73.6376013825485
73.9713941725461
74.2185218781135
74.3824112135062
74.4861285629749
74.5299721509718
74.5148539351608
74.4625817580084
74.4253331119266
74.3666094542821
74.1196967240046
73.5049170873182
72.2899539658637
70.5623963978023
68.8972257666686
67.8246298858854
67.3887098817533
67.8599239342343
69.0554055348979
70.0689615449059
70.6172699005914
70.8645999746349
70.9283348336158
70.9738925126673
70.9296907549751
70.7265299935317
70.3967755282863
69.9446011225957
69.3323699292211
68.5588512783706
67.7435625711959
67.0457070901367
66.388039346703
65.6534014377232
64.921594895095
64.3630585715617
63.9214179403633
63.4224108227019
62.8757574697911
62.4891831844378
62.5143540726583
63.0121791597111
63.7509867974632
64.3684765924014
64.7432704761343
65.1048781589909
65.4340009563593
65.6700392434946
65.859875942285
66.0090017156163
66.1718866896578
66.3440067802014
66.4403665783564
66.5057530723951
66.5215664776887
66.5421901633138
66.5754736377405
66.5333716300665
66.4141965541509
66.3069211196207
66.1335954099668
65.9361155735689
65.7282407147897
65.4576461097947
65.2386258128813
65.0766513887595
64.7023715236771
63.6143676585621
62.3333734967863
62.0438425385993
62.273660549949
62.3814924209643
62.3065114372781
62.0828682275644
61.2759888681423
59.8044827243534
58.8337797411664
59.2123293139306
60.1469356231186
60.8484004492751
61.2400217078712
61.5094743600249
61.7467232035544
61.9209470608096
62.0061554243159
62.0855084961599
62.096891641091
62.0402847553561
62.0097423618302
61.99764976678
61.9152521177853
61.8055902939866
61.6400505261132
61.4920746559091
61.282797512358
61.0886780491147
60.9323378631068
60.8393156048012
60.7159502224242
60.5755400848045
60.4484419979299
60.3607733617023
60.278124275824
60.2132777012439
60.0614515109277
59.779786754672
59.3284877253976
58.7285217884541
58.0396193057847
57.2635968052782
56.4585723850299
55.9150213664268
55.6466616510237
55.5860518191424
55.5021048979205
55.3309164742497
55.123659223731
54.8459108064464
54.4272625878629
54.0890078898708
53.7501306024694
53.5211800210327
53.3299411122761
53.259586402975
53.1809332685555
53.1726004656037
53.1242950228006
52.9171906430268
52.5578443299362
52.8239648662242
52.8683495511316
52.4853437470114
51.956081249755
51.2772081519137
50.4209468222804
49.4777060063307
48.259559118057
46.4522168064819
44.024150228559
