1798
3999.43349933624
650.420452594757
1
128
4
98.7775535061332
98.7536714519378
98.710774721761
98.7666638452335
98.8232889613081
98.8129832185737
98.771104749078
98.7723326416909
98.7377881971205
98.7191654359517
98.6862293302448
98.7851105174583
98.8597732848103
98.9152348615099
98.8060130536959
98.7262232220827
98.7541846264469
98.7280347170671
98.6805745747818
98.7764472121718
98.7458036444157
98.7622451311697
98.7908746521621
98.7920841172071
98.7551413902015
98.7486621423606
98.8174152692784
98.8995469558873
98.8474222810004
98.7996145193294
98.7212963548207
98.7686387040953
98.8998594927615
98.9445159275977
98.8928804317485
98.9136685990517
98.8684803284545
98.9047116395661
98.8995360188061
98.8763790384898
98.8017104836084
98.8595140479513
98.8515892857259
98.8722579217645
98.8871215138073
98.9503609576511
98.9071498384502
98.9094599594717
98.9110666931349
98.9212653666585
98.9110510047131
98.904138803871
98.8472137331965
98.8901664471222
98.9268164047154
98.9814294919041
98.980366762791
98.9566564646476
98.9008149093593
98.9242168524411
98.9249174195419
99.0899553679452
99.054671305174
98.8680875835152
98.8128385158236
98.8505019047894
98.8994912517753
99.0304315040946
99.0532131207267
98.978392038557
98.8812481553576
98.9455227730272
98.9374298083883
98.9586346823534
98.8566281203328
98.9090262489606
99.0832525744471
99.1613020241091
98.8884390373215
98.6802658178162
98.6188166506396
98.7184184953521
98.9858662655284
99.1131295665748
99.073491255278
99.1636147659023
99.1284772057188
99.0867312674857
99.0049126694155
98.9645776487218
98.8921794782913
98.8686849445194
98.943084455574
99.0676849259138
98.9550615089239
99.0514073811819
99.0472815215854
98.8996956329244
98.9333062213237
98.9123449792469
98.8630915068476
98.9873680816364
99.0480673311029
99.0658381083486
98.9608969860649
98.9531141126997
98.9675122296517
98.8709072304585
98.7810845468077
98.865255323268
98.9343488286834
99.0148647823898
99.0142569846266
98.9788923492313
98.9160526806161
98.9110530252852
98.8860468952838
98.923597194555
98.8931998536968
98.8966577122684
98.9889860437877
99.0382787239301
98.9898505780899
98.9474117404286
98.7836431294923
98.7411351658626
98.7043263361774
98.7921384385501
98.8356494274626
98.8220236925219
98.7687964415226
98.7867306761529
98.8865835200345
99.0448035216447
98.9952381740164
98.911330626412
98.7969910316832
98.8438157387847
98.8323864853102
98.8538641113235
98.9567142400692
99.0487496052839
98.7766393268442
98.5862871815402
98.510940091024
98.6166535427537
98.7466123005558
98.8721645307665
98.8675552585672
98.7110092945673
98.5227892417166
98.6723103080426
98.8069240515001
98.8825358925271
98.7623637385687
98.6228589528896
98.5177967618337
98.5823551654845
98.5720958319276
98.5178149534186
98.4721602732474
98.4737533024913
98.5035135513186
98.6743945577952
98.8363927642201
98.7528626179924
98.2928082146277
98.0923826403502
98.2053173627745
98.209835130173
98.2959886215203
98.5423104164814
98.4623464156541
98.3072031754997
98.1276733067757
97.833896883846
97.5791263248165
97.7492692339241
97.6898007983205
97.4972455597911
97.5188153227214
97.5990631227074
97.4585518185073
97.3084513363825
97.2241501258781
97.1964944053184
97.2119413739688
97.210615041796
96.7898699090454
96.4943208860372
96.2486146364402
96.1163137859185
96.0624331669318
96.0370023599701
95.8594059045183
95.752734382633
95.7353884387646
95.6982871520029
95.3113124609957
94.8611046227848
94.6218813491526
94.6105621750504
94.6798753682853
94.5888454368678
94.2941511238781
94.0669920037345
93.7212944009348
93.4599156108163
93.2624116497988
93.167240282209
92.9374018335254
92.6481836320952
92.3907130518066
92.3001812488781
92.1021537744371
91.8239040267647
91.4826680456165
91.2350090186308
90.9840412275119
90.7857570494186
90.4994743878332
90.1867313226102
89.8149339784994
89.561820537681
89.3366186527844
89.1753994423173
88.9381775412254
88.6378323530794
88.2414899933239
87.9458970938284
87.6293179881781
87.2715695017335
86.7995489127178
86.4394129530856
86.1494864958532
86.0979074157227
85.7971700806931
85.4031640401426
85.0831072447642
84.8503310005818
84.44947046986
84.0984818532535
83.662304721717
83.2591806532975
82.7642785208765
82.5271210436971
82.3004121373125
82.0084836364131
81.5668501827414
81.2429381953716
80.9632831078055
80.7846040258921
80.3845126776146
79.8879294203381
79.3067505367391
79.0976555040334
78.8534634257089
78.4030769847453
78.067513004624
77.9032340281225
77.4633990464077
77.0765317969721
76.6969653076354
76.3679984435673
75.9239318843575
75.5760804758178
75.0857280685604
74.7869874257174
74.534016547009
74.127056831451
73.7360360048666
73.5846267326026
73.2288405051927
72.7596515393196
72.3426752767125
72.0176190277011
71.6198613267042
71.2812463468038
70.9414692169999
70.6830924256241
70.213792215671
69.8703708791029
69.5208595010764
69.221391829578
68.925097631362
68.5920919187376
68.0650406788998
67.819392140696
67.4672815666747
67.1240223312577
66.9305879858743
66.7459592428279
66.3759110808109
66.0052658004782
65.5857831652917
65.3311900687921
64.9919721403232
64.7059215837229
64.290815661883
64.0338168695614
63.7300552501
63.3896733213392
63.0407641572086
62.7813308594633
62.362362295491
62.1140881496358
61.804888890861
61.6002783804376
61.3451898541634
61.1135890937576
60.7450738986366
60.4811010905266
60.175386772961
59.9062919608859
59.5314288020378
59.2743772020049
59.0044185470561
58.8649000854192
58.645295674472
58.3588301990658
57.8999695433851
57.6707511849083
57.4279008480636
57.1170702069927
56.7875657847682
56.6372138869087
56.4219962658338
56.2807269572939
56.115108672443
55.9493278910527
55.6660856977908
55.4642200365515
55.1907098323837
55.0402517377602
54.7700392020279
54.5670665339576
54.3047034
54.0842117388303
53.7921169988647
53.6995460121861
53.5712567900107
53.4718220279599
53.2220723265768
53.0513792687146
52.8734421422853
52.7461250648568
52.4671640116085
52.2713775642631
52.0558216436447
52.0429588177358
51.8906902237396
51.760712485908
51.5180701852123
51.3918149965921
51.209077713796
51.1284200105653
50.9712223735588
50.8459715695726
50.7021030878291
50.6575775346812
50.5062299426937
50.447075301095
50.3341178129826
50.2678009407454
50.1605922690393
50.1386234349619
49.9909236054691
49.9177742558088
49.7058579834605
49.6077592171586
49.4381887078329
49.3698530508892
49.3234838466794
49.3863337750614
49.2701882350198
49.2086522451302
49.0732620885099
49.0287908790822
48.9137567212384
48.8509778385732
48.7691209208212
48.8253975574574
48.7193803014977
48.6832961250134
48.6655595013076
48.6867814500207
48.6350162780985
48.5900603405182
48.4044469447969
48.4060021020157
48.3795158979431
48.4377517235286
48.3625032808686
48.2894217045505
48.2300619160118
48.3254862606245
48.2625598563738
48.2126137274489
48.2046228444962
48.2964339077867
48.2249014179118
48.2829397042992
48.2599000709093
48.3074204041641
48.2883933438973
48.3548459308784
48.3270217419816
48.4040412952198
48.3891970871447
48.41456255941
48.4359607189858
48.5364589189177
48.5682700027719
48.6761259968138
48.6099204298431
48.6311949012755
48.643942576183
48.7617167245859
48.8369613834753
48.9349584752455
48.904766819389
49.0181638981078
49.068772106688
49.1949795714941
49.2853604268169
49.4591519578787
49.5506201307624
49.6925953174634
49.7477058684762
49.8843859224916
49.9965065776169
50.160221743457
50.2458029432927
50.3670020119958
50.4702308673616
50.6313893487653
50.751428537212
50.9068845272765
50.9784673552448
51.1953285592911
51.3602686815978
51.4652701179878
51.5327381549347
51.8089431089682
51.9747619125803
52.1761903282754
52.3413403222702
52.5266014474026
52.6280325688867
52.8643423994986
53.0205352145695
53.2428976882576
53.4076168799882
53.6543857994591
53.7893054252015
53.977720140443
54.1398839333577
54.3686280129165
54.5692174026377
54.8246261880163
54.9694878079255
55.2211864462839
55.3912758375845
55.5382562885807
55.7360214140263
56.0255345828397
56.2498572171566
56.5271492890467
56.7550329358261
56.9654063693528
57.1407023509082
57.3865071045917
57.6121063417765
57.9052133212478
58.1345802898625
58.4233721140062
58.6190383744579
58.8472463399127
59.000832908688
59.2440500706859
59.4569063151475
59.6827737446691
59.9795336968009
60.2553599395944
60.3980017041041
60.651637753144
60.9341731549628
61.2560469331056
61.4513411936069
61.7151461989752
61.9484925443981
62.1909461463307
62.4045723795592
62.6586966270986
62.8220509630669
63.1048369596361
63.3550719479097
63.6755905198388
63.9038731521408
64.1128992170176
64.2861527175418
64.5013151833404
64.7306209897172
65.049285259839
65.2938154403223
65.6379449412125
65.9196109941303
66.1885088241777
66.3595148060807
66.5903157799878
66.8080468698559
67.0645255346319
67.2490635762249
67.510846638238
67.7607724969467
68.0651685978031
68.297333481629
68.5167984143867
68.7235410280602
68.9803961510679
69.2173531973144
69.4755045392791
69.6900485197376
69.9700425269991
70.1585276123584
70.3926171276876
70.6462000175075
70.8683454433793
71.0130754888795
71.2425153125628
71.4369104173287
71.6249163706994
71.8119959096739
71.9842113469154
72.1251769115094
72.3004096727596
72.4030699851746
72.5441357987631
72.6497157001255
72.7532405366121
72.7933269758783
72.8689487428355
72.9119230840856
72.9832856500937
72.9139697153201
72.8814013297139
72.846341703996
72.8430095782605
72.7547147159119
72.7244554907812
72.6660241249649
72.5905538902091
72.4538845038064
72.3221916350716
72.1706696089213
72.0381632949222
71.8702175755611
71.7741159657535
71.5972974498513
71.35561999
71.1238018302123
70.9195244538887
70.6261392249635
70.325869606067
70.0748157640813
69.819949105633
69.492051820291
69.2879771575654
69.090270801545
68.8785392702651
68.6727299555237
68.5476859073196
68.4260421749851
68.446670300473
68.5372795690894
68.6430423782301
68.6773461574266
68.7560997971495
68.8911104410501
69.1136740409069
69.3070610966796
69.4849950460219
69.6496399260513
69.809636834297
69.8785016933096
70.0080395574835
70.1215226956704
70.1965569326022
70.2326889995562
70.298045800733
70.3147755554779
70.3727720117614
70.4241916711691
70.4067110754477
70.3438010330937
70.3328924024785
70.3583568248493
70.4071676388848
70.4269658998456
70.5074640190145
70.5641994988899
70.6453098286688
70.7605204981664
70.9318333396014
71.1514727662703
71.3827359102434
71.506809830776
71.6336582027124
71.7914553385324
72.0337750985012
72.2266565704901
72.3817233949317
72.5173609144503
72.7159668225902
72.9350693680344
73.1685897697044
73.3222155826898
73.5061365387579
73.7212507701727
73.8740365204663
74.0368909784904
74.2354892478709
74.442248322108
74.7390095530937
74.8974062554062
75.0705903914677
75.2271506203866
75.3544144273048
75.5162640456195
75.7034959431876
75.8713082082143
76.0696099575934
76.2151958418548
76.3676556925746
76.553831146403
76.7345593636297
76.8283549631088
76.9833117705154
77.20404547933
77.3614701037394
77.4371980530656
77.5794918153067
77.6962368965407
77.873178752252
78.0773755239345
78.2240240335528
78.3164419964431
78.4650185092888
78.6283790604898
78.79916852941
78.9140498515171
79.0103879564109
79.1196961712752
79.2270853406547
79.3143314626306
79.3967498597385
79.4853931516438
79.6284218992467
79.7690601166484
79.8704800634417
79.9371919326815
80.0253613334629
80.0557662064299
80.1162249651555
80.2631556749793
80.3598755488886
80.3822819144158
80.4658157453192
80.5459595046187
80.6217019269764
80.6911453045444
80.7909516789896
80.8430551417433
80.8791139695119
80.9355547391942
80.9950480801604
81.0314653310746
81.1252547582866
81.181357369136
81.2185055262038
81.2692518807105
81.3081444324781
81.3518686976284
81.4863954161438
81.5408662440172
81.5691722267242
81.6634910659038
81.7256125716199
81.7391291027521
81.828159693216
81.8888853760782
81.9096830818081
81.9430919480216
82.0428045023778
82.1110210361354
82.1690480890645
82.2123788086589
82.2765740448015
82.3369122132724
82.4152771517919
82.5084326419723
82.5833038247575
82.6465403641055
82.6972268558502
82.7677697316412
82.8702238833465
82.9060451118569
82.9803689002726
83.1152139807397
83.2054770952239
83.2879996800936
83.3671193449828
83.4442083902756
83.5551129544961
83.618909416297
83.6861587872837
83.7550676911176
83.830252258063
83.8915950387258
83.9903320978914
84.0890231168862
84.1978374065995
84.2960972992283
84.3889781089614
84.4953018029045
84.5865206405054
84.7250065225218
84.8396662624431
84.9110755991584
85.0510079341095
85.2184028799933
85.3286278120613
85.4419826921839
85.6045581792524
85.7260749688013
85.8205244565063
85.9062314051352
86.0475136902476
86.1924893368885
86.3333987751944
86.4431820796645
86.5530980813736
86.6660089424194
86.780478771476
86.8776456858366
87.0234213647836
87.1339806532187
87.2071743991267
87.3453492292708
87.53260151134
87.6375416907209
87.7739867720428
87.9224965940945
87.9991058493147
88.1158487153817
88.2154695723399
88.2323889902986
88.2581370431017
88.3477008056674
88.4324742124611
88.5407641703463
88.6906091182913
88.8213873761528
88.9698578341609
89.0089745827475
89.0408152598827
89.099850436341
89.1234556259751
89.2253513432198
89.3800104840693
89.4223580150369
89.4529323981641
89.5552690086902
89.6794947661767
89.7712828998252
89.8716927460873
89.8343759247704
89.7640104617816
89.8559927012574
90.0345152758039
90.1394399039288
90.1468312957903
90.1415833320417
90.2275367861901
90.3716334605852
90.4923978729841
90.5675731775049
90.6721219183526
90.7386986901704
90.6823333194501
90.7371139297911
90.9014405797291
90.8979522838771
90.9278198614892
91.0203695974268
91.0508988077362
91.0134429272172
90.9899905606306
91.1104556474851
91.2503708553551
91.296789962696
91.2539802255361
91.28248262627
91.4774268451559
91.6251188571728
91.5970400019664
91.5634259684279
91.6811943765408
91.8353671525246
91.8929956391248
91.8199808932493
91.736412610968
91.8669969831546
91.9983447779143
92.038619575644
92.134664672719
92.2441586330257
92.2969161441264
92.3286972222911
92.4052347367076
92.4703452005833
92.4486050123766
92.5167815853465
92.6309658613675
92.6086706376425
92.656502805951
92.8068017474821
92.8858439677256
92.9296930141005
92.8734201382885
92.8816755293863
92.9222939719911
93.0505825308799
93.2241806018018
93.3509112859247
93.3537376665448
93.3515099445644
93.4517698747471
93.5362860912122
93.5585575613319
93.601477100527
93.7331718434745
93.7640870501987
93.7075692629469
93.7333818134641
93.7985987841653
93.8384565673259
93.9077652237978
93.995361474809
94.043217192312
94.0413992857723
93.9645542825614
94.0309778588255
94.1721922579155
94.2259485582755
94.2383503261035
94.3131609905062
94.3465152165781
94.360923000439
94.3880237203447
94.430500796931
94.4481354433037
94.4346759104634
94.3926112517
94.3656841183764
94.4538285052368
94.4683367135231
94.4234801498949
94.4961457755608
94.5586346505552
94.5656125928311
94.6147573687453
94.7022273883002
94.7324463042879
94.7731451039068
94.8354725916981
94.9416589292734
95.0170143453064
95.1701111470622
95.3076472865153
95.3298470085253
95.3062570644185
95.2705004658712
95.2184538937042
95.1527639021737
95.0946538586591
95.0696284493952
94.9906479826738
94.8420744397885
94.5942405637186
94.4191803777023
94.3086689037407
94.3128490594008
94.5193175012398
94.7478926112801
94.9108168951187
95.0342543232095
95.0226864866824
94.9817362931187
95.0855938988465
95.1138937027372
95.1299320454493
95.266632288272
95.3741245246315
95.4202016634266
95.4149664992024
95.4541388746565
95.484572818506
95.5004692472324
95.533910798703
95.5919520529077
95.6441208954979
95.6819143742776
95.7026561749485
95.7479778402047
95.7552264024543
95.7253670872388
95.7984234284371
95.8707927940416
95.9202288192414
95.9554602131628
96.0580271172991
96.2948995041056
96.3763222426929
96.433786223667
96.5995286758042
96.7386179830491
96.7749912616048
96.9197356407768
96.9018629847271
96.9068157297253
97.1545795932192
97.320213404849
97.3039662205683
97.2838382669449
97.3054699126518
97.4343044382115
97.4369344003764
97.4367486125288
97.6338317865923
97.8515098914224
97.7805673060307
97.734421781991
97.9058062461433
98.1607119864328
98.326776583703
98.2606802014126
98.3055090689201
98.548208822312
98.4944832624169
98.3792840657268
98.4783103501531
98.6805842540835
98.9982839456563
99.2014167448976
99.0544719972078
99.1018717560503
99.1288022018876
99.0993750801984
99.2131835181711
99.4889983948749
99.4246328863628
99.4858460535318
99.506112433175
99.6172753328041
99.856563801612
99.8067431808227
99.6546279524127
99.9121608628341
99.8632329358783
99.6924616017282
99.9750310761854
100.228258978682
100.281657052115
100.335219129118
100.716379155628
101.453746498865
101.517313387253
101.472274930066
101.39704960106
101.106236809642
101.097409658507
101.20911776651
101.047760974482
101.554804694315
102.453740013306
102.702012267362
102.439491641044
102.495197659122
102.064297544602
101.454971178772
101.081958965446
101.083520436203
101.001629624529
100.827432351569
100.408787389714
100.326344372023
100.088892686067
99.7713776644366
99.6968146481387
99.5984065811404
99.2012994512966
98.6735470720877
98.3945233979697
98.5717807473123
98.604524338481
98.418713709819
98.2479092211667
98.2708728909973
98.2093625645486
98.1443831784963
98.1361849844437
98.3382945366644
98.3324182249618
98.2649554633573
98.2134240022393
98.2786444743892
98.3659353338666
98.4377775521521
98.4330841902267
98.4708649873967
98.563414440342
98.638485094355
98.4581559075743
98.4641816298566
98.6267071147939
98.6380833194323
98.6097712752223
98.5483988947385
98.4824775188962
98.7613122608551
99.062630872859
99.1773349327655
99.2174715276118
99.5225292451048
99.6666579417723
99.553232301715
99.5372054846374
99.6322332464762
99.5312607734154
99.6416570849064
99.822134147391
99.7736348439886
100.015848687299
100.545703957832
100.896059404035
101.212626480269
101.300377938044
101.509672443389
101.625010278838
101.887567661201
102.037835600997
102.394309245409
102.836945483077
103.002955328054
103.032564540335
103.102495162706
102.869880591894
102.810161582665
102.929782881078
102.759712465486
102.703462721203
102.884599788133
102.69606589278
102.60517423758
102.396033356924
102.47874293114
102.474066598239
102.380744579207
101.957606559987
101.744530512436
101.36131475826
101.35362349522
101.245565917145
101.340851808577
101.491260602332
101.619114782376
101.384894879802
101.18086751169
101.009038413294
101.543533553999
102.079533821789
102.3160383174
102.25574621467
102.29674564299
102.459437700937
102.525525224968
102.203183433296
102.011245279835
101.949054019159
101.569614659171
101.219113027985
101.145762218411
101.127874726633
101.208127756066
100.952332556994
100.561355489599
100.188891822612
100.113281336385
100.006790923493
100.01562554213
99.9194963919012
99.6954473193867
99.5403087965954
99.5548611993822
99.3789161178821
99.3067354552558
99.2481296253783
99.2198267164072
98.9427124228466
98.8059528038726
98.8294715736902
98.8930412830925
98.8323942404954
98.7344195250995
98.5894341713134
98.4710888085829
98.3945450559087
98.4550639412774
98.3631051814249
98.3795591971385
98.3753844478313
98.3096427968846
98.210725530441
98.1512083032384
98.0961984305859
98.1104985001845
98.0632801746535
98.0686026641048
97.9427032431093
97.9077086253575
97.9101258308291
97.90792274704
97.7537661232577
97.6403813275738
97.5964712695058
97.6442383746437
97.6126772269396
97.5221740284305
97.4801187756786
97.5477680430919
97.641746927585
97.7117832356525
97.689354603731
97.5849875983616
97.4069991091721
97.441931105437
97.4572055149349
97.4402296617069
97.3781018369316
97.3665206945449
97.3084628364281
97.2987299096372
97.2837190140935
97.332776004437
97.2580389542376
97.2277587246879
97.203808509765
97.1138598630126
97.0340336485484
97.0583822902527
97.0616839381651
97.1367389136048
97.1130330321331
97.1342189060958
97.0605100496452
97.0098184316918
97.0393201904258
96.9840250330105
96.8524316384904
96.8263397161016
96.8226298186591
96.8099653212634
96.7332661282868
96.6779535791705
96.6248566840217
96.6113725091597
96.5910665008512
96.5955359111095
96.5131979964603
96.4319343830151
96.3654533998403
96.3614037870082
96.3101875496516
96.2307617097056
96.1408069171634
96.0595553281648
95.9461910240331
95.9483011515075
95.8813335486227
95.7311360519625
95.6819633338958
95.671914003658
95.6270890103777
95.576161305806
95.5558166712844
95.4510865307576
95.3117801660154
95.2716074471164
95.1584530125993
95.1222977418107
95.1019886149061
94.9741037019492
94.8305259123691
94.8554280672601
94.7329237920988
94.6198702644274
94.4585396256436
94.2283322048795
93.9744890614586
93.8246718060144
93.5284465164649
93.2253095605759
93.0398648428485
92.7300273489446
92.3141520978986
92.1420949104767
91.8291532572504
91.6299141492302
91.4485531422922
91.2972070579996
91.1671149281545
91.1726412303684
91.0203252691751
90.904782405471
90.8477901078672
90.8365562440469
90.735184530285
90.6543926802171
90.4783839936268
90.2291438220055
90.0182452775889
89.8227495695427
89.4408751856063
89.2736493910846
88.7195149716752
88.2436681352575
87.8200103409905
87.24633808474
86.5768051209231
85.9993106852118
85.2390132656116
84.3553338779389
83.566115060222
82.8870026293964
82.1035678375287
81.2444284141479
80.394330505512
79.6413314962561
78.7148846663937
77.8921194749562
77.3050450381506
76.6049596919311
75.7118453778535
74.9436124206194
74.2596037262368
73.6145340107899
72.822791368061
71.784488893598
70.9650048846044
70.7589341425042
69.9603193487736
69.0135016280727
68.2538694321366
67.5215842421496
66.6338329020737
65.7150608967828
64.5841961360677
63.484335276139
62.8375437882047
62.1824492028951
61.2129643954945
60.2054808095679
59.2426827499283
58.3017278862243
57.4081690526313
56.7679818135848
55.8729933621275
54.8478483953116
54.2411980861099
53.783667520988
53.0804676995427
52.4572826680418
51.8698735495786
51.4327475650203
51.0249517423641
50.7432058894544
50.5223193335927
50.3793660986365
50.2104420952166
50.1969653811108
50.2549830596832
50.3699010418738
50.4760041855721
50.6685015155439
50.8294114507081
51.0611183166754
51.3591642065674
51.7159581797629
51.6381010151445
51.8535827718534
53.2392338104254
53.9226370664221
53.8501704099493
54.6268475931938
55.7288585784522
56.4271998415019
57.2289797658942
57.1325983675781
56.4914519829837
59.5861213027544
61.7711825967979
62.6807219350861
63.6071213031876
64.2907835467905
65.3991894373144
66.083801700451
66.6028158901005
67.2929599502826
67.7738762553405
69.7154987631708
71.6676013882987
71.8666535448222
72.0179296980912
73.0105089225776
73.522246645242
73.6890618529763
74.0580022529983
74.4667690187885
74.4650512078257
75.0297990432345
75.4924852222648
75.5054416757446
75.8467305577109
76.0915652873288
76.3470871253472
76.2734674484247
75.9942841131555
77.1965275676325
78.1340279598978
78.1268805848023
77.9496161811569
77.7733839892509
77.8664397157869
78.1456298513177
77.9663862874655
77.5361895992041
77.4418138361977
77.4483293585372
77.3112836925147
76.9219451896684
76.4391266014268
75.9503825075999
75.3372173407133
74.6154594703961
73.8229061804855
73.1146586094645
72.641774952905
71.8570311556481
70.8452162723697
69.8869897229258
69.2687100588101
68.4853382885033
67.4149342521044
66.4481290226422
66.3306999366363
65.9385696157029
65.3315956094132
64.6663756181412
64.1006636080983
63.6942703107085
63.2281753772684
62.6717294335416
62.0560046338337
61.1812644075984
60.3779601755487
60.0180794363298
59.3577764806906
58.4369402672938
57.6185728323294
56.8930679212187
56.0639554988368
55.3124868752826
54.6054702646287
53.7207159335989
53.2677233524857
53.0112746612571
52.4930982509079
51.9580176173323
51.5785166407143
51.3102564850887
51.0122580876356
50.8823728255827
51.0014671625467
50.9100343095866
50.7806735662218
50.9568759681929
51.0392659978381
51.3990458910061
51.8092114505337
51.8597826687641
51.8830394390873
52.3943188382723
52.9577640478894
53.2490844768117
53.528436781519
53.8097734145441
54.043287332516
54.1584772743543
54.5718683246406
55.004145589534
55.1640993333684
55.4425252801499
55.7160342661001
55.7761840030559
56.1181167945392
56.678995661005
56.9949568374879
57.1722767318114
57.380225346012
57.629429097429
57.8150842344153
57.9413239139685
58.0813723783207
58.2509581559544
58.4003042036186
58.4775055044709
58.6881470889353
59.1675622798238
59.6341617816397
60.0074514701867
60.3094159139749
60.6203895377376
60.9146491227145
61.1696981275975
61.3968776704085
61.6301642274851
61.7808977246953
61.9177747368958
62.1559151115084
62.3780534627402
62.527218085514
62.7039143615466
62.8713589275766
62.9988296280314
63.1558857501104
63.3364634306308
63.4833073883399
63.6272878852432
63.8039041716101
63.9437727039925
64.0800893415331
64.2254304895128
64.3585560617381
64.4409170579493
64.4989176249568
64.5856034454547
64.6439640612622
64.6612740797838
64.6861302455585
64.7161336905254
64.7177263374006
64.6805879802983
64.5927254667762
64.5008457444493
64.3796898367232
64.2053622411996
64.0142444273984
63.843628683497
63.6849408191494
63.5703636724609
63.511560202198
63.4920132157875
63.524866268023
63.5800435836616
63.6140295387208
63.6412997755739
63.6392624736584
63.6256740092856
63.6097756877853
63.576619429197
63.5207062767619
63.4276847597623
63.3372251731359
63.2662130001118
63.2166922679178
63.1870769936763
63.1630879451502
63.1966539120087
63.2829310830102
63.4069888948509
63.5533773090208
63.7488901481895
63.9815316548658
64.2183004002863
64.4320541376593
64.6571166680944
64.8447617924602
64.9696828475339
65.0558513386126
65.1195921985204
65.1151710687638
65.077890965036
65.0304419221275
64.9301004093563
64.8000418060818
64.6347245266346
64.4553106086248
64.2473694732957
63.9925424094599
63.7731823714135
63.6075893711495
63.4718835670836
63.3620432577996
63.253529513429
63.1347630678212
62.9939047212014
62.7995442152876
62.5430454977271
62.1837603886763
61.7155715912267
61.1050339148422
60.3620042522485
59.5808582707936
58.7687387638003
57.9668211042452
57.2046674836585
56.4833352558637
55.8440954605617
55.3177006261834
54.9244283336025
54.6058440002539
54.348771168326
54.1644040657376
54.0172138439954
53.8420788278553
53.6583257216575
53.4578841035291
53.2143080711251
52.9321941415916
52.6310022975149
52.3032791085951
51.9743369533041
51.6143249234763
51.2210940686289
50.7391379383445
50.1847608493786
49.5469266132397
48.7760405408441
47.8658088576542
46.8454330567606
45.7227987225111
44.5905316460643
43.525170641814
42.5759903412853
41.7591980128207
41.1492182373026
40.711716117174
40.3575882354902
39.981467609201
39.4778793754192
38.7526186905529
37.8420293665544
36.7338161336534
35.5323343060361
34.3313969026374
33.1783971116919
32.1170955655841
31.2270420872538
30.5178810081449
29.9242743065031
29.3766830012487
28.815436616822
28.175686776844
27.4641977403597
26.6793166410921
25.8700421386766
25.045555298853
24.2522563244208
23.5268892324005
22.9222373961636
22.4061106304621
21.9846970755514
21.6422018030329
21.4512198042012
21.350880461879
21.283078668128
21.204001354949
21.103450317774
20.9644992844596
20.7608216674477
20.4937542017155
20.2455744790039
20.0375124449366
19.9418796868411
19.9426794220928
20.0871160262197
20.3693255022718
20.7725877171083
21.2097913199189
21.6799225360009
22.0958931172027
22.5067609783222
22.962361268531
23.5325180661807
24.2146628354325
25.0585800604858
26.1032223872624
27.2926489773643
28.5375331909563
29.7518762499482
30.8551800990905
31.8224290695843
32.6104919702116
33.2787691874465
33.8202775442889
34.2555537945197
34.5759945161613
34.7674252904051
34.8231471538483
34.8259783928924
34.8995743964826
35.205358064979
35.8116590595794
36.6609269288072
37.5542697137425
38.3238192786323
38.9061882296536
39.3937507457609
39.9445694207693
40.7440511085818
41.8516579397749
43.1554564901793
44.472050020042
45.7516316914736
46.9036759759176
47.9571552024368
48.8796291712334
49.6826448935357
50.3221933086614
50.854463950413
51.3206988788438
51.7028604957269
51.9964478762285
52.2630811711675
52.4383163817249
52.5150536094636
52.5388143595394
52.4911016870383
52.3319400495962
52.1389923254637
51.9967813021919
51.9553637975407
52.0409510542682
52.3168147358794
52.7552114152553
53.30910553798
53.9342432376355
54.5776735589036
55.0954487202349
55.5247219152527
55.8561101591754
56.0975070522939
56.2617242540156
56.4166042312479
56.5801362359126
56.7750323941241
56.9784833618878
57.2345685517211
57.5089534504199
57.7565017897791
57.934630489278
58.0364262783058
57.9898839686845
57.7655109765419
57.399302174108
56.9405992255126
56.4032231541202
55.832100941881
55.2402253017441
54.7798489907587
54.4808980062125
54.3825318727283
54.5161616409358
54.901771144852
55.4376536538516
56.1023875403868
56.7690309438959
57.3415924136255
57.776718491953
58.0927336000786
58.2477988759705
58.3293592909116
58.3591590018856
58.4021774305648
58.4575755236766
58.4796027241279
58.390483088669
58.255740863822
57.9772747613193
57.5239067868468
56.8368875635835
55.9295680353907
54.7414376684824
53.3925766594492
52.1021934364074
51.0109304019721
50.2398348050151
49.9680368915134
50.1880937445365
50.8290102860334
51.663232891592
52.52155897541
53.2104200823136
53.7524586069384
54.093571610759
54.2315698127819
54.2634253508759
54.2087038436239
54.0216109169709
53.6939541442949
53.1581602685031
52.4285768799129
51.4110561752477
50.122225487524
48.6323068007151
47.221595224284
46.0454935280227
45.2646314821836
44.9569481822323
45.1153011898933
45.6041687960227
46.3146626348149
47.0760146205362
47.8583045021772
48.5473730475721
49.15792110192
49.6559604639165
50.0595633706374
50.3154470805023
50.5371602158591
50.7248865874044
50.8167721132435
50.8494966005499
50.8261387989497
50.7812439881231
50.7486009542874
50.6125584567598
50.4540422664488
50.3020832920495
50.1190021802731
49.9029414993459
49.7343978931216
49.4956388621033
49.2640258112882
49.0414163900595
48.8505144519351
48.6223144295708
48.3694830168999
48.0806446030683
47.8749787450744
47.6068596290501
47.3156212858561
46.9746916133127
46.6780017970266
46.292847274314
45.9210909270849
45.552715462938
45.2597759340408
45.0133606221702
44.8309234319264
44.6918628382571
44.6517472552334
44.5996827651728
44.5355381741635
44.4238793404138
44.3996618749392
44.3277094864591
44.1855246130757
43.9942417180083
43.8931466437509
43.7416765053981
43.5272388584309
43.2928660849984
43.1116729855752
42.9221732579477
42.6934961370743
42.3328413438757
42.476321814455
42.3623706247743
42.0374168303323
41.843230453
41.6851285461739
41.4536988744377
41.2986719778525
41.1321502296321
40.9235985102097
40.6678938629727
