1798
3999.43349933624
650.420452594757
1
128
4
94.3735951415426
94.4090723206074
94.2360568004975
94.1554059862856
94.2759177029906
94.3382059177367
94.22988480188
94.228784672743
94.3264019361249
94.3690395724124
94.2317713931268
94.1521315341939
94.2018676472563
94.34460945748
94.3510876287338
94.3405264757006
94.3276603176798
94.2979215164891
94.3124189832753
94.3870746916958
94.3778655954937
94.4143406573951
94.3779555136837
94.3287239877618
94.259493176414
94.326153630572
94.4127745531601
94.3760256746031
94.2827215752439
94.316353851855
94.2668436528334
94.3536419412784
94.3292330773133
94.2525121396309
94.278915885303
94.3714781555557
94.4563205801205
94.5234701919111
94.4946661011644
94.4839230805079
94.4776177916017
94.4669175956641
94.4273563555687
94.3911662004252
94.3717673992663
94.5079686949994
94.5335508259363
94.3997435312607
94.3980113165157
94.509754701302
94.5204493565154
94.6127214902401
94.6491643065748
94.573539472448
94.3975977748741
94.4442581968146
94.5398179587994
94.5527042346909
94.4086946334554
94.3494953292687
94.4954694773541
94.5569778061078
94.5846766482099
94.688445768738
94.7065768348857
94.706006005138
94.6512294698951
94.6478327651423
94.5790929999044
94.5512553538835
94.52221544469
94.639124103372
94.6525864769498
94.6117349572514
94.6142892550488
94.6565744978223
94.601175791012
94.583333235155
94.695261196586
94.7773914897774
94.6628161801421
94.6797886017228
94.7267957149046
94.6957168378155
94.6500359045807
94.6458886518123
94.6986429442705
94.8762177300589
94.8229913899845
94.6771685845738
94.6312114337589
94.6703051931795
94.6720673033628
94.7526398698173
94.8451800498782
94.819717253584
94.6760820506756
94.6738530583556
94.6704602525188
94.7477112247578
94.8224972233519
94.828610174183
94.8464045641794
94.9431234155759
94.8853557643905
94.8973973978165
94.8366732989372
94.8489307490792
94.882278024569
94.7245350957973
94.6284218619498
94.7690145314227
94.8328505354117
94.8016047204218
94.7808584908953
94.8845121874914
94.9352352872115
95.0126399879245
94.9359757882141
94.8021345260119
94.8040903278902
94.8481681146486
94.8450259066811
94.8440431017194
94.9258076022775
94.9714857377852
94.8990252557335
94.9038768143541
94.8927065300956
94.9740168254489
95.0378918743176
95.1416272881068
95.1768238740761
95.1614517967634
95.0151247529022
94.9027788187937
94.9647609465662
95.0645930412924
95.0070715031598
94.9773215569792
95.0025730759156
94.9641827007291
94.8353770574111
94.9624710941916
95.1087545433774
95.1513257334924
95.1043512258464
95.0736535056248
95.0257059949143
95.1239602220285
95.1784056856481
95.1953264090896
95.2639019407101
95.3360987810552
95.1466771103817
94.9443737607523
94.9364279520604
95.1327873811426
95.1922030546365
95.1936758341674
95.2425351044427
95.1943686959241
95.0586134050182
95.1192719183612
95.1631906751946
95.1764951263261
95.1628664236984
95.0973968344808
95.0546114010478
95.0962821478266
95.0811829799475
95.0755154277702
95.1292367989622
95.0628130883124
94.8759119608053
94.9627755071302
94.9086409459276
94.780361425725
94.7206816155079
94.8400514945068
94.8586822600675
94.8254626698289
94.7404390180324
94.5973858596795
94.5370362744432
94.5454292393053
94.5299042308373
94.4362698943037
94.0733995896923
93.8556351261424
93.9174932889728
94.0721213553589
94.0147864904514
93.8324767972335
93.6072624785097
93.4693094986871
93.4083591544604
93.4111642339258
93.2818302397105
93.1065612363546
93.0706664077446
93.0665426797853
92.888983053684
92.8311408697851
92.7063394176431
92.5252026098946
92.4171444396002
92.4442631102538
92.298348750558
92.0599249754782
91.8982520939506
91.9206652510334
91.8346561672333
91.7968876839767
91.7779802482559
91.6504294180898
91.4669120454688
91.3909552650059
91.2891954590437
91.1866518693133
91.0211700486499
90.840840521453
90.6678458655651
90.6099856089288
90.5363766723798
90.4830407120059
90.5342548994052
90.5889472110337
90.3539744231274
90.1688328948963
90.0246749041367
89.8926915265486
89.8401448764456
89.8843767355287
89.8262263874675
89.6647322557577
89.5181193857209
89.4666418499625
89.2384893899516
89.136275381332
89.130439048744
89.0168796170195
88.7685539784911
88.7313658350906
88.7086044368791
88.6208302109339
88.528886897047
88.4443044587663
88.3471235186299
88.282398264546
88.1109593484115
87.9922861650087
87.971928465045
87.9358322397246
87.811411454854
87.7478083945808
87.6903346763405
87.6620643619009
87.424436952312
87.2245022709859
87.1502131255597
87.1779455208697
87.1404048634472
87.0409495910575
86.9525638539251
86.8953851260964
86.7225245815348
86.7256913786995
86.6946180150022
86.5138757335707
86.3006229094943
86.2125866323962
86.1522795607732
86.1807049877055
86.0929431874741
86.0591772307097
85.9411144246555
85.8508575959101
85.7251343497671
85.5740836920947
85.5354099918954
85.5570409705368
85.3978282996398
85.3408567961124
85.2039024150748
85.0552705693797
85.0289434474441
85.045923652278
84.8689917598085
84.7785993657021
84.674085467389
84.5504071348337
84.485987966172
84.5857108051881
84.5715241473789
84.4292226225844
84.2729608242925
84.23680462509
84.1640982720433
84.1506923464598
84.0226003396096
83.8360352515492
83.627091140023
83.6848011739854
83.6865580861488
83.6321839034696
83.5239135868532
83.5241962495522
83.4709431538179
83.3848251118066
83.2415432721758
83.1308093531366
83.1065815248797
83.1209760805315
83.0912064250224
83.1094497800627
83.0506337614356
82.9399916023488
82.7959867103817
82.7211134787361
82.6061262024424
82.562689443766
82.5492550513677
82.5224827964507
82.3828036857118
82.3825058618924
82.3626181945555
82.2526675627927
82.1611655854698
82.1950149022763
82.2191497596774
82.2149510398073
82.1214481126277
81.9954662985585
81.9003577411637
81.9777149396952
81.9675526246589
81.8534013116687
81.7368997516584
81.6920901797976
81.6372397513723
81.6954881658566
81.6818553850576
81.6711083260797
81.6112934057452
81.6263995266174
81.6033489825477
81.5487364675167
81.4583728280209
81.4355344597411
81.3699785645119
81.4012248218764
81.4358332483952
81.405642561152
81.243716337657
81.2902288976277
81.3412479213087
81.3578550500643
81.3264196002875
81.3799064920636
81.4113172990758
81.3948167138528
81.2684638439383
81.1805636563526
81.1192980518791
81.1670126979781
81.151836655796
81.2492725144164
81.2822465739856
81.2307442565077
81.0901857192863
81.1145463966898
81.1376854769133
81.1791523775386
81.1086923244163
81.0513145432662
81.0885246275386
81.2138671404177
81.1317225577278
81.0665904623228
81.0468127182766
81.084381536303
81.0625887051993
81.0462329444367
81.0072357784638
81.0206635113128
81.0075952618878
80.9560388551646
80.9274438866406
80.9828683860984
80.9473529282363
80.9300727831862
80.928708558182
80.9398361737591
80.9244185143623
80.9180791078693
80.8604251939143
80.9120566480679
80.9188557862962
80.9295233852204
80.9585599078891
80.9236295998121
80.85833767485
80.9078740758426
80.8647173422929
80.8549327914438
80.8653621337579
80.8337919892591
80.7106545354937
80.7834999239744
80.9578667682363
81.003679783462
80.8613860885904
80.8627373412671
80.9290906968219
80.8964165261492
80.8811042758628
80.9194647037957
80.8616005305334
80.8583011365629
80.8552518040349
80.8145606445773
80.7884987308766
80.9124793120455
80.8965341705231
80.9257701729068
80.9385777966753
80.988973362086
80.9825488014712
80.9844887132891
80.985532237657
81.0987154262384
81.1451732288471
81.184462919046
81.1697189495525
81.1182847812119
81.1390739902714
81.2377369597212
81.2103541328319
81.2118460440925
81.2123781781515
81.2742527529549
81.3271613891852
81.32423766833
81.3321374757008
81.4689802997373
81.5137001904102
81.5403075040997
81.4997844803676
81.5741351367226
81.6423586977061
81.6937065876424
81.6835402063048
81.7334822751055
81.8158806038872
81.9156262097246
81.925773393788
81.9060973790232
81.8550633932804
81.8948410976388
81.9712569706301
82.0516006920017
82.1039328277217
82.1928990726418
82.2254355094156
82.3036867760651
82.3399843351182
82.3658438465006
82.3380110932489
82.381258838474
82.4810553808629
82.5944213157527
82.6288095772808
82.7223318353516
82.7552854058026
82.7638099298292
82.7715877354717
82.8531944759613
82.9183801879316
82.8780782741098
82.8032496766682
82.9095272695883
83.0605639818242
83.1265829840381
83.0402439764257
83.0924518530301
83.1793167589209
83.2748192446908
83.3376248128262
83.3395617223027
83.2789484112948
83.3850397729613
83.5422694632349
83.6737547254266
83.6730027989179
83.6902181422394
83.6645022029833
83.7051894279586
83.7850379901781
83.8309905368584
83.7753648994889
83.7877250496616
83.8950865203373
84.0083503258921
84.0463949880975
84.0944540512282
84.0993420424052
84.100321076886
84.2491627348876
84.3682402642638
84.3400870585614
84.4353318101783
84.5196467984932
84.5842389482977
84.619592236913
84.623073955241
84.6491382100948
84.7916444550985
84.8030473129859
84.7922852311172
84.8091408748463
84.8848227967074
84.9659437235678
85.0299840866246
85.0297067394687
85.1048809801906
85.1630576711832
85.198036692427
85.2222933245826
85.3503640357344
85.4354371681318
85.3903548496421
85.323208869852
85.3578212627312
85.4277981730794
85.472745354738
85.4354780112001
85.4835397760069
85.5153194969453
85.5710903270613
85.5845801601206
85.5418640938945
85.5544050846593
85.5723149130179
85.5848984527518
85.6093345181706
85.5783330996236
85.6309721009596
85.6798755561374
85.6886501008925
85.6667578286291
85.7375294238489
85.7412509340697
85.6781173869425
85.6932696868218
85.7973363591127
85.8383616571097
85.8731270700097
85.8817687189175
85.8907586763821
85.8982505588706
85.9361909223004
85.9661990985804
85.9912736010898
86.0462968182719
86.0631121949958
86.016087728844
86.0048802403497
86.0408444854688
86.1466291020834
86.1793236745076
86.1767784438689
86.1299264515444
86.1828709811118
86.2740152440748
86.3303846507375
86.3536134882172
86.4135417374694
86.4241034348863
86.5099727137046
86.6538429539003
86.8041071692537
86.8292909845831
86.8297792644632
86.8695666457127
86.9654310100502
87.0591064722597
87.1093173417081
87.0458773562426
87.0724378972206
87.1248478631428
87.1717898102165
87.2912367599873
87.3541466297097
87.3287767522939
87.4001072163286
87.4466431811544
87.4604492973456
87.4893840122688
87.5104898078328
87.5353977114498
87.6269959695198
87.6799262072632
87.7436233188872
87.7465651833684
87.7968378988259
87.8693781003209
87.9251933413012
87.9474629731573
87.961525920667
88.0304383108022
88.1110765997256
88.1440383062378
88.2520131826385
88.26801630798
88.319845155943
88.3703068867546
88.4042471390353
88.39916477045
88.4240397905103
88.4933310373558
88.5359592022613
88.5149261250412
88.5965836389315
88.720589425061
88.7653271538182
88.7507087183879
88.7735434484726
88.8557508800469
88.903921391858
88.8855064872792
88.9136631621405
88.9295925567856
89.0051021816728
89.0789362806505
89.1214160253891
89.1039961314456
89.1321576001712
89.2165285379581
89.2585291428907
89.2709275428956
89.291532525511
89.2857128984419
89.2990489299298
89.3437800780671
89.445035388878
89.4652879575947
89.4914030799415
89.5310332375336
89.6002639824848
89.6521612649417
89.6725870914604
89.6759740344791
89.6867621022677
89.651457735704
89.6761849581262
89.7228389252649
89.7813592578368
89.8387275930214
89.8653672175719
89.9071529321489
89.9246334590074
89.900545883161
89.9066672039021
89.9367726969356
89.9744991577123
89.9820188977539
90.0098851044178
90.0550336427911
90.1235055376947
90.1793646195552
90.2387427105166
90.2905455605161
90.2561412891067
90.2233172592864
90.2686009956592
90.3032376577528
90.3336323340608
90.2979843097283
90.3095440224199
90.3368988027991
90.3281280556473
90.3376291530527
90.4921815512033
90.5627248232067
90.5201660434916
90.5360269050566
90.605765745809
90.5918534036076
90.5712532589648
90.6470605582214
90.7400156432159
90.7480233111675
90.7552659971253
90.7617447847818
90.7792826674448
90.7591618956798
90.7711452117148
90.8263978308112
90.884990022607
90.893854052886
90.9049507301504
90.9418176936462
90.9600519798925
90.9527672961387
91.0213822264509
91.0763226761725
91.0882562882995
91.115807350867
91.1473478245195
91.1673008035403
91.1691655744308
91.1647567233664
91.2204316804833
91.2646226791498
91.2274864502939
91.2593300516449
91.2825609921339
91.2647389946117
91.3083429033511
91.2957162093156
91.2782396715591
91.3158526577453
91.3614392664108
91.4083013039865
91.426523252428
91.4456523833903
91.5167538477441
91.5349080710762
91.5511386556782
91.573307317119
91.5821087068364
91.599843739757
91.6176743697786
91.640644081473
91.703749571349
91.7449843345377
91.7923871659262
91.8221250159714
91.8272926470636
91.8737134806313
91.9417056839396
91.9910445895451
92.0393325852225
92.0277935190596
92.0345706696676
92.031188927799
92.1351583150238
92.1876331407758
92.1931548494335
92.206754381983
92.2617187149217
92.3617279684422
92.3024902272183
92.2422897684594
92.3446638896318
92.4013610722995
92.4270708449337
92.4714950050844
92.5006885703791
92.511731723628
92.5717103135147
92.5449277777369
92.5862335142398
92.5720477587641
92.5354702766154
92.6206730627879
92.6482765641682
92.5841763626533
92.6035800579749
92.6787510660491
92.831690526217
92.8797297046059
92.7990860817158
92.8062595365764
92.855786167173
92.8150231642509
92.8708361334823
92.8736080512004
92.9081408795195
92.9343191625017
92.9686218398352
93.0103718592456
92.9662238189679
92.9985966604186
93.0492196027554
93.0958190981246
93.1558762311488
93.0675171261369
93.0561501313849
93.1088328196874
93.1307060653795
93.1141093091544
93.0469406567596
93.0686796715144
93.2011078378854
93.1962885362165
93.1641071446537
93.1374368170463
93.1893304341374
93.2746729114088
93.2541099336118
93.3261902085805
93.3948911092053
93.3003422619054
93.3339818154956
93.3691328124178
93.2980269417334
93.2364387695369
93.247667674107
93.293300874072
93.3050971544626
93.286557684075
93.299920314726
93.3157090333148
93.318696904638
93.3334078072778
93.4069035479107
93.4578284213515
93.4300896205499
93.3904046083339
93.4398434606401
93.463329730444
93.4987013012341
93.4840861839907
93.4948075648884
93.4420886312682
93.3857739196417
93.5178542992154
93.5501134842168
93.4001263153189
93.3404868479796
93.4417328918457
93.5444052098301
93.5801126852625
93.6116000392754
93.5992211849257
93.6089679674547
93.6639837573308
93.6404333088312
93.6256261820164
93.6505914658992
93.612042245394
93.6197456718163
93.6424723356429
93.6582266842238
93.6369856592
93.5463348723392
93.5442455003243
93.6413811517973
93.7335565996624
93.7631692642668
93.734410190861
93.7231585464261
93.7008491296066
93.7230199141334
93.6983396744424
93.7044266204842
93.7008719747089
93.690341862179
93.6826445890409
93.6477594884141
93.6405882533332
93.6169795872975
93.651050032503
93.7425261028194
93.7379628365324
93.7413965876818
93.7868186284773
93.7233802627995
93.6464229095761
93.6447415521464
93.7268375292452
93.7454156382148
93.7084510497197
93.7684170606893
93.8096810250936
93.8468726652464
93.8331115860666
93.8096494742345
93.8975715984506
93.9353722908166
93.8564688297992
93.8373773776404
93.8735407336776
93.8496221594736
93.7826221946401
93.7114899970428
93.6162086817607
93.6449962590846
93.7363368014652
93.7418655207879
93.6792134899331
93.6769181224644
93.6941346602837
93.7516068417213
93.7905464962056
93.6711657852938
93.5643878705569
93.5535770644009
93.5427211032801
93.5590774621576
93.6169890520597
93.6532380152443
93.6844839876983
93.7324051123249
93.7849802455833
93.8007749790853
93.8361915508347
93.8348908890904
93.8451481171199
93.8863244569678
93.8930040405659
93.8526577561058
93.8319095254906
93.8901823873828
93.9659192469571
93.9453801567634
93.9284464134635
94.0075416460281
94.0817246308432
94.1802361803048
94.2867445297376
94.2662167494297
94.2482571374295
94.3710492689745
94.4722575299144
94.517438480505
94.5496060578861
94.5168644312569
94.5572667280592
94.7705541944832
94.8869634007911
94.7964785023249
94.8423010150645
94.9801522886733
94.950553385923
95.1087292291912
95.2542965755458
95.2994261680499
95.3389476189147
95.3067651587336
95.2707583207633
95.1744450572977
95.1722610775606
95.3056306963776
95.37348439068
95.4554369018827
95.6421419744852
95.6822804186488
95.5284018149562
95.5034272935402
95.6714961120656
95.7197206045543
95.8573935136593
95.9149428958638
95.9265936832688
96.0208037910476
96.1588569188915
96.0011893662159
95.8996236835567
96.1070204425246
96.2785593267952
96.0676700190387
96.2204099390054
96.4575873561523
96.3929588067142
96.5366023090662
96.8483250808582
96.9170176399791
96.8506531242215
96.5844995475036
96.5171829237365
97.0467373639923
97.2464785907447
97.35178648333
97.5215073658007
97.6795331729034
97.5748822572546
97.3117992862012
97.3286713563428
97.3343902238489
97.466029276987
97.6876854520064
98.0212990606956
98.1676111518526
97.953640629568
97.9579789019041
98.3416084885349
98.3601714895596
97.9763053046653
97.628138829868
97.6387502860408
97.5731970856693
97.576479947341
97.4134234772749
97.0652268187801
96.8725114661456
96.8956363095634
96.8677253863631
97.0660337639396
96.7266489511362
96.343353064166
96.3058372360542
96.0592462709826
96.0105627894013
95.9605274878866
95.8995844311176
95.9736905189749
95.9998591330323
95.871437423033
95.8657137664944
95.8676498497696
95.7279161371305
95.6917162854574
95.6991036791318
95.6891740249841
95.8831675809124
95.9497498737445
95.8837619019107
95.7843181433538
95.751956276931
95.9938197749288
96.2536074382603
96.1715303682172
96.0775463921857
96.1014830782202
96.0400755146546
95.9362261766232
95.9121979651546
96.0142545538425
96.15928790776
96.3161022377674
96.3547335209351
96.5063366915905
96.6225707889636
96.6089046216678
96.5926779561225
96.5492327665217
96.6271390369465
96.7639633946345
96.7827093856435
96.7484132612265
96.7742303022362
97.0745952457837
97.2103557303738
97.3954249790363
97.8121512801443
98.085512794107
97.9573410001501
97.8708088230248
98.0406057732676
98.3744241354823
98.3378387872295
98.5168237387184
98.8131683343224
98.7108117655545
98.5284581987567
98.4688757210874
98.3263883038662
98.4170847685227
98.8171180208487
99.0592668099451
98.9329655263151
98.5088733529195
98.2753247740325
98.5201081814826
98.5190528121589
98.1840567621624
98.0970456667111
98.2155897340317
97.8201370456956
97.73559773085
97.8347568816294
97.9599681069651
97.8717532628337
97.9698349539949
98.1951313015894
98.058810453274
98.2515338003858
98.4749574633175
97.9992880911028
97.8771627385812
98.2734265773356
98.6227015094531
98.4511763956233
98.2982147133831
98.4485020555066
98.5214728469589
98.4769279226995
98.3372777715144
98.0020678353035
98.1167230671232
98.0601572747145
97.6692170413251
97.5113764604764
97.7305705517598
97.6713584226466
97.4375936563959
97.3974292605614
97.3803014110539
97.3649574603846
97.5372892458819
97.3782477924029
97.0971555615684
97.0022361654876
96.9980053857491
97.1157396633804
97.1268379864785
97.0326650711038
96.8289252871012
96.6896981193048
96.7060710956766
96.7602470286715
96.7687518256547
96.8146325691768
96.8120417269149
96.6782049691511
96.5758906082573
96.5134899595549
96.5559512523951
96.5944376093062
96.6062394976463
96.5748504391336
96.5743838775342
96.5619463401237
96.4772563460718
96.4440408462666
96.5154805099521
96.5543577541008
96.510934348133
96.4713764675496
96.5500368860667
96.5159999151295
96.4473416654364
96.5365826196807
96.5369622226671
96.4467597554448
96.4048990826556
96.4084920482414
96.5068715413617
96.5837681289498
96.6211636156146
96.5438316469432
96.4694954199741
96.4412535726219
96.4794369444277
96.4574679854956
96.4269276769492
96.3571874351955
96.374191616126
96.433336634109
96.4655663893666
96.4649714793371
96.431646999464
96.4509605244944
96.467733836874
96.4335313710996
96.4583272580224
96.5013031102081
96.4813417360849
96.4179027132364
96.4144192378638
96.464575406633
96.5432589050273
96.5444618021261
96.4478584719943
96.3570466830151
96.4198597723257
96.408922751801
96.3835575382587
96.3960290116896
96.4023581584226
96.3539415431674
96.2866428303102
96.2569736941084
96.2308303631547
96.2144116766751
96.1929265095364
96.1322938373026
96.0916982089563
96.0358985153058
95.9371605803974
95.8227594811549
95.7055934792851
95.5747378136249
95.4632924060272
95.3462077009159
95.2381129617633
95.1037793878862
94.8981629313913
94.6783103872139
94.5716296513666
94.4343341282275
94.2524756873135
94.0936691215186
93.9378232624723
93.7443786722833
93.5457027660224
93.3417142180573
93.1577671675538
93.0202741283581
92.9073647705925
92.7661586169629
92.6929027618529
92.5551345584125
92.3602618206024
92.2581029814106
92.2366281432479
92.1341462356312
92.0294120828801
91.865820651051
91.696259314192
91.6221499185735
91.5577804148929
91.3032719918179
91.1214755558856
90.9790993527955
90.7826091517595
90.5427138619666
90.2676034653525
89.9750179059185
89.725655395774
89.4395384210759
89.0582574879134
88.7545378379902
88.5986381407703
88.3799187062236
88.1000847191741
87.7638971035833
87.3608411507334
87.0255723219332
86.8241705106909
86.3702750404096
86.0432459769405
85.9482273689233
85.6649214332232
85.4646380009746
85.1780228429722
84.7688005906367
84.4224986640527
84.0318442559293
83.4556456708243
83.3561508343997
83.2761371871108
82.9194728052022
82.4527556695742
81.9226804283416
81.684472346588
81.3643111855908
80.9060567896839
80.6745616082964
80.4825405093212
80.0100096758877
79.5414925457311
79.27543655178
78.9544913383199
78.5211280329558
77.8055711670842
77.2035732137257
77.6358261264685
77.4421426285759
76.7675785305645
76.4152651654765
76.2877306297749
75.9193871548393
75.4421722875121
74.9060183794325
74.283787353033
74.2011104032234
74.2232339018916
73.810964601232
73.252375936856
72.8169506381573
72.4197923469533
71.9687666937547
71.7883280150856
71.4614366177401
70.7905851508091
70.3823973766075
70.3066758927461
69.8451441899472
69.2775781903992
68.8007027361463
68.4139727397291
67.9713795334849
67.5595490919135
67.1581693967249
66.7711441673867
66.3393847438459
65.9571868372862
65.57645610404
65.240402366044
64.8879118959003
64.5730944055502
64.2092026292791
63.9245974004933
63.6704763076189
63.4608555219491
63.0414516245966
62.4841169843017
62.7209811648945
62.9563765447788
62.5112672726433
62.2783579755152
62.4973242541752
62.4863715236437
62.4449758393698
62.0221981480675
60.8018508635067
62.0173221383355
63.4742426695341
63.7590045788753
63.9262341125717
64.0146004927456
64.3905502718141
64.6492156080781
64.6996396015525
64.9881888221045
65.1036178311749
66.6460882573398
68.4731673067428
68.7185689656581
68.701701562959
69.7349182852603
70.4102855459822
70.6410328954961
71.0992446345206
71.7616966740735
71.9263723000671
72.8545593051818
73.8760891485072
74.3377180682061
75.0378048373756
75.4292703760667
75.6517054293753
75.6299494587384
75.2568749118118
76.7647182943485
78.2365029719845
78.4330854149474
78.2691814072314
78.2635543064416
78.7204912960028
79.5003784133529
79.6973382281095
79.482899049777
79.7291510183881
80.2642868878105
80.5932439845048
80.6192813239549
80.559034179858
80.6073736934318
80.5199478547003
80.3518732334694
80.1575208366358
80.1585742094763
80.4454077330038
80.298302246462
79.7766881253196
79.3535526599293
79.3320659103835
79.1056655974195
78.4835271635336
77.9026546378558
78.2428736712676
78.2806476944275
77.8681341705673
77.3631595360493
76.9495142871312
76.7559482963679
76.5032087674761
76.1544205529724
75.8247867705612
75.308460910641
74.7744351387657
74.7813404521283
74.5596269002729
73.9979164576578
73.5221381148694
73.160888123353
72.6830670598119
72.1819120415354
71.758414053738
71.0926368780352
70.7440401373193
70.651657756064
70.2294389650699
69.6891972350486
69.2163025257808
68.8460784719813
68.4341051264558
68.0305747171945
67.8268938916883
67.5436734535123
67.0943822012146
66.890803421069
66.7104728091687
66.6929343387299
66.7600970284345
66.544048894447
66.2133738974555
66.2311611501318
66.4256224555391
66.4082185674749
66.3630515485286
66.3980702077183
66.5021821572242
66.5350968894317
66.7952902381002
67.1837591118763
67.322404988382
67.4937159981147
67.7253631571653
67.8211778065309
68.0875413512612
68.6239851776451
68.9923942390726
69.1842743498997
69.4289482126804
69.7633849089131
70.0544109330437
70.360017693268
70.6940480305734
70.9941463029728
71.2801098284816
71.4785741727579
71.6954999357245
72.1624720300726
72.5850458855147
72.8303755940023
73.0122436240985
73.2265969076515
73.4448224734229
73.6568998047859
73.8537791367731
74.0540815396709
74.2188543142957
74.3920862825092
74.6120971962073
74.8045264862637
74.9504768425913
75.1300597507635
75.3030526403882
75.4294596182677
75.5809635577058
75.7347633822509
75.8739912777164
76.0193422120046
76.1485852889649
76.2917781465428
76.4429516628323
76.5745445959618
76.6904248118248
76.798177788513
76.91516679661
77.0427674133765
77.1458266771837
77.2213578170432
77.2712900787279
77.3224599057292
77.3633054510835
77.4168416985314
77.439564919308
77.4872246111327
77.5456945652652
77.5659314255111
77.5983843824544
77.6367883706675
77.6744342819179
77.7395351194447
77.8054642329576
77.8763832107125
77.9371590225911
77.9824009689963
78.0311086113757
78.0847410937196
78.1193135465648
78.1564562754733
78.1911915690737
78.1981034337423
78.2241389853319
78.2651562059322
78.2936584289831
78.2933861065458
78.2984477560402
78.3221015356211
78.3439238229627
78.3840551517868
78.4021344837177
78.4150671894839
78.4389241248116
78.4526125059556
78.4820459412106
78.5230563424961
78.5615475338291
78.6117589495466
78.6688777914995
78.7179342992423
78.7498017092045
78.7897670193805
78.8460681606405
78.9253086899995
78.9842305741367
79.0449966542776
79.0984931968486
79.109098622226
79.114907703082
79.1711555862336
79.2085962536617
79.2102177799662
79.1913430771983
79.1821524812909
79.160503664817
79.1405208650547
79.0945477583448
79.0508751203134
79.0247092391845
78.9883715969913
78.9202081914338
78.8524044249804
78.7961728263282
78.7506123536198
78.6953688079434
78.6373169079084
78.5836175010337
78.505074538373
78.4050301447976
78.3342948823458
78.2507822524464
78.1605884152511
78.0725307516451
77.9663754618773
77.8583834064779
77.7647213877029
77.6242859503135
77.4783299003342
77.3588492560797
77.2442477676673
77.0970004579552
76.9202956870381
76.7593442661133
76.597260476126
76.4294982527084
76.2764756152555
76.1335797432052
76.0209212215649
75.8970399716006
75.763386088267
75.6265937613885
75.4907038883833
75.3635945285749
75.2357135467202
75.0952651679664
74.9456775818992
74.7671926255731
74.5895809301503
74.40040816204
74.236600141061
74.0931911900582
73.9323637327282
73.7418289234344
73.5649380121426
73.4097915341438
73.2732820232708
73.1419402495555
72.9812567992045
72.8440132258044
72.7378211161463
72.6355657341539
72.5691281025976
72.4985582398102
72.4117433952596
72.3061552146046
72.1829182226272
72.0997068652577
72.0510546935249
71.9862660174502
71.8864745664712
71.7459369551479
71.5899798294495
71.4461536302736
71.3291050441958
71.1954017388152
71.0495686251605
70.9315957462312
70.8822180689852
70.8404469909107
70.8293606332168
70.8692779831331
70.9257993566498
70.9852994493243
71.0857472547778
71.2244360577913
71.3662144439323
71.4792600068027
71.6087510154591
71.7707134599686
71.9511082770013
72.1526664149035
72.3567472084273
72.5590546628755
72.7658627774216
72.9849394347531
73.2230733986279
73.4377370758061
73.6536222712313
73.8986652341925
74.1605775410125
74.3911455192452
74.6085141655783
74.8442895624439
75.0794975056499
75.3108788183968
75.5587474624017
75.7979645508542
76.0287760452632
76.2144058452305
76.4220870303442
76.6304661946418
76.8323572985087
77.0394007112581
77.2441370800605
77.4309463915301
77.5983881225697
77.7611087165434
77.9283005678272
78.0954155582536
78.2466803477652
78.3614001671997
78.4781729123346
78.6254132030364
78.7744962551228
78.8620881638586
78.9304377350951
79.0496638984393
79.1728802349637
79.2703891902946
79.3990066615848
79.5148572250762
79.6252079984384
79.7320276649324
79.8376485190522
79.9430687590491
80.0721615996424
80.187752514644
80.3158750400586
80.40996470285
80.4777449808023
80.5619788201159
80.6430658273691
80.7216309431738
80.8239985085442
80.9227987154839
80.9812950670558
81.0235624531036
81.0849652783026
81.1619583431727
81.2170887349437
81.2435025865367
81.2508298718463
81.2966931640876
81.3610205723465
81.3728026374065
81.3567012465847
81.3674756299721
81.3964133126051
81.3950196260303
81.4053262080253
81.3906090040153
81.3442383126034
81.2971466507818
81.2968322860505
81.3164312228097
81.2988086558263
81.2317201959211
81.1873326577533
81.12585663418
81.0613661212687
81.0085887683703
80.968874017142
80.9172082931787
80.845779125182
80.7946533733949
80.7383083736887
80.6397333514842
80.5524430237917
80.4783533857988
80.3933939972405
80.2685539765784
80.1423878154795
79.9939202302891
79.8535559322356
79.6875982158659
79.5382101354017
79.3831998513473
79.2069992468838
79.0287105249254
78.8480902379505
78.6547252745964
78.4347680127638
78.2148760164134
77.9969139664148
77.7727090355864
77.5860699990167
77.3922563918931
77.1987363465768
77.011012956832
76.8031369313248
76.5715246088604
76.3864171594743
76.2573851683931
76.0989773277663
75.8891987880468
75.7317150105872
75.5386863028158
75.3514556575286
75.1924232045223
75.0028128039286
74.8169531366269
74.6437851584296
74.4660894212828
74.3387765083485
74.2359112693634
74.1645197568728
74.0294596033899
73.924206144694
73.8613348181996
73.7712770289817
73.6473571228648
73.5610318943934
73.4463958355092
73.3261156966292
73.2759479254483
73.2346338322937
73.0673645919102
72.9194701175159
72.8484741431874
72.8027897555424
72.6834605110104
72.5824284756631
72.4810133504946
72.4032305869705
72.3355042389896
72.2245990869588
72.0700107575617
71.9793865907338
71.8493293603673
71.7069779846584
71.5943558803447
71.4913117602429
71.3534524221369
71.1907160657096
71.0682915357685
71.0028202242965
70.8676593123689
70.6958305548877
70.5252813612297
70.4026705160372
70.2527046622675
70.1606110449901
70.0422552987979
69.9317247224404
69.7727686897482
69.5614271095643
69.4144872922701
69.2979054718018
69.134418443667
68.9975962558158
68.9202395810889
68.7738751087942
68.5786299563578
68.4118494603673
68.2471788837064
68.1224196139465
67.9642468873593
67.8106447381568
67.7206239685367
67.6969883112503
67.5449952766057
67.3831767878632
67.2278924650723
67.1331873431846
67.0145996021642
66.8531544426744
66.6960776189465
66.5192459554025
66.1756192644176
66.3818735611939
66.417725243077
66.129703761718
65.9855611390729
65.9075383825639
65.7541346030349
65.5621007455972
65.3897598198066
65.345779408854
65.2567873618999
