1798
3999.43349933624
650.420452594757
1
128
4
92.7627216188949
92.8525435585589
92.7840914302466
92.7062623050332
92.6275175230522
92.6282600429424
92.7138539147086
92.8264118527215
92.8020394884337
92.7421463613431
92.7523802128102
92.8181833003322
92.793857037614
92.8364981651977
92.8637326486899
92.9087493900211
92.8740648793357
92.7954207790216
92.7481330481992
92.7647453120702
92.7646763480538
92.8575046561865
92.8496110945613
92.8191269988994
92.8821833692015
92.9556223611203
92.8708831831952
92.9124326990083
92.9969056161078
92.9501749866015
92.833881083808
92.8004238983629
92.7956613753998
92.8654123334196
92.8644826749682
92.8901220083015
92.9274076567924
92.9717977983905
92.9803889899763
92.9513318993133
92.88540845467
92.9510759866933
92.9566408053612
92.8869205378888
92.9248288426966
92.9980766493258
93.026987169863
93.0929409218885
93.0320539100544
93.0099820956094
93.0182939708195
92.8936036027671
92.8151623879423
93.0577074584532
93.1177229723676
93.035154888625
93.1084840432713
93.1758484134925
93.1308831456656
93.2512043216594
93.1663244221443
92.9775974853457
92.9760298138423
93.0617868474463
93.0747239059631
93.1178077300239
93.1143794669202
93.1409378718536
93.1635740217703
93.0582171543515
92.9813561971002
93.1010674136588
93.163434661084
93.1956678294845
93.1217783366794
93.1854923024833
93.2218777925104
93.201587934955
93.1484400233067
93.1463450587267
93.1529838244629
93.2593237647514
93.3292227172998
93.2514813987119
93.1497759157877
93.3019607447775
93.2650247698265
93.208912413203
93.2859561673347
93.33795117006
93.3172792459777
93.3362180013313
93.2755350484726
93.3008799581667
93.3891944901343
93.4042769411769
93.1861693588771
93.2800902811096
93.3976505507461
93.3597869138428
93.381732450781
93.5399375302131
93.5239556275051
93.3551688420631
93.3399713226495
93.4274808584976
93.2843898581947
93.2899908939508
93.4105953082274
93.5250895065304
93.4296769659344
93.3773196392585
93.4377828797548
93.5382627597132
93.4609764791425
93.4045621655253
93.4475128057484
93.4588071705901
93.3899230003141
93.4436335928023
93.5581422316291
93.5802743963684
93.4557742311976
93.4039346132283
93.4226569368988
93.504389547558
93.5726474299198
93.6238541469235
93.6557169711504
93.7281441758321
93.7681781282663
93.8540823919554
93.8052417717886
93.7771333959204
93.6326737840593
93.5476528318978
93.5052519473395
93.4639589539594
93.5332751351942
93.7154230914853
93.7073376406493
93.530478092735
93.5003495586578
93.6667578083769
93.7286335694395
93.7972067070771
93.8004863404895
93.8630051498901
93.7219210983769
93.6156070244321
93.7040952481203
93.7461259640595
93.8237371649435
93.8671046062502
93.7374377127217
93.7550753844646
93.7149825825358
93.6662131981714
93.7412970661562
93.8458659672684
93.8071296963168
93.8522936092727
93.9407282122369
93.9770125096682
93.9016225431644
93.8489673562797
93.7573878998649
93.6786535040212
93.5551943898545
93.6294795331671
93.7083806530914
93.8612679532206
93.9081108870223
93.7408460428627
93.5675817410483
93.6751135292687
93.488035631365
93.2721907352742
93.319974077391
93.4849035170728
93.4634964471525
93.4120007811404
93.2954834737339
93.1498620267038
93.065331619632
93.1044927143204
93.1682034654771
92.9549599659597
92.5352601636373
92.4958705103381
92.5687092051031
92.6517592205142
92.5606464690735
92.3229133679258
92.179252171351
92.0774027699499
91.9568602741423
92.0251520252137
91.8839890426145
91.5142152279532
91.4126094998904
91.5898693043288
91.5661327014586
91.3822708461487
91.0586441214395
90.8812560550647
90.7806804234876
90.7228801691781
90.6437267352395
90.5430141903806
90.2498915195167
90.1788401066687
90.1822567888802
90.1026064775198
89.9150926998173
89.8674368737881
89.8219042884463
89.7633311055794
89.6131417911999
89.3958285271366
89.3257970129307
89.1761927888831
88.8156263096513
88.8315569418249
88.8731681324205
88.8006627157373
88.6911927355715
88.5827445273623
88.4436350999796
88.3438495551893
88.3222971691086
88.3152956728704
88.0091441670754
87.8025599562306
87.7485462113155
87.6475794613143
87.4706399048903
87.4347681333072
87.363544464705
87.279157339058
87.0987083470843
86.9913057140555
86.8473667968564
86.787772132736
86.7867038703597
86.7687888090029
86.6237902744702
86.4984814298079
86.3079465457067
86.1869080391676
86.0718289319423
86.0503843611572
85.9586151602941
85.9250754786518
85.6893015012344
85.5168365794385
85.4662710050961
85.5371294405261
85.527250809816
85.3713787984724
85.1822404828264
85.1250136157037
85.0674011782744
85.0035880930142
84.7532356296312
84.5547117199818
84.4839746815375
84.3572451546838
84.1605420791704
84.1220873833391
84.1369260445432
84.1056179382682
83.9681887477298
83.8780677803743
83.7796305789725
83.7347617455035
83.545877227683
83.5230557707282
83.5382098878604
83.3905129604634
83.2643658978182
83.210491099718
83.1349843258056
83.1180039683949
82.9980461179319
82.9097530464404
82.7635584280357
82.6835569015764
82.579254025306
82.4619056116611
82.2903622708904
82.2487440737759
82.2284419918141
82.2282602106857
82.1373141906139
82.0729925900953
81.8313440474055
81.6301020695217
81.6083095755759
81.6392591316412
81.5154769477926
81.5107528865815
81.555089011676
81.4692593032122
81.1978963209276
81.1163666033427
81.0835413776683
81.0860124369837
81.0245369874103
80.9747772047036
80.8165167583545
80.7615147357917
80.6032598552649
80.5425933058101
80.494780457413
80.3434006850542
80.3123147319053
80.4462907792735
80.318139658329
80.2322584460359
80.1761250403078
80.1452590314169
80.0885567367371
80.0873187293181
79.9593728854246
79.8305439404817
79.7607843842715
79.7387181042779
79.6015860144204
79.6069800653342
79.6029051638107
79.6041957356456
79.5482325779338
79.4512246069405
79.3619403007855
79.3200500411814
79.2356284483307
79.2625096651734
79.1883223650177
79.1730894702338
79.1696164160768
79.1373992711288
79.0524986919013
79.0588575119489
79.0134997220485
79.0190497486138
78.9763374890821
78.9672410018136
78.9265323554584
78.860549870628
78.7727441663608
78.8294343916976
78.7768820325398
78.703587140204
78.6829032195627
78.8068793452091
78.8071580395966
78.7898736614058
78.7682975816171
78.8035704429045
78.7347876298919
78.713505602755
78.672072954468
78.7212486742508
78.7549430272891
78.7868891649463
78.6548360690382
78.5798959247859
78.6219437863038
78.7099478385986
78.6487529358339
78.6522056246346
78.7166468922266
78.7409039101264
78.726645605439
78.7824212042383
78.6755099202578
78.6311771644509
78.6445376814808
78.5900614793522
78.5434130069286
78.5394443735976
78.4872292158246
78.5924940790005
78.6359686694384
78.6218579161771
78.5240665607198
78.5501679420702
78.5947364160187
78.6565706894582
78.5740108972108
78.5542912205501
78.5601363753701
78.539135076879
78.5000475948131
78.5505418978905
78.4479121949158
78.4393875368352
78.4765419622465
78.5310834225634
78.4738409437756
78.4299802505869
78.4679239885011
78.5926604065231
78.5621401516541
78.5113726685412
78.463820930955
78.5003130867789
78.4651682003352
78.4835173370882
78.4787789049386
78.4575529576422
78.4399241010496
78.5767036324095
78.6098197135966
78.5955326036149
78.4661096206294
78.4218146973994
78.530080680231
78.6574331747028
78.6036176174357
78.597917293515
78.5746159452485
78.5743616344054
78.5208362260247
78.544932312635
78.6674241966702
78.7223211166747
78.6143509386736
78.622710910028
78.6726231379391
78.7345906426549
78.6993380505597
78.7556040130538
78.7801309319936
78.8239527569898
78.8731439033651
78.908556673412
78.9218871774184
79.0007523996902
78.9755583123973
79.0423771340638
79.0707753197904
79.1102337551905
79.2030421361773
79.2780514636862
79.2371524564097
79.3392035938907
79.3643284377178
79.3268630216053
79.3421104189212
79.4428176122105
79.4549460371712
79.5382739271294
79.5743969898368
79.6025078918289
79.6552662912764
79.7895807371538
79.7603671669778
79.8519698967195
80.0246937968519
80.1768122067275
80.0894203435031
79.985759332234
80.0222900814536
80.1205993007749
80.096577741562
80.108405738175
80.1969019381673
80.3501229347002
80.4213029131048
80.5797108044741
80.6335283970457
80.7072938517112
80.7600506544447
80.7772968373477
80.7624964828656
80.824087889698
80.8491413649103
80.8351022533913
80.8494961248101
80.9544158051857
81.0260799469219
81.062521690358
81.0537543723114
81.0804730638322
81.1607489388269
81.2528142835864
81.2358547131311
81.3327217511211
81.4779130744093
81.478045713355
81.5162725869429
81.6865893424947
81.7534132795944
81.7524484425304
81.6738541920909
81.668005671608
81.6981341066854
81.8011436938251
81.9574736327932
82.0617938890298
82.0211989821495
81.9912338741132
82.0402895218055
82.2197730476982
82.2747781845621
82.2915081957241
82.4017771153107
82.5276065085438
82.5407379505457
82.5605334728362
82.6162333082916
82.7593710249213
82.8591172667004
82.8982741668498
82.8831833978585
82.9672521555149
83.0031150889223
83.0866947298599
83.1353697169268
83.1971142752028
83.1711177790502
83.1968915421441
83.2848219075247
83.3513062554574
83.4094009879902
83.5080960781449
83.5293434622299
83.6003101357
83.6022959269621
83.5842300959267
83.6093847262934
83.6557219740332
83.6246161269576
83.6633173987769
83.7108848813305
83.7818907685887
83.8023838063674
83.8402548301109
83.8333539562238
83.8483872680619
83.800565235024
83.8105094389407
83.8483223225399
83.854137144859
83.8890574151932
83.9258145238969
83.8627019206328
83.8875229667132
83.9293691840381
83.9584831893857
83.9289148705504
83.97570131077
84.0210007546956
84.0445887907619
84.0510070792548
84.115210075839
84.1604629715225
84.1250059762665
84.1531508107153
84.2490975992189
84.2237570444262
84.2394808713896
84.2661614394447
84.2957310081568
84.2827775442182
84.3153167865927
84.2921542396617
84.2728326771451
84.3075540648777
84.32092901158
84.3288115148243
84.4429499289308
84.5347001927062
84.5955743079687
84.5945625607282
84.650421026589
84.7125945141554
84.8482801882604
84.947042231874
85.0145315736791
85.0811447908014
85.1687540067833
85.2010879071702
85.2416385544163
85.2719338844761
85.3426024600955
85.3932830863527
85.4240072636443
85.448374250598
85.5638359182171
85.6174529895513
85.6902714734485
85.746652454877
85.7716687173397
85.799125164541
85.8551624520859
85.8551721120476
85.8670623655557
85.879914247321
85.9429433761044
86.0113946496308
86.061273860654
86.1210285384174
86.2076400529169
86.1922826248439
86.2116838817162
86.270005235678
86.295678441785
86.3499022862444
86.4915033747457
86.5133937498818
86.5286242310168
86.5536362564246
86.6555149172435
86.7782550688316
86.8265084395108
86.8378407978179
86.8500188732336
86.792666657366
86.8673264187674
87.0263881313663
87.1537458809556
87.1860909707694
87.2092991506455
87.2209901011543
87.2395370146375
87.2871207197143
87.3631544625551
87.4223472661792
87.4560427367819
87.4440772355168
87.4315797607699
87.4766190554384
87.5539182408728
87.5959333466493
87.6346376695048
87.7314920813488
87.7954967959477
87.7859523591411
87.8082678832183
87.7997803620542
87.8476377666267
87.8925749144336
87.9006272901966
87.9088774058764
87.9650907393626
88.0352525211381
88.0906677585475
88.1202120574212
88.1515316061749
88.1616336549013
88.1990241611774
88.1867255164774
88.1678578233768
88.2655224078035
88.3503593203672
88.349269548953
88.3481317509243
88.3990543194757
88.4577773890211
88.4627352686423
88.459510267564
88.4646627620017
88.4980616973234
88.5105329224397
88.5654548569599
88.6017080963098
88.6140806670139
88.6738861017351
88.7718975747487
88.7668394886649
88.7868390423189
88.7994566319638
88.7962910429004
88.7582004815665
88.7919295284305
88.8999714981772
88.9698928876564
88.982092781644
88.9450330566232
88.9283402013086
89.043287110453
89.1318772760061
89.1874700460158
89.192555256022
89.1696185286117
89.1927965347259
89.2108652943347
89.1946153531555
89.2401169059063
89.3227726327168
89.3467487690771
89.3109730482169
89.3170394788037
89.3435658157006
89.4348221836132
89.4917144745741
89.484003966643
89.5214039391721
89.5720838236371
89.5684065184483
89.5729572303839
89.5957008660161
89.5805520105391
89.5833661381237
89.6661616345298
89.7211168384104
89.8033422953331
89.7940767333975
89.7632693272233
89.8063650725254
89.8325697208233
89.8562578157829
89.9257899940288
89.9167612779226
89.9223475189561
89.9066100493891
89.8564727226818
89.8697569229922
89.9496722013087
89.956352528169
89.9234283561409
89.9609791230468
90.0502541208068
90.0992604009143
90.1107449044786
90.1329578510116
90.1685735175844
90.1624932238377
90.2224623977353
90.2788685999631
90.2605754236676
90.3168480270258
90.4161535720083
90.4441594369568
90.4493516871216
90.4607404569483
90.4860992596342
90.5381483729091
90.6346143104781
90.6499615510883
90.656183347237
90.6607246194516
90.7029588480464
90.769369037562
90.8542423254694
90.8409386907562
90.8657079503377
90.9026815461943
90.892915019258
90.959316386363
90.9970723253279
90.9466491418342
90.9976642704067
91.0712392854559
91.1149042299927
91.1161580475009
91.1376556819439
91.1868475922468
91.2291295366129
91.2313126001917
91.3295023443557
91.3412664184931
91.3322150013865
91.3715010479765
91.4455699412254
91.370269694047
91.3266856689719
91.4173841957374
91.4820904046721
91.4765539857605
91.4784218753649
91.5545320439594
91.5769135115815
91.5779773275306
91.640351205398
91.6847323273399
91.6700810957261
91.6357524692101
91.6922103137689
91.8060229499128
91.7867634323941
91.6897878979295
91.6703738815471
91.7428821147241
91.8328277915499
91.8223479237
91.7432715800885
91.7286973193283
91.7997863185412
91.842310212475
91.8858336328984
91.9517822257289
91.9476367190715
91.9534127655411
91.98072044554
91.9222338935378
91.9135048829867
91.9316918603294
91.9548405279389
91.9556744472195
91.9769240700251
91.9867118425742
91.9993999761643
91.9891944880291
92.0251603067607
92.012981486638
92.0048483164025
92.0736751334748
92.1619922245837
92.1657764214772
92.185701128555
92.2128155789859
92.1937206258313
92.2018609220498
92.1431332724759
92.1049687337541
92.2142529588345
92.2822231299904
92.1988635618808
92.1516689914602
92.2423176906723
92.2427979622428
92.1997259334305
92.2727034700869
92.3231370125861
92.2884095862341
92.1955962289056
92.1699528031609
92.2433196160575
92.2422150315639
92.2912506423413
92.3144021016166
92.2452482898776
92.2600186400272
92.2956914267755
92.3557407253163
92.4136185404482
92.4082298882685
92.3704397883198
92.3782672556915
92.4090509932228
92.4388576798878
92.4299980234956
92.4450967467063
92.4679069513839
92.4168537721953
92.3709527933858
92.3966846486127
92.4745154066892
92.5538637702736
92.5097211601976
92.438884662348
92.4091762497643
92.4232289991912
92.4836051521835
92.499516155224
92.5102679243762
92.5543521136165
92.535414066204
92.4457559968363
92.4353692354006
92.4962252817505
92.5113310627478
92.5136723866294
92.5642345261235
92.6301962551542
92.6383388416294
92.6159265640415
92.5822922015696
92.5806278858251
92.5934157958418
92.5569052533699
92.5881216254174
92.6950196118352
92.7134529386378
92.7438401660926
92.7956794738528
92.6817784615915
92.6035509151639
92.5735241637777
92.5774914572127
92.6602098487873
92.5920660787616
92.5296341848438
92.5562430235097
92.5466696569576
92.4882666857276
92.5179808313438
92.642201711619
92.6149079846447
92.5257335584471
92.547710176341
92.6550324156227
92.7490483280193
92.6844678491187
92.5033307037619
92.3739381486557
92.3604848662785
92.3405806715421
92.4181967779857
92.5708505523078
92.5725962856971
92.5169643066896
92.4771912611237
92.5763314404112
92.6928956302743
92.6572078411861
92.6128977060194
92.6992651594433
92.6968816049425
92.6824968178387
92.785799871646
92.8707772980036
92.8279399153798
92.7643872037656
92.7971573433284
92.8115807069834
92.8385346447326
93.0280612035356
93.1630954505278
93.2283942519461
93.2596395667339
93.3178133316989
93.2570419522804
93.288146009679
93.3906517573774
93.4471435020094
93.5058958402671
93.5912580617857
93.7347835233406
93.8703226430867
93.921189838059
94.0150229670728
94.0205928148273
93.9449826582709
94.0583504951029
94.2750144435276
94.2997106356594
94.2111036175486
94.0796853585468
94.1736568795605
94.4053719271976
94.4081330592517
94.4219265496964
94.3916981877409
94.5908160967598
94.7305776630523
94.6193546854156
94.5729875216336
94.7271332498367
94.8947055079689
94.9116268208521
94.8672458490757
95.0425944094253
95.2588020230186
95.0193455749906
94.9541169717077
94.9732064342942
95.061311559666
95.1721754069526
95.357169645112
95.5779199329295
95.4906244292439
95.4454169746165
95.5163411158824
95.7314692660818
95.9254896486012
95.8926398607249
95.8457323981849
95.9803965047924
96.209918329107
96.3335790612219
96.3759205409306
96.0518779652054
96.0190067807366
96.3031181696901
96.3986080665419
96.5430371986663
96.7293982938641
96.8485839968971
96.7857673369843
96.686124450505
96.8904254446852
97.3357610919535
98.0044485789285
98.1026134110669
97.779079917555
97.4737816162196
96.626912432031
96.1297082977153
96.6056260124095
96.5499137986987
96.1006406606322
96.0288757191977
96.0239480444859
95.9402474950987
95.8208848322614
95.9459643496101
96.0560755790395
95.9951739863839
95.558545753719
95.2247686649879
95.0888308199503
94.8862107230856
94.8398676499999
95.043071169859
94.9586663809453
94.6781717243077
94.7041621166853
94.8871397232519
95.015652516449
95.044551138419
94.9646808512405
94.9379259924337
94.9291903202776
94.9986546359515
94.9807759039631
94.991448517
95.0202538965799
94.9099139861052
94.8893594062197
94.9603833052717
94.9942283353011
95.0361234871868
95.1089062836481
95.3020903988362
95.252300914459
95.2521237010909
95.3610285610701
95.3213833313452
95.1833646882185
95.3037411444777
95.577245407156
95.8345828171381
95.8516119165845
95.7336083150676
95.7938751318263
95.9578747489029
96.0154662212532
96.0428477319161
96.3014809231467
96.5515345984351
96.365497654867
96.414638583051
96.706450474898
96.8346326467899
97.1462323774338
97.3869664481126
97.3696735537698
97.4398823271356
97.4353807593385
97.6778397014383
97.8250483144516
97.5881412298323
97.4525424689297
97.9066411190664
98.3192782341583
98.4735137987939
98.2597925308005
97.8866281827564
97.8682297605628
97.7864354694205
97.4825843394662
97.5198587314142
97.835288609238
98.0069258909703
97.3913159536299
97.2873700670194
97.607446335301
97.3116952574743
97.1301715734446
97.1586838641679
97.1345637777773
97.1697216049675
97.4386679261472
97.4401008164271
97.1357287538711
96.9435353782129
97.3678987525798
97.8935250364294
97.585628262038
97.2671485189507
97.5602355041911
97.90370786116
97.6976479649774
97.6264672544392
97.7133999132289
97.7371664921078
97.6497082429569
97.5102211182254
97.2972775339548
97.1725043474199
97.3023365363237
97.2311257183631
96.9293860073107
96.7265011446463
96.7665824245564
96.7932760721843
96.6877505239429
96.5991706284341
96.5719749585745
96.4474811353
96.30298423531
96.3148877396148
96.2721439287426
96.1992030357757
96.105608901148
95.9034093659839
95.9289427819183
95.9778505365126
96.0116093331254
96.1095519932167
96.1300832846248
96.1580016547321
95.9873282287667
95.7448294831412
95.7746656102955
95.8391252382918
95.8159279671343
95.9034887548481
95.8914336955253
95.7741670121373
95.7277281319516
95.7112698072578
95.6304841223328
95.619234883052
95.7824115015785
95.8596687043869
95.723995828808
95.6168908584695
95.6889825355433
95.659606740179
95.7065386542119
95.8174551704007
95.7722807040375
95.6598195025124
95.6261985923755
95.6837670787754
95.7902539217732
95.865586562242
95.7856280366195
95.7570165580777
95.7839947801772
95.7194353897871
95.6346183768135
95.6037652683886
95.5741536714601
95.6338203676568
95.7298378607612
95.6983164257577
95.636630896805
95.7054578815876
95.8030954192064
95.8117377836054
95.7191256936198
95.6466536757037
95.6414029033344
95.7062958360102
95.726259165213
95.6882444317391
95.7456113402452
95.8505466435604
95.8199082676627
95.7495499485304
95.7551284735251
95.7359534762135
95.6843703504829
95.7232346167715
95.7584863056598
95.6941819416751
95.6344889974655
95.6085116565514
95.5582429334792
95.5589980166541
95.494160811174
95.4534916481303
95.4681575818939
95.4056406833908
95.3098205756809
95.2429108785219
95.1551595616713
95.0519915845913
94.9244718686082
94.7647849511803
94.6000275484508
94.45222971604
94.3214818953203
94.1588618346659
93.9265144643002
93.7289723801582
93.5747913818912
93.3887650217055
93.1306692817638
92.9766475889985
92.8899921457765
92.76373931127
92.5690661504917
92.3495873104361
92.1555070084601
92.0215054153868
91.8957057509734
91.7631190213026
91.6272630279395
91.4662563814386
91.3622911905318
91.3080318378121
91.215349484039
91.0977819157775
90.9729023387577
90.847147621938
90.7057102544613
90.5652946448498
90.341549769774
90.1089321253691
89.9092374406822
89.6857823490737
89.4200945281666
89.1592981457995
88.8663833647758
88.5758807605968
88.2577285635105
87.8680751473176
87.4910530988853
87.2357826714816
87.0073471912448
86.7114897573393
86.3594795181207
86.0478744963675
85.6962263246248
85.4287583627391
85.1276669750417
84.6669814207718
84.4265098444021
84.0708599031345
83.7623061495618
83.5336373475828
83.1738002804555
82.7571751164181
82.3565900245419
81.8603220282188
81.4929770939929
81.3132344432388
80.9686896151201
80.5657787822178
80.0424486317237
79.646109451704
79.2809039453135
78.8076650471074
78.4604220338478
78.158396695679
77.7245120037025
77.2478975844955
76.9237002950375
76.6189134440542
76.2069518295418
75.6592260432861
74.846641659569
74.710133669956
74.6169982788822
74.1323973413982
73.6158973981462
73.3261018655545
72.9402336081393
72.4967046419014
72.0543004314755
71.4442315867499
70.9892262491674
70.8042822181727
70.4606770392707
69.9737662012489
69.4695251759146
69.0379864690586
68.5071881341406
68.1291695252048
67.7587189325038
67.1661874518724
66.546496823869
66.2580553287845
65.8440583183406
65.3125994078665
64.7672310068221
64.2690945697508
63.7812434006026
63.3065204423468
62.8400121111378
62.4072986202659
61.9369615120714
61.4955529900178
61.0903862615684
60.7407178117398
60.3485203022548
60.003825140842
59.663866328635
59.3572759793862
59.0682195396563
58.8366529326308
58.5436866619799
58.1410838925372
58.1167093414574
58.2693817412715
58.0503326661585
57.8648240584309
58.0128930363023
58.1500416451798
58.2259429179326
58.1342673448394
57.5111525224427
58.1366843713854
59.2121759811646
59.7132308825218
60.0936706386793
60.4701524015486
60.9658106565213
61.4580114461026
61.8040355961715
62.2864231358441
62.7166555127973
64.1266971199767
65.5680928533712
66.0878654977621
66.4749756179783
67.4443267416639
68.1831426982608
68.6759797103933
69.2287196698595
69.9340526849114
70.3999399964696
71.3193166016737
72.1859703290486
72.7348829054149
73.4087378529487
73.8681019475443
74.1385844886164
74.2503958130953
74.2467352209729
75.485012141228
76.6087143642789
76.921773236967
76.955196178816
77.0486243360287
77.4879191376986
78.1003523428974
78.3013612141351
78.2485043452669
78.4680925088712
78.8871491052824
79.1468488904769
79.2024711006534
79.1777475584508
79.1604391072098
79.0409214804403
78.8554335388134
78.6831877335405
78.5989245972595
78.688129313412
78.5119865862725
78.0751088785205
77.6540584324366
77.5129061394884
77.2621405867524
76.7111816913608
76.1079243449934
76.1442964788632
76.0914573961449
75.7278845271406
75.2760005097837
74.8182225405643
74.5147060227179
74.241644147346
73.8743729957751
73.4684921290556
72.9778320426301
72.3909837730859
72.1393653036893
71.8845231610223
71.352262390147
70.772857631922
70.3289065898448
69.8463656338716
69.2696015235757
68.7833225878697
68.1462962679137
67.5696542234765
67.2986819293845
66.9346669743355
66.4124564055837
65.8794791532916
65.4453606935117
65.0323701286622
64.5980591932895
64.2989913978026
64.0335441523852
63.6712275331686
63.425125595033
63.2109445782841
63.0744593229202
63.0914801138347
62.9518327787838
62.7368287699692
62.7441030924301
62.897433697087
62.9513492651872
62.9901084265047
63.0783560070882
63.230901611176
63.3634338215334
63.6331520345227
63.9897861194826
64.2191771482365
64.4832806908071
64.7757582111361
64.9679274693182
65.2980703256015
65.8024041874864
66.2050342961259
66.4977935685852
66.8036167474852
67.1759682949627
67.5384899805105
67.8961765195877
68.276805108738
68.6615021119232
68.9962815338763
69.2435925930277
69.5129567119444
69.9387318494987
70.3586725033635
70.6578662957673
70.8744187839088
71.1345172347435
71.4008435547548
71.6354694832197
71.8587689534909
72.0815320642314
72.290476557247
72.4955687292178
72.7048351315956
72.9043967393581
73.0758963932848
73.2758845577115
73.4666127401811
73.6181833493912
73.7819608411057
73.9543662660556
74.1034524356148
74.2640525264974
74.4386598258014
74.5874956409973
74.7325596954856
74.8655560939026
74.9974398394733
75.1244259725919
75.2268494354124
75.3325094664991
75.4241992050305
75.5056587027298
75.5588855714565
75.6320909706963
75.6893806677601
75.7099242080263
75.7228117852559
75.7760924078617
75.828429705804
75.8654215456411
75.9043761151334
75.9603707945599
76.0091953305169
76.0697109927992
76.1413814331191
76.2006946076409
76.2704146513579
76.3312454812885
76.3702439871293
76.4185733633051
76.4429537565556
76.4742063774447
76.4986021855481
76.5141509488129
76.5346150839356
76.5490664637547
76.5619045926144
76.5894219314247
76.6052546812784
76.6133194301508
76.6202441346558
76.6328578894617
76.6413635570505
76.6707791642005
76.6878740555084
76.7004007814542
76.7417198648249
76.7784522096572
76.8169058577685
76.8685233787537
76.9295697286562
76.9933745855351
77.0251145021121
77.0569356565714
77.1131187311766
77.1944632766343
77.2391878919009
77.2593687115453
77.2913643534644
77.3352334735691
77.3650998055061
77.3873016581296
77.4125341277347
77.4064693905306
77.3800992801302
77.3494136846139
77.3228223530728
77.2921298506979
77.2400891969125
77.1962374630832
77.1499848023034
77.0968435702963
77.0174596429896
76.9334230253167
76.8872130890387
76.8214860232382
76.7265122857072
76.6507302665376
76.5773082591276
76.4947330429692
76.3821538812761
76.2912962581416
76.1959773474374
76.0837929095369
75.976963431501
75.8734703124082
75.7628541724542
75.642804450623
75.5072388113434
75.3392339386461
75.1576980698743
74.9886200987617
74.8225301732766
74.6520467137942
74.4592417731647
74.2697853867689
74.1019915960936
73.9763433782788
73.8361314382333
73.6644190179265
73.5091365079594
73.3620422253687
73.230989915072
73.0820053047859
72.8936757122618
72.7298607150456
72.5903192808894
72.3985898864096
72.18948235658
72.0083370927856
71.8318487271864
71.6585472348579
71.4793949230212
71.271853116947
71.0792263501601
70.9359090332624
70.7590546505987
70.5821109688279
70.4345023012404
70.2895055416328
70.1388944541875
70.0348993168927
69.9710948121117
69.8855546576614
69.7775534411356
69.6963578509148
69.6194214339164
69.5512048978159
69.4575215292463
69.3603964775812
69.264840062503
69.1505452958563
69.036925699091
68.9077835457828
68.7535194791218
68.6045334701857
68.465367262405
68.3854301972332
68.29746933263
68.2219145816955
68.2015886934717
68.2334961066074
68.3028337565054
68.4114044655053
68.5550208460213
68.7009868322353
68.8680926458465
69.0750451465486
69.263649609629
69.4216689149174
69.5851002424584
69.8071432624781
70.03189086795
70.2635856146048
70.5297767626621
70.7903509252155
71.0532956482557
71.3189461820932
71.5873590879009
71.864992575538
72.1255820669494
72.4097693114581
72.7042202430398
72.9841821063924
73.2695960632366
73.5450796416434
73.7925971221741
74.0438436506534
74.2921989652986
74.5471062318183
74.7741879018089
74.9958271884427
75.2247431878454
75.4655526033987
75.6812745955107
75.9024027690692
76.1061346222272
76.3008572738639
76.4809389732776
76.6610347560616
76.8129314020415
76.9647069684607
77.08588289976
77.210164091091
77.3458229682301
77.4769368637418
77.5843980563233
77.6984034369134
77.7964923201271
77.9131296032513
78.027470489099
78.1331335945421
78.2747397201647
78.4158377169986
78.498332796572
78.6329853876603
78.7785086566491
78.8512202502915
78.934959088954
79.0856071574833
79.2097393882094
79.2985148820843
79.3337627862909
79.4049274918237
79.4916486075865
79.5861828549495
79.6820507622135
79.7494812995621
79.8205199490576
79.8505130962205
79.8962233043787
79.9614905412706
79.9877125595473
80.0537238210183
80.0897848489906
80.0583014763189
80.0506096091589
80.0916495710008
80.0991939787718
80.0802094973661
80.072436083334
80.0809406843911
80.0541362307393
80.042636548585
80.0443066509073
80.0273698031936
79.9849769638036
79.9489259469854
79.8933264077024
79.824119511111
79.7551409319133
79.7242847093674
79.6811615373297
79.6129142254391
79.5474310593006
79.4974738474997
79.4225798256685
79.3485837216972
79.2540744899598
79.1261845212209
79.0224662851124
78.9311477438982
78.8195295681436
78.6922089218886
78.5358563623552
78.3371580888081
78.1759060625405
78.0323334497013
77.8182262174738
77.634925904184
77.4387713675747
77.1970381383533
77.000752569024
76.8211163550994
76.5757097561457
76.3145069844647
76.1147954077632
75.9242227134783
75.690960132552
75.4813173556734
75.2936895713369
75.0811461388289
74.8360726469456
74.6446813359877
74.4834414000217
74.278738966911
74.0815424587322
73.8992239426186
73.6637008298391
73.4500503538034
73.2668320449439
73.1040969593205
72.9090296033524
72.7369478793954
72.6061979200479
72.4906076871175
72.3627914430698
72.2549676055243
72.1720354770531
72.070840873123
71.9799187638997
71.9036591756505
71.8104575201407
71.6943331779031
71.5957615642801
71.5396040391668
71.4267698346672
71.3098229500747
71.2298326322684
71.1378793368347
70.9881503439392
70.8991379999973
70.845290467392
70.7232170344846
70.6054755521126
70.506211266162
70.3634689967677
70.2453394292914
70.1557154020007
70.0811319202247
69.9550292298847
69.7991175758517
69.6219558687468
69.4995372050884
69.3546415257842
69.230211400075
69.0692421835733
68.8990608349073
68.7514853309123
68.6054918893409
68.4393612890934
68.3258399240356
68.1887447045487
68.0303176907132
67.8313145922053
67.6580330538308
67.4988160161993
67.3584443663532
67.1588809597478
66.9455306951989
66.8031427728697
66.6731471491359
66.4711483554262
66.2686972596339
66.0994591484835
65.9960793531729
65.8488976873375
65.6472827209352
65.4723413375416
65.3469826799994
65.2092557107909
65.1095434815511
64.9081767130011
64.6918885171743
64.5401547509469
64.4335272713401
64.2701564815904
64.1396666446519
63.9576619469095
63.7807151684891
63.5833308999119
63.6317571749279
63.538140842108
63.2698172804363
63.1109958483876
63.026525285551
62.8359375092958
62.6559752230685
62.477737602917
62.3697508850545
62.2297606228677
