1798
3999.43349933624
650.420452594757
1
128
4
94.6048228784387
94.612589015994
94.5155032058212
94.5136825538829
94.5991464587783
94.6989823765286
94.6506764110324
94.5648139094589
94.508117366775
94.5707388517718
94.5527455050869
94.5714376430574
94.5709441031796
94.5190755446975
94.5417735829741
94.6485460441947
94.5867868641096
94.5688169106493
94.6055356624214
94.6209472001087
94.5801573367293
94.6272840476681
94.6469885209346
94.6556329167013
94.6438201035559
94.6328451049376
94.6372511162459
94.739685741295
94.650785633268
94.5367898711488
94.5607278053675
94.661949048792
94.5876085462595
94.4627853596888
94.58439662229
94.7767955975669
94.7851335110007
94.7333681561406
94.7556666195382
94.7563266361068
94.6287244607593
94.6029104362106
94.6837982958833
94.7833503132286
94.7440837719491
94.7493721708263
94.7226706863682
94.6592304309337
94.6258550454508
94.6897815402629
94.782438712315
94.797767455635
94.6449769682206
94.713198418061
94.8444376173841
94.9678449851527
94.9440145551015
94.822046390204
94.7310924919205
94.6950092095728
94.6856988838381
94.7159513138391
94.8232068081387
94.865538648083
94.8704565278776
94.8475449496333
94.7484735515509
94.7994901326578
94.8952782156395
94.7709414662758
94.7244839978799
94.935572738352
94.9526322504579
94.9141755440059
94.8880592422164
94.8861645126278
94.8852837795447
94.9524942351215
94.8183474138622
94.8768011232713
94.9177929412956
95.0091192929315
95.0963023668798
95.0428862531734
94.9464529577337
95.0122396158717
95.0382830851923
95.0708905238802
95.1187374822947
95.1255289799176
95.020808592065
95.0440863516903
95.0852296952372
95.0742668115573
94.9589928919126
94.8392423251113
94.9596667142882
95.0971241410241
95.0472283144447
95.1224249901665
95.0364980445282
94.9769300959966
95.0904569101028
95.0742260472497
95.0188110816
95.1050335609027
95.0038063545939
95.0543839773573
95.2059600409109
95.2632543950235
95.1037295781477
94.932385538097
94.9552906658768
95.0547212493687
95.0205573109372
94.9914686575063
94.9261871348614
95.0181735770742
95.0574218881482
95.0276074309085
94.9665356817255
94.9501522275172
94.9793900980752
95.0185614748763
95.0570311714553
95.0505299475025
94.9279757202946
94.9497937826633
94.9549995617605
94.9147682729392
94.907525858423
95.0350750277907
95.151718967341
95.1501854350374
95.1013082987071
95.256091945457
95.305369040857
95.2699875407449
95.3535093817895
95.4524513964673
95.4594838564534
95.4190213345823
95.3975235245409
95.5131235914342
95.5100848703448
95.5297060602676
95.5630032574846
95.4812949501487
95.3344851542938
95.3186148210594
95.3822953855168
95.4094586723181
95.2879475766593
95.2648019656652
95.215495975881
95.2585278960396
95.3791951677004
95.3992783379478
95.3472779525374
95.4955465159799
95.4285308533295
95.245092998715
95.135607442995
95.1257644629308
95.2234907318179
95.326321386054
95.2707450309406
95.2133185762443
95.1647988658003
95.1899714443035
95.2719222610852
95.3782938103314
95.3300953306499
95.1887397756553
95.2183592007242
95.3047554108845
95.3144976876634
95.4080706078106
95.390217829205
95.3280422201504
95.2118118157944
95.1365091173637
95.0027701611156
94.8111681059952
94.8334299380228
94.9203081817022
94.7026699451062
94.685921833285
94.9326198431798
94.8802474611392
94.7239846492584
94.7243204353565
94.6442810118192
94.5473950965765
94.4234458264776
94.2861629442089
94.0002934232199
93.8766181718277
93.9961884346505
94.1351908306223
94.0281169372429
94.0139703556947
93.9437739185963
93.8423656874884
93.7253928354309
93.6264490461765
93.5551970065431
93.5676356421044
93.5486626410235
93.473930035344
93.3689584682433
93.2370543599636
93.1314889896564
93.2695488532308
93.3130875943622
93.2173062937081
92.9127541576485
92.6483140583148
92.5845012261847
92.6587429028891
92.4917560383545
92.3358402352911
92.3909333199784
92.4474175433891
92.3335208372578
92.2219594195074
92.2044195048957
92.2498714758136
92.110908986877
91.9762444593743
91.9461834862385
91.8566793756155
91.7897442753395
91.8236768169739
91.800050069408
91.8415667464544
91.7389672447481
91.5968603293017
91.3985292275209
91.1967689617932
91.0894786398219
91.2062209418645
91.2355132880604
91.1960052856355
91.0005603033273
90.8416648075827
90.744901182407
90.7487305854088
90.793518717512
90.721390287052
90.5539813488993
90.4374108943526
90.3846033034764
90.3829385818649
90.3032327321542
90.2233673690255
90.1097168612812
90.2072317582208
90.1472377637576
90.034334203101
89.9794380357424
89.9259488932436
89.8152405135921
89.7444710377282
89.6984922908414
89.6550077165307
89.5796433638956
89.5139355241794
89.4071371375627
89.3529617021986
89.3212537902954
89.3727395492079
89.2968222748621
89.0858291445621
88.9217778345534
88.9141784783127
88.8599647725997
88.8761325711668
88.9229705249841
88.9298231377664
88.7460696319448
88.627084497386
88.6529805664476
88.650186552704
88.5433146292455
88.4513634597915
88.325349357921
88.3657604448606
88.3242365743755
88.271793817671
88.1763325193674
88.081544458892
87.9785146228299
87.9460786869328
87.9953179546986
87.9675513883221
87.8357768678426
87.8423796725488
87.8246603221996
87.7409117464902
87.5473449936633
87.5229120454604
87.5320630022874
87.539925657484
87.469718565129
87.3647429893775
87.2713307691611
87.3118192737172
87.3387115794557
87.3129023152714
87.2085920690186
87.1196306176329
86.977720384583
86.9124879988857
86.8921372547423
86.9016151158918
86.7994946886675
86.8709915147605
86.8753811297253
86.7162614815257
86.554939326748
86.589094082061
86.6369896331447
86.6124577218814
86.5861858883845
86.5560992317713
86.3945203848512
86.3957645783491
86.4549080205715
86.4330968074907
86.3219471662752
86.3049791837263
86.348080697096
86.3141372047211
86.1790924005628
86.1769937946318
86.1917711348967
86.1179958512481
86.0308768804646
86.0073880412663
86.034768982461
86.0496966756262
86.0350566186554
86.0272239402404
85.9736078361623
85.9644341416997
85.9284178605264
85.8651529451832
85.8034419763872
85.8264038816471
85.8467323660708
85.832575211242
85.8091929872057
85.8090924914029
85.7793357010066
85.8202303047598
85.7207919759556
85.7443016015953
85.7914248320813
85.7959569933834
85.7794717052709
85.7724076819803
85.7347855076559
85.7425295880807
85.7623741345365
85.6987965779581
85.5711868079151
85.6192002801764
85.6046871561132
85.5758308330694
85.5907120787444
85.6781100660314
85.6894383054896
85.6851016461654
85.6796911642779
85.629475766768
85.5809158181052
85.6755206098549
85.7108573258352
85.7130066654776
85.7015506732161
85.6204260640086
85.4901378569711
85.5484076326855
85.5900367403148
85.5332270838738
85.4813320950667
85.5331906901214
85.5599385057811
85.5191260970366
85.486534715399
85.5694996949404
85.5738835933769
85.4447499005503
85.3861012305296
85.4734566239802
85.4833517951519
85.4909283328271
85.4102445123465
85.3867332839545
85.4348756708273
85.4738309860189
85.4564339481571
85.5304604941978
85.5290511781692
85.4823467589325
85.4084589432029
85.4172660743805
85.4345969009171
85.6221061584291
85.6350928413964
85.5226607499969
85.4808857886017
85.5238112024725
85.5036251122198
85.5299099238987
85.4733261536148
85.4583368983965
85.4753090089512
85.4525020253499
85.4217615707225
85.5275595115308
85.5418157028914
85.506660683791
85.4579825943276
85.4831165793172
85.5634100364062
85.6254838739107
85.5828665101153
85.6051517856784
85.6057188305196
85.6310723127227
85.647559342146
85.6664712614214
85.6618087789889
85.7137326267514
85.6805306834459
85.7347422314809
85.7467103349117
85.7964033624982
85.8519416374166
85.8457764330673
85.7744280179478
85.8446947949757
85.8969362606945
85.909908315311
85.8862043021294
85.8821637317947
85.9086467389422
86.0408139187041
86.081736326454
86.0869072538198
86.0689658464435
86.1546601046677
86.1850824833333
86.222936006842
86.2311341137055
86.2623322631539
86.2627713982016
86.2664660957375
86.2978609002201
86.4607314879051
86.4904127957767
86.4015654898044
86.4581943229491
86.5386327938951
86.5300148993147
86.5553748857889
86.5884767168705
86.6670006506792
86.7061253614096
86.7826007417672
86.8777294660129
86.9503969492774
86.9145741408535
86.949152186066
86.9177060219604
86.9288116630528
86.9655925646588
86.9687925505572
86.9644394265411
87.0082579035336
87.0437966834575
87.0943658866558
87.1525407450505
87.184142819814
87.1554762803943
87.1941928049964
87.2265118717699
87.3059860119362
87.3809225934126
87.4467538167898
87.527023832514
87.5599779543319
87.4642592397682
87.4859660995458
87.5679424081706
87.6235520963329
87.5523395455422
87.5570497653485
87.6776889189098
87.8060382419687
87.7691620682506
87.6912269252818
87.6682170864063
87.7839553126071
87.8508489245147
87.896891623788
87.9856555137374
88.0550326151119
88.0189950428161
87.9986444954503
88.090922218176
88.1737858632998
88.1649119562308
88.2333595298565
88.2448836113773
88.2932999601318
88.3068267105139
88.3424794985066
88.318632122604
88.3374250162435
88.4435265701225
88.5281270278
88.4609744798341
88.4203560861667
88.4865030457118
88.6372568245317
88.644945837103
88.6592344639111
88.7292024706294
88.7807079606082
88.7006158530275
88.6813145868915
88.7237833662947
88.7867944574843
88.7655729482583
88.7672047501323
88.7535114925731
88.7608719365446
88.7581692345
88.735644469252
88.7231579925388
88.7644966379487
88.7798850806633
88.7956881539858
88.8294620744758
88.8382060947209
88.8125988498298
88.8656838087743
88.8419673875027
88.8260936138486
88.8575704549326
88.8390700939941
88.8149889040276
88.8678773026229
88.9024353974627
88.9435716323755
88.9436188393491
88.921282071241
88.8750350061273
88.9519124714931
89.0424715839676
88.9882769439474
88.9606210809002
89.0361255019512
89.0238871564265
88.9983108595431
89.0218146876197
89.1019665434559
89.141971502215
89.1413214012953
89.1226170563045
89.194383808966
89.2811781247789
89.3437929657441
89.3152161092285
89.3191669712956
89.3976138403757
89.4600168732508
89.5214089954015
89.5842701856423
89.5732239094215
89.6194821805462
89.6752585680899
89.7013333883041
89.7000002565533
89.7295859592279
89.7757332237257
89.8289409886242
89.8653483596998
89.9270980783827
89.9748640799105
89.956418928882
89.9408506298615
89.9986372570761
89.9863281935138
89.9175130075891
89.9137186773009
90.0383763968221
90.1063740274483
90.0619913198192
90.0347178804257
90.1154784907871
90.1989800814856
90.2524195257867
90.2155201997731
90.2303402295089
90.259209410805
90.3134518241968
90.3782798568919
90.4292941015876
90.4185525388032
90.4123608502036
90.4584941947092
90.5074864827494
90.5479739022948
90.6437841685829
90.6753453398321
90.6951167351763
90.6554237440906
90.6330511807554
90.6842310997958
90.7997613799133
90.8798957868251
90.9028586436483
90.8686262795204
90.8660912708471
90.8657980131371
90.881973689652
90.9308659904829
90.9651545886658
90.9397017244197
90.9345771794553
90.9372902469508
90.985684019233
91.0468468550757
91.0971365155048
91.0946666177506
91.0974909332046
91.1088459914974
91.1469105067675
91.1568254068248
91.19477193864
91.2771155021154
91.3006248747862
91.2794413437475
91.3012250057833
91.3754624708137
91.3983292224739
91.3497812352487
91.3290246134389
91.3730977443479
91.3685456033669
91.3376295212031
91.3847475285491
91.4127692002499
91.4747079262757
91.5279786797384
91.5196070795042
91.5430408081794
91.601915196044
91.5625178347878
91.5361022613405
91.5613577870813
91.6097396558814
91.6280972849029
91.6620804124425
91.7070884731832
91.6891892902508
91.6865584152375
91.7620639596475
91.8107876831122
91.8053383454925
91.7485749946069
91.7581419005024
91.7864832774
91.7932527030463
91.8044757705975
91.8585198101814
91.8653399814002
91.870340161322
91.8987496959102
91.9246958775397
91.9620323870532
91.97722975793
91.981620860203
92.0308697675819
92.075510698759
92.0715089365569
92.0617949878602
92.087362618434
92.0910981388517
92.1033213919437
92.1446185526997
92.0985554777693
92.089393229472
92.1640089873957
92.1874588010079
92.215156297659
92.2472860127802
92.2596531766867
92.2291417548859
92.2788802122622
92.326956156406
92.3401881831434
92.3415505605666
92.3033502514403
92.3304646215661
92.4098442195903
92.3693111162879
92.3479323724011
92.403646420076
92.4301711282613
92.4580771613951
92.4631002988044
92.4236635399632
92.4208966585326
92.4083593254414
92.410892875604
92.4248320856659
92.4239133782571
92.391133082774
92.4175044309759
92.4528084321407
92.4646047707761
92.4840238798443
92.5013395770764
92.5291408157896
92.5738015440156
92.6036885239371
92.6060573621338
92.5899384757598
92.6122203111449
92.6832153732151
92.7847051674939
92.8055827834058
92.7906723965409
92.7614830972295
92.8296323473627
92.9033097640233
92.884140590231
92.8744189594453
92.876302586353
92.8866890673691
92.9192892846403
92.9941782515274
93.0109662728957
93.0912223474886
93.1863260531849
93.1631731172729
93.2008936079397
93.2390242685332
93.0960095389268
93.1088718079977
93.2143426856795
93.1808571101445
93.1151870442873
93.2051550461847
93.343862860319
93.3503045898042
93.3073365858606
93.2894674628144
93.3214610816251
93.3737557048697
93.4683647049445
93.5194146086671
93.4970503255317
93.520510635424
93.5239593013825
93.5709281717143
93.5602430194904
93.4569206977665
93.5310222248519
93.6510815482
93.66402445222
93.6757673676842
93.6392302694461
93.5831420114361
93.6542234581912
93.7238853000139
93.7188466213842
93.67702359715
93.6657152936367
93.6878997989299
93.745200424674
93.7666113076562
93.740867100065
93.6970186264623
93.7065317216234
93.8227110637236
93.8570609973326
93.8171624437152
93.7587994489676
93.7830076405435
93.8806752109767
93.8842041643727
93.8614451705937
93.8291633378982
93.806366796025
93.8158393828321
93.9129254887067
93.9675848254502
93.9461443807514
93.9196233852145
93.9437279573303
93.9821033551186
93.9574802351792
93.9209466966783
93.9703238671034
93.9429416115436
93.9769668966544
93.9765544682502
93.9028354801835
93.8985212035195
93.9295379336242
93.9848253993027
93.9693168910223
93.9553216839127
94.0760707422081
94.0303829912393
93.9187484309546
93.9571939236669
93.9887323163684
94.0544174390916
94.064185662181
94.0207403063233
93.9811656738524
93.9875944152804
93.9345929449617
93.8795542368572
93.898671443576
94.0243086736969
94.1657178649348
94.1651597141143
94.1053682814796
94.0907021250927
94.1169438425239
94.1477615380631
94.1573835085282
94.0682591028693
94.084114669486
94.1683320509863
94.2699486652021
94.2903779931226
94.2218544718198
94.1378356592408
94.1154561407364
94.14171607989
94.154424414353
94.1568776987746
94.1626006231615
94.2471865758702
94.2819919905657
94.2440740885233
94.2050708042291
94.2316569940142
94.278563984439
94.2417341865289
94.232221818011
94.2514733874972
94.2193126492466
94.1980181817705
94.2685378414167
94.2633586916297
94.2198723900898
94.2094926427952
94.27947451285
94.2989692636774
94.3013064531232
94.4113966620517
94.539792815824
94.6579542631637
94.7927533141145
94.9454757389564
95.0434241682625
95.2020559739505
95.3036209009868
95.3980246193326
95.4813228182544
95.5341741431154
95.5802374280811
95.4722980305955
95.2632028027851
95.1232492049223
94.9554042185561
94.8378317366361
94.8580728473203
95.015719630826
94.9975189833332
95.0130296968553
95.0446425924866
95.0536404947488
95.0809399109295
95.0561969435789
95.0430331804979
94.9505945201219
94.7546659225234
94.6584236705268
94.5953091362949
94.5525205483898
94.5516869497754
94.5411217865657
94.6014859477399
94.6252250227503
94.5340881919975
94.4871110597834
94.4632235876401
94.4665285625191
94.4654213991162
94.4392039981691
94.3966550076323
94.4678433995012
94.501201899524
94.4322436621119
94.3546799190343
94.3243995329201
94.3324652819834
94.2733500286589
94.1858741692194
94.2073958631221
94.3147213703297
94.467091162437
94.5729627445132
94.5902889258039
94.5754519451561
94.5284029364595
94.572858658919
94.6969437213826
94.8107317692959
94.995145478047
94.9857599015018
94.9038119579315
95.0370194754738
95.2473213368713
95.2469364638143
95.3120225333813
95.3702150829803
95.3231070441403
95.3681565969959
95.4314637008456
95.3241189159869
95.3095121428984
95.4868466181163
95.6167434922021
95.5186736231361
95.5627090401379
95.6688919660726
95.8420920322243
95.7580384389294
95.495732989976
95.5930601488809
95.9754057517965
95.8750487163785
95.8112536299149
95.9803549464832
95.9510894496201
96.0058558672694
96.1166949752438
96.0333415002146
95.9778559092393
96.0173930182944
96.0702651982151
96.0460047817674
95.9925118844011
96.2365227058563
96.6095375562597
96.5253184064059
96.3593381077006
96.3314715207346
96.4817370596242
96.4178531236401
96.4067586420633
96.68115135971
96.7832759210302
96.8461870981073
97.101606275575
97.1432751579059
96.9118106865562
96.8906226730014
97.0984389838843
97.3104233976252
97.3555877556682
97.5350414151482
97.5718412131464
97.4919079097229
97.9193391639036
98.094140035869
98.08734139791
97.8605953210035
97.5375104163182
97.179166474371
96.9799924393247
97.2361886119113
97.4618532791833
97.3531484431968
97.1307499691443
96.9709489788026
96.901974146844
96.7053754451322
96.7141336418187
96.8286947316787
96.8321857344019
96.4438086926087
96.0991576596018
95.9621801641268
95.9051491060194
96.0969530918626
96.1477326256383
96.022846582258
95.8838687508618
95.8722825051599
95.9618973406393
95.9195372326599
95.8555681011047
95.9071615382145
96.0241114952976
96.035317804279
96.0739929431539
96.0040542489787
95.8612326400177
95.8831268907057
96.0510645410427
96.1969490100416
96.1729573426008
96.0946603059589
96.044163215957
96.0225854371915
96.1173471921024
96.101704573241
96.113607332311
96.0328636992563
96.0151726889735
96.1774921716553
96.2954379646212
96.2764931675867
96.2929232661278
96.4370308182625
96.6087605234354
96.6784585250892
96.5096151787537
96.4299382019293
96.6948019134825
96.7982520624307
96.5882829073416
96.3810361276694
96.8448300036472
97.2220309056546
97.4344583784658
97.4391342976209
97.1599654296215
97.3144275138482
97.6431412791414
98.1731501907829
98.3818597801996
98.3114529192342
98.4171482478829
98.2476794717399
98.1182707580963
98.2632407692542
98.3901788271541
98.3594656250442
98.0723766147165
97.7230294192914
97.8651147593836
98.169573851419
98.1165166771524
97.695618060143
97.8689637043612
98.194361122999
98.0180075298321
97.6880568200354
97.6684698991917
97.6790264258381
97.6194872808699
97.7622586900533
97.7445700662573
97.3904417218225
97.3098058921188
97.3187990347395
97.48554420573
97.5717451159944
97.2299641693423
97.2992575928277
98.0637938218011
98.6413217646788
98.3582351803537
97.8426128609822
97.8493774062488
97.8806695796499
97.9135904995509
97.8409215136622
97.8018759423437
97.8491097311517
97.9938326590721
97.7412777614332
97.4876326365027
97.5895375537313
97.708947126199
97.6326308274278
97.6110402946288
97.4830953570498
97.1792389289923
96.9057921950477
96.8512239056389
96.8544202442433
97.0418735639158
97.018819885301
97.0438457899023
97.0106983020821
96.8534542506918
96.8695459043473
96.85573555415
96.7406417088086
96.8085287811408
96.7721394843667
96.7965393263673
96.8696320637139
96.6977174190377
96.633460637691
96.7485725174107
96.7287711824093
96.6583116942169
96.64225175781
96.6751064173948
96.5594162387358
96.5213903355023
96.6684800756675
96.687899511507
96.6718469017078
96.6501315837306
96.6476271445015
96.7314268533142
96.6711524044145
96.5095655795024
96.506359681804
96.5735519326191
96.5641932543122
96.573449216651
96.5692606838973
96.5435538930223
96.6353509304487
96.7161541087013
96.6846888784661
96.6565769977425
96.6764609008906
96.7012643764765
96.6188133335416
96.6078237613896
96.5874386539185
96.5595297790086
96.5869194100829
96.6470976980778
96.5646955253018
96.5849123514002
96.6013320446793
96.7145690192271
96.7654069133971
96.6708719732661
96.6442442776655
96.6802048605939
96.6698084435988
96.6118760802822
96.614143795296
96.7629124633883
96.7578756727375
96.7036476160508
96.7203735681226
96.6817962167943
96.6830354777516
96.6961426063258
96.6606490375662
96.6362844137767
96.6276184040899
96.5660127389196
96.4961222668881
96.477956383503
96.4895573741809
96.4785146697693
96.4250999794719
96.3752073905425
96.3361384649715
96.334138251577
96.2520753405061
96.2041269668484
96.144412069733
95.9682031189686
95.8133698761622
95.6665182257819
95.5340135839435
95.4310801800334
95.2623135381904
95.0927716270289
94.9926195165215
94.8883316135025
94.8848115601692
94.7036055396482
94.4917577785889
94.4376199940062
94.2482149605439
94.0865439747748
94.0122508314523
93.8398116093487
93.7131669316258
93.6291709449892
93.4609298451823
93.4300116113831
93.4378034574956
93.3767904080986
93.256008192981
93.1916109711849
93.047523997253
92.8567327008024
92.8454218814323
92.6644935969141
92.4936344828968
92.5544746688994
92.2999789252921
92.0747884328293
91.8146798002189
91.4792736917241
91.2201911748358
91.0357785138314
90.7856859342617
90.640422967936
90.454972414908
90.1976999619763
89.942642078406
89.7191603204785
89.3985273966434
89.0371672590682
88.8344742949504
88.5951224190116
88.2705471876527
88.2751955974099
88.0393628502925
87.79166579721
87.5552354646199
87.1527746788167
86.8324842650173
86.6078555393642
86.2340403636975
85.9316387995936
85.7798318444027
85.4537882062953
85.1517708156284
84.7724270056889
84.3972678360551
84.1323142154226
83.7725076621539
83.4282221453218
83.2014523099862
82.8686082299435
82.449848064343
82.1035601638579
81.7281356190154
81.390293529402
81.1024601340478
80.5846530816086
80.1140472828148
80.2067926510894
79.9799180208007
79.63461126586
79.2818280372384
78.8216503454175
78.4040071253016
78.1062885837817
77.6815285712691
77.1551112088413
76.8738888308224
76.6422985644457
76.2444030392303
75.8107117768487
75.4152909696842
74.9770781363985
74.5478450913148
74.2917415979566
73.9250850741741
73.3890327840351
72.9566420893623
72.6578810089267
72.2712482138416
71.8640685316492
71.3738520287574
70.9192947359652
70.4786805301013
70.0968612253358
69.7118783011703
69.3468786770271
68.9621490938967
68.6018975173996
68.2612301303206
67.9795789271662
67.6914260169545
67.4622281647979
67.1787744752318
66.9285244464868
66.7334305926738
66.6161383925696
66.3542815289077
66.0205330109936
66.2203703752542
66.3799588550618
66.1683080511452
66.1881549708841
66.329175138278
66.4020774755004
66.6294207623121
66.4692603109783
65.811170617875
66.9463034570004
67.9707027436542
68.388271499537
68.7748498832611
69.0364299623394
69.4935774001049
69.863866065479
70.2421897490082
70.7840734095525
71.1054897294439
72.3896030519731
73.7083013538634
74.0238391903719
74.370964440018
75.1766267863755
75.6324523321731
75.9935246027759
76.5455410545583
77.1259949608306
77.4303188990348
78.3098461734747
78.9722347841763
79.3503442094756
79.815208455641
80.0533884570139
80.3418451471729
80.5239965551138
80.5783790792864
81.599467583425
82.3218783052912
82.4703495921356
82.5366841975033
82.6117742448589
82.8829215559206
83.3097999520296
83.4028919683566
83.4365572159012
83.6765043377102
83.9003407178501
84.0290177520354
84.0035100757296
83.9516370382835
83.8951596860627
83.7770678059707
83.6954863340984
83.5508826050447
83.5190037162797
83.5417928799257
83.3223134839071
82.9571958046865
82.6133572563442
82.4395647613533
82.2014428430959
81.7976546306683
81.3993584606943
81.4509720323403
81.2754303633118
80.9403979512916
80.5562474002304
80.1940030671867
79.8712064294619
79.4949468444083
79.1625246569985
78.8795914835602
78.4188774973469
77.9911004365074
77.8620630757297
77.5650041762266
77.1178800091366
76.7063526706854
76.2842670162978
75.7920047859133
75.3971388962841
74.9997585573529
74.4101791713078
74.0659309949108
73.8470322274634
73.4620970383397
73.0301147227482
72.6319728755982
72.2522034752203
71.8699635468244
71.5634772639528
71.3764893519449
71.1129717517125
70.8333719420012
70.7127321684764
70.5608843037209
70.5214367206406
70.5212443933666
70.3965500199153
70.2308649551057
70.278926855148
70.4078022680581
70.4265537552263
70.4845825751569
70.6037545908058
70.7429105835952
70.8413373222124
71.1262098116546
71.4579233718599
71.6531781295331
71.8833020147739
72.1398675128371
72.3005184230503
72.592937649789
73.0094171552119
73.3326448702636
73.5871549901726
73.8393430937716
74.1256628879863
74.4364907097004
74.7619237032869
75.0643785508066
75.3620927608542
75.6595146651371
75.8665052018366
76.1147554976195
76.4715780434118
76.7856184151465
77.0218015765742
77.2184775459399
77.3928116689145
77.5866211704395
77.7977733472502
77.9914970659821
78.1658657867704
78.2884757145035
78.4485226253701
78.6627618085983
78.8286341311659
78.9637415243318
79.1255079571171
79.2763492238427
79.3979384121208
79.5172247429294
79.6554390627225
79.7869251539368
79.8997858148839
80.0250561661568
80.1473281026837
80.2715921465641
80.3953319380001
80.4852945541981
80.5577491606593
80.656253535121
80.760024728816
80.8263439797885
80.878078934583
80.9244994405698
80.9662388644389
81.0009450396599
81.0266279342433
81.0472761284805
81.0747890904289
81.1105204687755
81.129932538526
81.1659338174533
81.1978182094915
81.239122035355
81.2982991396071
81.3583480283494
81.4006877173836
81.4358289040558
81.4664652489998
81.5068782583058
81.5512366261661
81.5648951072317
81.5735897936115
81.5977279699982
81.6224275368519
81.6358443406045
81.6284481381101
81.6253264725127
81.6361729962588
81.6564796218418
81.6718088496844
81.6696813648582
81.6767373688158
81.6892211029974
81.7114233910783
81.72222609184
81.7223219540842
81.7745135227568
81.8082705320902
81.7979681658204
81.8141947310294
81.8741455619777
81.9190670126134
81.9333331875427
81.9729223265038
82.0169002366336
82.0358867075976
82.0685422091106
82.1229981671838
82.1704102535569
82.1890258164544
82.1991966555168
82.1911535083105
82.1898833547729
82.1579566499062
82.1265609149584
82.1272483751928
82.1064372627887
82.0598526873872
82.0014392759349
81.9582135513066
81.9481399385048
81.8994148598195
81.8103072488834
81.7663263065961
81.7203458693146
81.6639362466371
81.5982699521329
81.5364596746231
81.4936529129978
81.4092052993924
81.3122255231022
81.2352563732066
81.1526908258917
81.0619629872871
80.9673703520691
80.8825031120287
80.7662845550138
80.6386430042584
80.5331422467237
80.4344752248081
80.3032987148657
80.1574748745019
80.0075559149723
79.8630688831045
79.713308403827
79.5786194569549
79.4482187073012
79.3094076672168
79.1959266138221
79.0759175352431
78.9436175326324
78.8294724856603
78.7128307676284
78.5822731093053
78.4390485663291
78.3206329809329
78.1633776788911
77.9935016053433
77.8778997551812
77.7326346295226
77.5668907532795
77.4213980809107
77.270890137903
77.1082199404348
76.9532056440078
76.8273052158392
76.7136070578054
76.5898796089804
76.4576533473844
76.3290913960113
76.2104314340661
76.1185891594147
76.0621874429834
75.9913599224103
75.9064944050779
75.8427270335061
75.789845470801
75.7343650720649
75.6554694158251
75.5664492282471
75.4825215593096
75.3908861443423
75.2809119562069
75.1800989231135
75.0814333956627
74.9869069134244
74.8883948636
74.7705597782943
74.6880341504244
74.6700328561927
74.680073387295
74.6946881081701
74.7499074597593
74.8488537666806
74.962136255152
75.1037189599761
75.2244764558854
75.3486149551738
75.5004690751998
75.6842736480214
75.8625314341372
76.0135915469627
76.191676264341
76.416175181519
76.6226296012136
76.7850814505424
77.0103594794383
77.2551112751989
77.4737066277387
77.6959273468107
77.9052130196826
78.1102562448752
78.3121034034542
78.5262485063637
78.7447926619694
78.9798579887913
79.2209180787496
79.4292658858532
79.6165396370235
79.8270093071462
80.0284190739862
80.1994746738913
80.3726148405722
80.563901447091
80.7447375718166
80.9109255230999
81.0615202121136
81.2152790811071
81.3437351494101
81.4646566721753
81.6000244486546
81.727970171744
81.8388721770358
81.9432201296442
82.0728505729887
82.174575053725
82.2554091088434
82.3527424752397
82.4237241391924
82.4553246166893
82.5567893843753
82.7001332615134
82.782635814603
82.8547438984882
82.9740609023762
83.075460038157
83.1438231713184
83.1904487058655
83.2926007068693
83.4230055871467
83.5114329566255
83.5920305088635
83.6415937899588
83.7072971576675
83.7784135385455
83.8436219641711
83.9251569785646
83.9913974006877
84.0420627272739
84.1047198527064
84.1262200947153
84.1642259235472
84.2147439499627
84.2418902334329
84.2536285780986
84.2833546165171
84.3049508416256
84.3197132928331
84.3260998441046
84.3557722426009
84.3899718383108
84.3747510604668
84.339752469318
84.3331770047152
84.3406899144181
84.3515770283645
84.3117218211552
84.2388335154801
84.1949683667738
84.1737504560402
84.1513111359761
84.132580312551
84.0839200478377
84.0353913996198
84.0054969063917
83.9539282426584
83.8874741958088
83.8148081624782
83.7461880621184
83.6917221734033
83.6228871681639
83.5357394599526
83.4576308772202
83.3784631890431
83.223000436292
83.0493193078211
82.9355335011793
82.8306442194376
82.6800608361639
82.5275292601207
82.3738181822476
82.2131931370327
82.0347353098759
81.8875948752467
81.723112145791
81.5006726793671
81.2925280274329
81.1243897770423
80.9532756376632
80.8048147550859
80.6659544076596
80.5160358584141
80.3440940732031
80.1769852647424
80.0120845023215
79.8721139798657
79.7283117098398
79.6043427326426
79.4711310454052
79.2893172134716
79.1117426874171
78.9902144763205
78.8539043931708
78.6739275212935
78.5095051626096
78.4277296267259
78.3543471028976
78.2951213233702
78.2357560723983
78.1849579260871
78.1357827649056
78.0752890345588
78.0127637983927
77.9777005900295
77.9168412413186
77.8349731267494
77.7645613389893
77.7107901759168
77.6156318830306
77.5439383805081
77.5230727135362
77.4253142939505
77.2997024315028
77.2444748559012
77.179128323983
77.1092068291885
77.0420139500203
76.9772263047069
76.9012422350418
76.8113155820388
76.6979512880857
76.6092417300109
76.4903848256062
76.3960222443461
76.2814301595151
76.1593663676489
76.0358122448472
75.9584946830996
75.8269883178307
75.6587351098384
75.5394103056263
75.4338515924994
75.3009384492492
75.168287671759
75.019430591987
74.8911973666147
74.8276754521749
74.6694987452295
74.4620327612521
74.3788905119147
74.2559556628219
74.0885659095261
73.9726098093221
73.8797537895146
73.745346892743
73.5745605092944
73.4212617954807
73.3281006045958
73.2372769903641
73.1496230391017
73.0362152613846
72.8773042508544
72.7054255948206
72.5879192567446
72.5433531821235
72.4169577944981
72.1991094938601
72.0943896665995
71.9906778221015
71.8528525892802
71.8648937579728
71.9482225574097
71.6185083291359
71.4049190860408
71.322188383084
71.1276567689283
70.8993494564565
70.8188303728432
70.7197875127662
70.5704825823447
70.4404127698331
