1798
3999.43349933624
650.420452594757
1
128
4
98.9733027270228
98.9141473219067
98.8415372160985
98.8319870660279
98.9314324991868
98.9655934185442
98.978556698564
98.9406322207962
98.8593535955703
98.8716258364833
98.9548231003789
98.9689538106631
99.0208011586642
99.0809881084021
99.0527003058709
98.9506148700558
98.933875860019
98.91150322563
98.9615218437109
98.9861985928669
98.9666453800762
98.9604445460295
98.9691215113972
98.9671745532075
99.0009915541795
99.012841920026
99.0654165226682
98.9494120795018
98.874441229803
98.9993725236498
99.0450042807595
98.9701841413952
98.9217123789805
98.8799517096725
98.968754885632
99.0715476570391
99.0994480620788
99.0347463307551
99.1024556423995
99.1625295252201
99.1117174180797
99.0421251805289
99.0059950200532
98.9067795652197
98.9891768347536
99.1333936319672
99.1102414137026
99.0446879711031
99.1063127535636
99.1530374808588
99.1360060342492
99.1179872786563
99.1565170118104
99.0784775534297
98.9929417846886
98.9551302377348
98.9147125233747
98.9680543041979
99.1628535868561
99.1277944066418
99.0274137827763
99.1082091739943
99.2210481229467
99.0994104451618
99.062290644452
99.1437363415965
99.1124135705566
99.0630780220638
99.0950816168024
99.0724888746456
99.050208746912
98.9671913901879
98.9007834387547
98.9956761223214
99.1356145704219
99.1768901841048
99.2849503239877
99.3846991929194
99.3885389758021
99.1065214253053
98.9312809734088
98.8331226581699
98.8888303273296
99.1263326562216
99.3551128406147
99.3345493522671
99.1824039940407
99.0764762403765
99.0350090157354
98.9202523237888
98.8831713974672
98.9136557881086
99.1013649189721
99.2793892197621
99.308918159603
99.2487378655908
99.1868590067611
99.0580997292171
99.0026100111939
99.0032397636544
99.0462425876624
99.0149612859
99.1170158506282
99.2568140370767
99.2994450091348
99.2381519575166
99.0792350664936
98.9640663650773
98.9477423996639
98.9550623184017
99.0272211215397
98.9422666443385
98.9707001552106
99.0806505814378
99.1254298512662
99.1513372161892
99.1921988316795
99.1669633852067
99.1371361207025
99.1123014034945
99.107516500455
99.1270767098859
99.2184268452036
99.175975473416
99.1213004090166
99.0637475179061
99.0145741244636
99.0438712655967
99.1857491685888
99.2407998133601
99.2512173391662
99.21926584948
99.0958746056625
99.1544697383262
99.3764815581874
99.1525937751593
98.9256408999178
98.8923832341323
99.0643449409272
99.2096115202424
99.187847903138
99.0137683286581
98.9419994336163
98.9500472748768
98.8740339442974
98.8175890219675
98.9464495453258
99.0133189954844
98.9688502502457
98.965927231138
99.1079232374929
99.1076433049711
99.0345027999583
99.0384314943012
99.1105960504252
99.0910684657926
99.0100130982611
98.90681472115
98.8734907562258
98.8570385418822
98.9040174330921
98.8656476576584
98.8733203581544
99.0277005647532
99.1428571217524
99.0121693083462
98.8612362149441
98.7587592304459
98.5543993337573
98.4193156117185
98.5939946779161
98.7490908164273
98.7671673332523
98.7349787586477
98.5927928089607
98.4145210811451
98.2582311892188
98.0819155851465
98.0028983360844
97.9354304385254
97.9833905893159
97.9876117168351
97.9006947381318
97.8081054903798
97.8675676072574
97.8947805994287
97.674784990449
97.3782728840317
97.2200932462613
96.9750587008631
96.7780939560366
96.5519310911222
96.4836324987579
96.5645601880939
96.6520988454043
96.6829278614448
96.6002283460672
96.3669669042495
96.1115454171489
95.7026622708996
95.4424662827561
95.3517535388006
95.3385225278016
95.2742466362101
95.1349033589747
94.8519703085354
94.714284932011
94.6405863107473
94.4399341536259
94.166762355309
93.9654096552061
93.8344899149934
93.7107233571147
93.5128103911519
93.3598536054672
93.13973446608
93.0364227450528
92.9655364733816
92.7656120875884
92.5333303977379
92.2639073182705
92.0364695697733
92.0119048700497
91.6663323274616
91.2589268380037
91.1146852686515
91.0844791018543
90.9962643818311
90.8637055002295
90.5910233043143
90.3318251056101
90.0450945221989
89.8214819000118
89.716845141835
89.495838729371
89.1592577341365
88.9937856353608
88.8861143874333
88.6983083503495
88.4410296615948
88.2234588474389
87.9737060696064
87.7456912223889
87.495264697516
87.2113616921284
86.9877074423101
86.8195478214067
86.6456347095573
86.5544099534458
86.3716416806669
86.1063511883724
85.7701832066375
85.5161898668941
85.2148978390644
84.9548800948293
84.8605066859921
84.8157673092251
84.5605081586642
84.321765624255
84.0399937836317
83.7510550299097
83.4708015158293
83.3229165592888
83.2446870927132
83.1111213480923
82.8505306334034
82.6667768828174
82.4296924898665
82.1342116150074
81.9896971097055
81.7951047087607
81.3702604313721
81.1201330886378
80.9341971246347
81.1049330874776
81.346199964802
80.9513242856992
80.3978060269822
80.1191250667448
79.7435270625851
79.6370681802599
79.5779019752378
79.1401444223961
78.638422588708
78.7998852060641
78.8370259007194
78.5559287925638
78.4754168225571
78.0811793293882
77.4704525533761
77.681011341524
77.9942518342664
77.8127823056268
77.5164375829868
77.2028438406101
77.070946934736
76.6654596989529
75.9014009588555
75.5269510678457
75.4391419700135
75.8264680525116
75.8643375694906
75.5448561987087
75.4698177985634
75.2458738202083
75.0735738371954
75.0857939599272
74.6784018276953
74.5128037000425
74.7748077167475
74.6710989648662
74.1176528948073
73.7596584581707
73.6369165311898
73.5907930002219
73.431791591897
73.4020928165653
73.1608504666605
72.9689467579447
72.9630996103002
72.7406159120346
72.454091264924
72.3531609695378
72.1363085054787
71.9542995231115
71.7947898719132
71.7665290810217
71.741300505871
71.7353973152721
71.6069012013435
71.4772539521128
71.4040971166437
71.2846940799832
71.1688501938043
71.0425386776105
70.8751897825261
70.8437171299077
70.7857691267125
70.647264706656
70.4205470640779
70.3087279205013
70.2453988991574
70.188941540952
70.0469085768988
69.9973010562029
69.9691983880818
69.9399751388632
69.8330034172118
69.7460838020107
69.6682698166626
69.6198821033008
69.4965291520581
69.4526080253859
69.383075764451
69.3722244736966
69.3936638755536
69.3297414330537
69.1800706257956
69.1382995898601
69.0613579605806
68.9936303942248
68.9060197888305
68.907877681647
68.8594635896836
68.7975129727167
68.7740524813021
68.7866988697906
68.722672638542
68.6810758183349
68.5800720182124
68.5116804048197
68.386184621461
68.4255837335172
68.4124959496447
68.3713340215789
68.3312897619883
68.308118971123
68.2547188309474
68.2705555137071
68.2589426510529
68.1958530303429
68.0761463488396
68.1000095943265
68.0359357887283
67.9861778126103
68.0317570211278
68.0400278358318
67.8894510366547
67.8303686826272
67.7841944286545
67.8164220533099
67.8856231306267
67.944883497114
67.9312652163521
67.8675686507183
67.7350278053882
67.8788544167781
67.9855221797186
67.9921887314577
68.0076759115168
68.0567130316384
67.9802147012407
68.0127918042006
68.1034986129061
68.1576806140783
68.1018829600756
68.2754920921837
68.3614681816584
68.2862362593705
68.2763368010239
68.5174954370342
68.6032992732635
68.5796681560787
68.5781900128992
68.6434200807362
68.6742123135065
68.7987016366273
68.7999493155611
68.8166870582812
68.8573962957405
68.9980506114873
69.1291156850167
69.2411087117069
69.1655235643479
69.1597859912019
69.3253797251051
69.5396696937626
69.6218031288544
69.7461490534621
69.7281013553319
69.7375097715553
69.7847596739536
69.932842753318
70.0751806102659
70.2345793247215
70.342457257289
70.4596787314399
70.4737588343466
70.6165443857674
70.8468843058526
70.9629628692684
70.9717509598185
71.0911700200502
71.1689108505499
71.3220082786971
71.5082699238573
71.7140419782434
71.7859177224727
71.856407328777
71.9879143766442
72.1727246186954
72.2963952263265
72.4381120958203
72.577313620633
72.86124738625
72.9888890493082
72.9695605633082
73.0364531090395
73.2441068715675
73.3900945470282
73.4392717462991
73.6181831598939
73.879052741035
73.998739462511
74.1520172222215
74.250725792277
74.3979446517296
74.5245996767658
74.6246011150111
74.7194577415318
74.9247596323804
75.1253570399607
75.2410002582527
75.3845252327155
75.6220294982291
75.6907265712296
75.7300141551534
75.7760906118935
75.925253098181
76.0861833996372
76.2081437651296
76.2527000818783
76.3630890316674
76.4340682082883
76.5549893307712
76.7048412105024
76.8978252778136
77.1028962343601
77.2389604588643
77.2326389369434
77.309420121023
77.4595885249567
77.6361352098547
77.8301626158244
77.9402295427397
77.9027979571336
77.942833848514
78.0434629703176
78.2819236930892
78.4481511863006
78.534248929563
78.591251501852
78.757489350143
78.8858740877678
78.9666394122628
79.0506921873703
79.2487264014072
79.4006715849436
79.5625345291935
79.7344701381103
79.8269052097882
79.9088913723851
80.1020912316169
80.3000509232059
80.5011601474797
80.620840440577
80.7158737609442
80.8800892890468
81.0506633655041
81.0556961725794
81.0886359689911
81.2084447766653
81.380584266725
81.5246779343072
81.6652422208752
81.7442296432311
81.8407425328153
81.974594130381
82.1840171456492
82.2760330727001
82.3405254968169
82.4374144937534
82.4890009643969
82.5409757505595
82.6314622788575
82.6909140871234
82.6580979423239
82.6411715259207
82.7847275370858
82.8682796172088
82.874002033164
82.832533112858
82.7727060291921
82.694792493211
82.6437130142512
82.5680370826964
82.4298994225561
82.2790339325465
82.2134192764671
82.0376885997613
81.8129018867065
81.5719983150765
81.3305299664411
81.1428631932975
81.0212282009318
80.7937246305935
80.5141600461054
80.2701085403948
80.0968318247011
79.9476998560751
79.8183520820253
79.7268363079386
79.6284322785621
79.4686358342485
79.2938166067912
79.1220937910144
78.9647097666985
78.7172559289743
78.5736758796699
78.4550109750302
78.272992942506
78.0617898917995
77.9804922642729
77.9176785193989
77.8704701094747
77.8263318103571
77.8811976254447
77.9933240365537
78.1439628291008
78.2379018367296
78.4504941488539
78.7445757559544
79.0126693537188
79.1969396255087
79.3802779974921
79.5525081785681
79.765093121932
79.9528255212938
80.1106852810712
80.2379334002422
80.3725041501125
80.4356800763983
80.5221626635839
80.5849242559736
80.6116420406446
80.5836119023425
80.5766888210494
80.6245169204781
80.6281898765785
80.6017766353994
80.6426772760578
80.5687394103383
80.537745661463
80.5695175288438
80.5850943321234
80.610828699454
80.6811657522101
80.7537817363201
80.8783754379734
81.0097026341672
81.1330229268604
81.267411199758
81.4242776789906
81.5681376466615
81.7105218380998
81.8386187737744
82.0001375947339
82.210434834039
82.4612802045299
82.7097561417763
82.9695262848436
83.2091096746563
83.4365394676741
83.6291679493692
83.8011472646193
83.9991461494373
84.1803261558172
84.3392543086853
84.516656300333
84.6614692238783
84.8058701024731
84.9959932609718
85.1537992928121
85.280338058852
85.446644633102
85.5786984299749
85.6879525358
85.8044097645923
85.9560796760545
86.0716379182422
86.1778095819773
86.348545493817
86.416383221362
86.4717274826456
86.6216610875571
86.7820512765765
86.869848468133
86.9382033532468
87.0590087505196
87.1921975934264
87.3083046510501
87.3899636455937
87.4301164042561
87.4636341687372
87.5535766037183
87.6281089104587
87.7471710776147
87.8956393572316
87.936388003991
87.9600583964259
88.0049345707442
88.0983463201333
88.1866417722282
88.2337429514493
88.2812483387965
88.3364619917701
88.4468514425955
88.4807235115357
88.5317028168948
88.5898815715188
88.6133838166012
88.6691570380949
88.7276535713141
88.7931134098471
88.8399249161013
88.8627557623641
88.931190262311
88.9779476721315
88.9815840398071
89.0375203488567
89.1392629475773
89.2010965191824
89.2188902523144
89.2781242213927
89.3461525681644
89.4059712983627
89.4983977309527
89.5563521429997
89.6014908365201
89.6377517008881
89.6482700335809
89.6710773199142
89.746038509884
89.8114281903849
89.8594375531018
89.9118245443183
89.9672002549487
90.0537021033079
90.1053804777963
90.0836711911899
90.0997091213606
90.1465151213319
90.1901308905782
90.2200738099945
90.2979085329551
90.3631660934473
90.3801488008767
90.4049174400523
90.4443736523838
90.5177555673132
90.5896380111799
90.6257237411132
90.6671196240464
90.7100767287644
90.7307755775873
90.7492645898373
90.8235653434279
90.8804055240615
90.8630030737588
90.9012316878177
90.9583413087103
90.9920902008145
91.0363823928818
91.1196919774285
91.1413485264553
91.1578283557959
91.2521321643039
91.3664449675758
91.4436817261285
91.4885291064948
91.5243706565585
91.5926595915028
91.7087137393245
91.7676414408727
91.7422619093747
91.8225506338845
91.9341331912383
92.0006635646276
92.0826716368412
92.154720956264
92.268666351631
92.3441324712901
92.3464687111816
92.4012022807253
92.4578281059732
92.4986703272676
92.5557347474523
92.6125541266359
92.7016235552983
92.7737591662767
92.8036256966032
92.8705784665992
92.9693482904807
93.046475177951
93.0791279130354
93.133521447156
93.200856829322
93.1804395307206
93.251929086009
93.3969575654608
93.3732907086909
93.35056358642
93.4446179729204
93.5189759050928
93.6346648753751
93.676891963304
93.6574019786478
93.6896488543367
93.6794910895424
93.7059527133422
93.7779992895436
93.8485552242036
93.8629608649224
93.9712856343043
94.1105603920727
94.1723238966563
94.1350926888522
94.1347810507203
94.1049632535503
94.1637504926421
94.1942983453745
94.1696563311333
94.1784376152262
94.2712960582618
94.3136163349291
94.2965132156664
94.3053265051618
94.3581388231191
94.3683737463129
94.4097326141523
94.4754830883171
94.5621190287049
94.5477765614253
94.5597288707732
94.5681748987243
94.5660632953829
94.5883721389923
94.6849014258148
94.7318009618457
94.8231176731632
94.8704584825784
94.818491237333
94.7246794867841
94.7453731643081
94.7779125145535
94.8097898107218
94.8489115953398
94.9192385859631
94.9717888002188
95.0409295817131
94.9928022595129
94.9830064684313
95.036977500587
95.062861476996
95.0870715547314
95.0941027886522
95.0738408532817
95.1613117207479
95.2160310433498
95.2471443092551
95.2835018572107
95.2907859600429
95.2803984250201
95.3150112270258
95.2914450937483
95.2460490412261
95.3091384876694
95.4349595937187
95.5111724720255
95.5096823981452
95.4317206876178
95.3994847623292
95.4515215277156
95.5257248604076
95.551901232572
95.5729609548549
95.5625797758866
95.6460215361086
95.7543283621401
95.6884680059376
95.7107036663593
95.7639091975073
95.7024327734568
95.7266658003573
95.7061317562244
95.7147534883519
95.8303401184275
95.8594308381922
95.751193583265
95.7583619983441
95.8436779065434
95.9496907222406
95.9369959689323
95.8790717136659
95.8560093728604
95.8158347047428
95.7443488508338
95.8121543911155
95.8627434377799
95.9095809375837
95.9080971135256
95.9032802289063
95.9875584924586
96.0070834155164
95.9619122299286
95.956014324445
95.9137824902697
95.9409892770943
96.0071544100956
96.0320439806178
96.002037091767
95.9865840341297
96.0568014079285
96.1730969397605
96.1731016165293
96.1945559279006
96.2780474180883
96.3762974349942
96.3142459793415
96.2432259359803
96.2658394941881
96.2322472421492
96.1924996663125
96.1596668604534
96.1789973339896
96.1738850761149
96.0898923959417
96.0662887204628
96.0828358350416
96.1369668403233
96.1297332794193
96.1009009151305
96.0873400445342
96.1083120629211
96.1197586293876
96.1059411997589
96.0827484653304
96.0735198717585
95.9075687444822
95.8369335200718
95.9455002623099
96.036688933071
96.042375030694
96.0259751413721
95.9874411678167
95.9804888247256
96.0431203472323
96.0704016652403
96.1190924446663
96.2225292140046
96.2552897954664
96.2306255737356
96.2602971208872
96.3420008681747
96.3920635602495
96.396872506477
96.3579207600536
96.3846366594581
96.4553146777093
96.609454312697
96.6696773846757
96.5561561432027
96.5419858161964
96.8259701348351
96.9697417893809
96.9587111057666
97.0051393633797
97.0122490907463
97.1450200086585
97.2457670064204
97.1564210211779
97.1438509580298
97.2683788046298
97.3643959499689
97.5202903837063
97.7703386812556
97.7038673884549
97.6908417346647
97.7299953654023
97.7745505026395
97.7244399454277
97.6887604139098
97.8209450767118
98.1575974414938
98.1573340063175
98.0955073061389
98.1349791595095
98.2034633702837
98.4595260198441
98.6309036759989
98.4160804553467
98.4287155260234
98.5321425302726
98.6292898845682
98.5623269960951
98.6269299609034
98.7433230424276
98.897071782724
98.8950245556568
99.0652229150061
99.0503775991537
98.9278583848669
98.9436626117621
99.1426370860377
99.1465396373601
99.1129880554141
99.1928000242016
99.3741297450166
99.3174212216942
99.3711942815416
99.3071299986271
99.2871369604342
99.6978802874034
100.20590092879
100.323053929582
100.413712359335
100.632360809625
100.60768036957
100.462671285743
100.614703787251
100.250701726885
100.223859820661
100.55113171508
100.767317540106
101.032062546941
101.37205908164
101.344641250539
101.994588112629
102.248637788549
101.589020275499
101.36256983001
101.068780671251
100.43987258838
100.386553924297
99.9261847675165
99.5315099652035
99.6763389562889
99.7691122568264
99.4880229461328
99.3662009653005
99.2092400807666
99.0657408727282
98.8258209959734
98.6082397148469
98.3542445496095
98.2448766982859
98.2377939925558
98.1870706406169
98.1577833591698
98.2652067196587
98.2540920982591
98.2405677973673
98.221592416025
98.126717428376
98.1492011213808
98.2737188202715
98.3478191534938
98.4092428395041
98.372182568621
98.282987400592
98.247326533653
98.3111912629909
98.3220435571755
98.2826127281123
98.3251774410341
98.4245712150864
98.5361222807076
98.7560723142423
98.8145982411117
98.6489818217625
98.5630030005233
98.8230573719756
98.9120079914993
98.7724196421408
98.7367618640509
98.859266643458
99.0449432575223
99.1842622974571
99.1506146543441
99.2924979312875
99.4123643874904
99.5323822966188
99.7323004181645
100.173268528042
100.140725086769
99.8490322271514
100.026951561453
100.58554034423
100.87420790919
101.214515543778
101.322213002744
101.406784028836
101.415886373643
101.512557539117
101.652971349938
101.675575843444
101.434222797342
101.494960209298
101.671909264628
102.030412970354
101.709189436502
101.327195148065
101.386360517271
101.498057003321
101.40903519893
101.248200137335
101.513030913502
101.713415199784
101.578604967642
101.348029796869
100.863586984662
100.740251779194
100.783918080712
100.57174868537
100.30794806817
100.410953688872
100.703413304639
100.813874598827
100.76442041251
100.865087739289
100.51648648986
100.376228086745
100.847017252331
101.200523044507
101.115171239123
101.447432067595
101.671449000858
101.42094553453
101.714194307127
101.801316814111
101.023315477157
100.552460181186
100.650589038905
100.68892978633
100.561250015191
100.436879222085
100.160371865168
100.023272150334
99.8933573499276
99.7482918244171
99.5712575781181
99.4962606371099
99.3648205771917
99.3372118308037
99.3531252067805
99.3491265539149
99.2350838636006
99.1321162226742
99.106461307488
98.9177130400083
98.7431718213156
98.7730914268711
98.9477647199229
99.0035189028056
98.8339705414167
98.7329805079584
98.7537507835894
98.7108409495501
98.5539361964341
98.5363665278046
98.5196617144229
98.5374053574879
98.4695064822799
98.3942521282672
98.3452535486507
98.3015707107042
98.3014581558525
98.3865828038805
98.3437261620697
98.2240696310076
98.1790025522974
98.1565675722979
98.0500164240167
98.0331690233146
98.0697926912262
98.0500931361893
98.0949255941944
98.1604153536194
98.2549908367345
98.2589706780223
98.1407450661776
98.0817039539982
98.058209792886
98.0546291902097
98.0338312808155
97.9932235679559
97.9144607666248
97.9053759330445
97.9302869447723
97.8944279897249
97.8819694163699
97.9138867742933
97.9211798977615
97.9358593615774
97.9339723850088
97.8885096227911
97.8438276832478
97.7603967733494
97.7020564631879
97.6815497762425
97.6949956605944
97.7621875308444
97.8035949050573
97.7624794542789
97.6880630425159
97.6028511732528
97.5509420454193
97.5082722421182
97.4466627710147
97.4634889728965
97.5058447435367
97.5409087459488
97.5006808348539
97.4412276625337
97.3700197224969
97.3516232280418
97.3730471698509
97.356661977494
97.2993708227961
97.2925696273966
97.3184655660769
97.2875283703512
97.2321498439573
97.1408489874254
97.0722039140241
97.0669799915359
97.0238925851541
96.9383251460617
96.9290334023686
96.9161996137978
96.8584568454535
96.8531304201162
96.8342810928315
96.7181908791044
96.6121922222677
96.5982353606226
96.3982934356289
96.2606341309676
96.1953384095009
96.1356233347066
95.9837790740249
95.8698198327648
95.7786641632702
95.6846261292458
95.5027595258574
95.363197706475
95.2046515815099
94.9293337224211
94.7268493462196
94.6053057757069
94.4358432519508
94.197220250459
94.0356704312916
93.9474480161592
93.7304381638211
93.5314709151175
93.2974626513596
93.091873522198
92.8460160978205
92.6396959488698
92.4179193216119
92.189868108248
91.9309786218487
91.5915782394942
91.2222606513927
90.8097134641979
90.36813886827
89.9197844202991
89.5298085189623
89.0952554274991
88.6162400714528
88.1350575797389
87.5703204391152
87.0375025293424
86.3287355626175
85.62379616999
84.954984043241
84.280796141285
83.7046098501953
82.9526761213854
82.1789133020454
81.3392612785197
80.5126713994933
79.8450230398314
79.2513602746823
78.4481867859857
77.6319979198753
76.9298066232008
76.2976236821874
75.5943706272464
74.8799720304797
74.3627569917081
73.7823426997621
73.0642827798187
72.4335652126161
71.976154376624
71.4751486441774
70.6960930751995
69.6752511845683
69.3080667489112
69.6224497271859
69.1660641898959
68.4749938977082
68.3503672981205
68.2760787495554
67.9330719179238
67.4805289346993
66.867010352288
66.4331095926554
66.7223895048295
66.8612569663394
66.5416521132634
66.211726132578
66.0473277670921
65.8118309719468
65.74940420858
65.8531187698803
65.5835207636011
65.1099864171652
65.1931790049394
65.3376426233729
65.0606675250103
64.674711866406
64.4366504233717
64.2374124137968
63.9712012689224
63.6728146894923
63.4313636186973
63.1691576612346
62.8953952739821
62.6813200272267
62.5641486802122
62.4501592868511
62.3194615628725
62.1756703573636
62.0031970233248
61.839935224762
61.7073756701759
61.4633060614048
60.8882935128127
60.4553602431399
60.7186363595996
60.5855008726423
59.9320288445949
59.6892145128456
59.7014806676172
59.525365429894
59.254335671009
58.4663473195507
57.4667304022413
58.7489389417061
59.9302073148243
60.1579876225991
60.2703216618078
60.4680435232142
60.9296505824794
61.2786153417737
61.498648982456
61.7672457939853
62.0626817558073
63.8864004541186
65.7369948016756
65.9724287548792
66.1651826276129
67.2279425710548
67.9754724796722
68.270188024503
68.8036855465467
69.3656116846156
69.571154387883
70.3971487351024
71.2622929394113
71.7195118176846
72.3467382876908
72.8737734567086
73.2091318875776
73.1723812549544
72.925790465744
74.3894263113005
75.9564695129002
76.2709292970145
76.1706167473935
76.1875147418234
76.6718229015997
77.3798791867835
77.5229864317644
77.3331750116272
77.5293349693736
77.983207972357
78.215115524817
78.2174911464705
78.1345933427653
78.0363764975737
77.7968862290538
77.3746309145198
76.8854951075892
76.5754652220616
76.435979574809
75.9610276336426
75.1581550087747
74.5557253673666
74.2764958668831
73.7803359964185
72.8433743945664
72.1971576226408
72.5265065144276
72.6195515335325
72.2503246544605
71.8874767884448
71.7126931283386
71.7424066103679
71.7315349070094
71.6389582396643
71.4755914261333
71.0838786198314
70.8448868360076
71.0882774994905
71.0304326846115
70.5947998387947
70.2373404609229
69.900660630481
69.4043305789263
68.8365426554572
68.1921208139816
67.4249316090033
66.9325969675313
66.5904213884745
65.9154751383739
65.0846305894061
64.3155969520928
63.6176164230239
62.9490580418846
62.4164077781889
62.1027092150839
61.7315818764036
61.3990395312812
61.3342182093477
61.3437457552127
61.539208660752
61.814101020628
61.7749090132971
61.6721904047481
61.945441498821
62.3366036137473
62.551888780734
62.7576929835433
63.037985093991
63.2896559480892
63.5000856483883
63.9817530392111
64.5463333137426
64.8680629246019
65.2410502314635
65.6360543273817
65.8562054162161
66.2417769038999
66.8471394035336
67.25749610639
67.5037944558046
67.7716087185626
68.0727295670286
68.3526763168473
68.6133351927541
68.8802814725632
69.1418528552268
69.3522868766934
69.466825322094
69.6203909860359
69.9331596568472
70.2392898701254
70.4292024805742
70.5373147141707
70.6164478389784
70.6678382783309
70.6939021166865
70.7139162760321
70.7128039549546
70.6599268168777
70.605857368659
70.615800677764
70.610325579354
70.5766433447898
70.5979519244169
70.622779795536
70.6288439101344
70.6597338325424
70.6937018354039
70.7615255227088
70.9261530849536
71.1605050922473
71.4311903205242
71.7353899444427
72.0433801545664
72.32286325759
72.5863589553341
72.8584728841356
73.1139943665007
73.3040358219415
73.4830626223532
73.6681134848054
73.8149132984809
73.9388651579354
74.0743539332814
74.208889537151
74.3212220830341
74.4275164052681
74.525328956936
74.6130047566935
74.6956498920095
74.7507373482157
74.8140912341302
74.8773498315236
74.8897492253038
74.8912736766027
74.9154899877297
74.9273667662377
74.9066954578276
74.8753663672083
74.8324627967776
74.7807126516832
74.7411361245906
74.7117561699495
74.6795294915345
74.6374331628341
74.6276171499424
74.6653945912618
74.727299035064
74.7993561896769
74.8861822617884
74.9799542804403
75.0985351312346
75.2165861310904
75.3264942559143
75.47865035514
75.6664695478388
75.8381706996063
75.9960553335835
76.1728917215781
76.3497468157595
76.5497094710187
76.7987896044361
77.0343802347704
77.2807273930018
77.5735348755743
77.861633861161
78.1172750753669
78.3693898028376
78.6306775105662
78.8810633485518
79.0886355166873
79.2604977787985
79.3646245005678
79.42533989833
79.4681326047557
79.4350890171972
79.3430874143108
79.2069654283475
79.0120757287559
78.8204211551634
78.6441933649182
78.4621136432213
78.2888375382568
78.0819890442926
77.8307227979252
77.5966664176416
77.3559323230466
77.0849768310768
76.8001127012644
76.5043830809866
76.1995075630578
75.8931259285178
75.6020443602054
75.3273219886339
74.9992664277624
74.5748596310084
74.0943747485142
73.582688749654
73.0318521373437
72.4510877534154
71.8192084625493
71.1236828231362
70.3990584268742
69.6870759252966
68.9622538364367
68.2197276635293
67.5138640357889
66.8983846351017
66.3603180847096
65.9305555230797
65.6194321790424
65.347050516359
65.080103788288
64.833551771934
64.561464611238
64.2385869002862
63.8851213107158
63.5568132651625
63.2279581087161
62.8894059696022
62.5892418883632
62.3250754965371
62.0832838753764
61.8763612131783
61.6650994037021
61.4473980134384
61.2178296509183
60.9835811070461
60.723065995564
60.3974488612149
60.0443807673802
59.6660232727542
59.2045654314426
58.6951952940585
58.1832169653833
57.6638061408464
57.0985778462473
56.4908628250834
55.8713384724402
55.2787483894166
54.7176054669475
54.1907383500585
53.6993519180584
53.2563611652495
52.8403951930911
52.461398418096
52.1176403664593
51.8175388831672
51.579020430373
51.4614306367677
51.459760835873
51.5701329029992
51.7638992593913
52.0270222512594
52.3793793473238
52.8581775400283
53.4234947777985
54.0312452703566
54.7118725279095
55.4983410985163
56.3236003102838
57.1638103440872
57.997703092252
58.8260553135532
59.6305625887956
60.3389803929729
60.9517724552534
61.4982011105865
61.9225878572351
62.2293107428329
62.4681544389188
62.7088539152975
62.9509620320848
63.1879269919345
63.4577156846741
63.7715550245933
64.0673229041581
64.3393135759433
64.5573591217728
64.7229896811942
64.8542328449341
64.9646432100785
65.0690857633135
65.1984733189423
65.3841645434975
65.6577303205668
66.0227690260402
66.4801799151982
67.0040756217876
67.5506308635118
68.0696962164909
68.5924235478484
69.1250979721394
69.6179387967956
70.1177507376126
70.6530837594988
71.1436630949085
71.5959207878085
71.9897809725627
72.3143062093258
72.630245528879
72.9553296686615
73.2163192974855
73.4085045426072
73.5004891997305
73.4791804225943
73.3572181279919
73.1899679971579
72.9996769128137
72.8060878538311
72.6701511281405
72.6271080043995
72.6566791205756
72.7529519340999
72.8664384893682
72.978982095563
73.1258310627637
73.3302992655764
73.555588003247
73.863398772123
74.2480854800372
74.6361976307892
75.0164079260013
75.3743747613031
75.6861327305502
75.9908983759373
76.2790722027048
76.504233621702
76.6375742112947
76.7712046371774
76.9342105599735
77.0707877534375
77.1558478076528
77.2287416505379
77.2630839957871
77.2340721856239
77.142922545242
76.9911568124856
76.7623507301713
76.5075583682489
76.2239574551681
75.9113608687721
75.5903875810291
75.3435282415576
75.184870646575
75.0756150346131
74.9614043868866
74.8214252061332
74.6193861343378
74.4118515411005
74.262309025445
74.1819514124671
74.0983011958681
73.9551617618753
73.83327424388
73.7674806475269
73.6802538825074
73.6603494557755
73.6906942576653
73.7124887258675
73.7976106014629
73.8869715052956
73.8972238119761
73.8501636237855
73.7868134908163
73.705792488243
73.6014149917752
73.463546613413
73.2460637168003
72.985643376998
72.7426750814897
72.5670428102374
72.3841630040209
72.2396708266462
72.1950060520927
72.172938957871
72.1057357745254
72.0549240673412
72.0311492266056
71.9782745374845
71.8303944256749
71.6707171084374
71.4792740583389
71.2761602112014
71.0884082377714
70.8874852580468
70.7239146155952
70.6280193729359
70.5210651528712
70.4081982086372
70.2195719374533
70.0572415554288
69.9271673539333
69.7650732790569
69.6131696431448
69.5008719461452
69.374631685535
69.2148735652122
69.0226687703042
68.8944554970413
68.7503727248448
68.6086275602845
68.4565460780671
68.2856960559546
68.1321826193361
67.9742838904389
67.8081282094503
67.6882132032716
67.5240494738255
67.3547326218357
67.1913116248557
67.0079669462682
66.7805338793371
66.5602318725104
66.2867369794172
66.0098263501473
65.7945213642102
65.5815847804757
65.3110647936101
65.0630434728411
64.8683053550856
64.7574372182751
64.6559011805154
64.5323080083629
64.3537646245623
64.1599111298515
63.9395923725994
63.6948211486771
63.478923652783
63.3130728355378
63.0835970763959
62.9144997908866
62.7910976804807
62.6899908927015
62.5983897382497
62.4972094082984
62.3698348133013
62.2434703972998
62.0750256805967
61.9432091744404
61.7408363443052
61.4399057805026
61.1020626419181
60.8682751560379
60.6119434737299
60.4269507374637
60.2881518975545
60.0771738340894
59.7843172829944
60.1653326175495
60.2667635480667
59.9307658908641
59.8768411150033
59.8650406279304
59.7588957870537
59.6698817108398
59.5902165941257
59.4790769168451
59.3198980704058
