1798
3999.43349933624
650.420452594757
1
128
4
99.9063165168038
99.9567569549332
99.8455128299902
99.8365777178716
99.871429569934
99.8627262281115
99.8876713485454
99.9830195474498
99.8626621638678
99.8261377834263
99.8599396316553
99.9377221348951
99.8959138534592
99.9170657383703
99.9116907011524
99.938433661086
99.9071919982344
100.058341240466
100.066089932473
99.9308076462371
99.8892541784869
99.8897603763513
99.8140859808487
99.9934200621688
99.9710841507755
99.9521121900908
99.8853691808532
99.9243870444056
99.9152852496096
99.8926546673833
99.8976419533271
99.9348579995248
99.892031002995
99.9372700733466
99.8807323959922
100.045592920807
100.057093555831
100.03186387362
99.9915716550755
100.117774172271
100.052003579683
99.9429874917508
99.8822027265423
99.8675772442717
99.6737103779539
99.6864746018751
99.7658010239785
99.9309292282773
100.181940417834
100.40773181374
100.281444897598
100.163685341939
99.9517520165725
99.7701564051744
99.6110683921667
99.7011688514916
99.7749544749927
99.9521334408383
100.035706098361
100.121943657138
100.112128060576
99.9488685418573
99.7920598673088
99.873179567937
99.794392772178
99.8332627503857
99.9619097964308
100.134746115759
100.248623395622
100.227951344125
100.019994786367
99.9589319443489
99.8587531715175
99.8842181366509
99.8948594679609
100.164982336875
100.447090966097
100.536183522023
99.9020603784405
99.215718084477
99.1427886000454
99.5787617381698
99.8940697422346
100.121310637371
100.245507171557
100.363948139796
100.136044815618
99.8070774567039
99.6022727144112
99.7083456330475
99.7321612308259
99.7938718971557
99.9904069937663
100.138818938464
100.098357636687
100.200651683542
100.084210230116
99.7544761812428
99.4960716430062
99.5848681235246
99.7441451968653
99.9894920907916
100.158436467215
100.248659789809
100.106840566956
100.072094744417
99.8728319697352
99.5878246273787
99.4535237266782
99.5224240248296
99.5520470579194
99.680265356621
99.7946570304666
99.9112911061498
99.9355624954561
99.9760474647754
99.9386226132231
99.8764335582396
99.6806967637449
99.7463709764655
99.9137583763531
99.9994166672234
99.8875924667656
99.9243392978425
99.8651455372315
99.8265608655462
99.7098995663204
99.759087529446
99.8606084768633
100.008946492809
100.104217359025
100.277645980799
100.488310864775
100.38435197
99.9640811344163
99.7696003471701
99.4100967598808
99.104311101289
99.2942311698258
99.8237962793326
100.077376262734
99.9879516260549
99.5045284304127
99.2762366513563
99.2492843390502
99.424506416782
99.4648108478098
99.5560292513783
99.6417510480333
99.5535742327065
99.3518287763795
99.5140499705665
99.8422502406219
100.15853415148
99.8938773695199
99.4888011137434
99.2703339415869
99.2153435128348
99.1568196149336
99.3621657330267
99.3928934280757
99.3109055250933
99.3463861542283
99.5577132087144
99.6831403994784
99.6408805930344
99.3316307273498
98.9726496566587
98.7131125368506
98.7963837673857
99.0328229371256
99.3293793858466
99.4906331680357
99.4091550630174
98.9644764279368
98.6436537597443
98.2809696330843
97.8461377610988
97.633177680906
97.7560270966718
97.8790216287049
98.1108794267832
98.2685703457576
98.2565273502646
98.1404951264512
98.1698981785098
98.1280704773262
97.6428969091557
96.8392395987547
96.5331157572677
96.1668264722364
96.1780554102849
96.4349604862434
96.5398822726559
96.5262111815083
96.6544811851119
96.6554966665506
96.589326299274
96.2219000408782
95.5737517136031
95.1482066656947
95.2100032742729
95.2339489728786
95.2871615464233
95.0174589940535
94.6949321134181
94.4815218320445
94.455045271715
94.2177778255738
94.0492501650401
93.7713653966343
93.531708955273
93.4009284175381
93.3789322390694
93.2650819201656
93.1401985160186
92.9054964523331
92.8107052135254
92.6712711081071
92.6526556051577
92.349080080125
91.7924371345886
91.42724273465
91.368816047511
91.2555128752768
91.206497030675
90.9832344661915
90.9604488055389
90.8305764497372
90.8145902103087
90.7945077861209
90.5345269070573
89.9435962816837
89.5757913023009
89.2621282687926
89.1394051335941
88.9507172255077
88.8146209219103
88.7147056479604
88.6520307333426
88.4141605447184
88.2900447419225
88.0169788641149
87.6524049636966
87.3203573639694
87.1708145358185
87.0614409504691
86.9150821669827
86.6079242174072
86.5004169151702
86.3772932906152
86.2392002030806
85.9056557881382
85.6460188062714
85.3188061074403
85.0841338150812
84.8596566664635
84.7199693893586
84.4635715535194
84.304721505669
84.1611899952546
84.0869604758772
83.8408851578693
83.6006331528379
83.2524232042402
83.0001341813647
82.8328538554453
82.7285778121039
82.4782564768392
82.3877864261019
82.1491199690063
81.9245709134902
81.6594768101946
81.5018720407851
81.3309871822783
81.220467758794
80.9836093738954
80.7065757033158
80.409536814143
80.386069097736
80.2139550894214
80.0559280290435
79.8589313197326
79.6408370165372
79.4245779421213
79.3498162932843
79.1130034439942
78.8811695851398
78.7258092524433
78.6282481847711
78.4634401508002
78.4348934630986
78.2581451192694
78.1542033258726
77.8689308574731
77.7660748620159
77.55517009168
77.3664005950438
77.1404666898676
77.1075887341037
76.8900072845134
76.6071212738236
76.4241139386237
76.4180691967844
76.2785074912183
76.1345460600928
75.975513580063
75.8841837278631
75.6619752431099
75.5869393068691
75.4486238843151
75.3267396524364
75.2152985424301
75.1428330493655
74.8486451884437
74.7745155794171
74.6724573637421
74.5723104769386
74.4800582931031
74.437932360953
74.2137368058955
74.115885958852
73.9722504538093
73.903108616901
73.7439324930395
73.687702741384
73.556853459655
73.5364038951895
73.4686403003758
73.3835099333494
73.2814099080113
73.2441394589698
73.0440589893418
73.0330894250617
72.9457314166512
72.9215600116081
72.8275380112621
72.7925051071598
72.742549459128
72.6459581587204
72.4254316002311
72.3853121052816
72.3320298205196
72.3565016112728
72.2404142272205
72.2330035929082
72.2379466735573
72.2488693489917
72.1352419034545
72.1576313306159
72.1318036462758
72.0665853710108
72.0047352157982
72.1141916977672
72.1133935025674
72.1011548065297
72.0001490821873
71.9778462572684
71.8717644067894
71.865290524922
71.8863055920575
72.0038500133119
71.9583481331993
71.8933619444384
71.7602381209916
71.8079144282857
71.7792838708008
71.8099432954572
71.7849977073298
71.823818876813
71.8171069135211
71.7984477793985
71.6940846434867
71.7669850525207
71.6471308493549
71.6863190234224
71.7000909229047
71.6358130237718
71.6035846852707
71.7021555271369
71.6329344575694
71.5235134201175
71.4503499920949
71.5460977901312
71.4782739859357
71.5549119287044
71.5021042683453
71.4329716898141
71.3761659836988
71.5391193745304
71.6250035496024
71.5063658399449
71.430635104031
71.5600989049739
71.5011177925317
71.4689707936268
71.4117504866566
71.5300131561676
71.6049419349902
71.6267510737662
71.4980222689764
71.5663592841614
71.5931219415195
71.6643117716501
71.6060116488376
71.6281729445808
71.5629729530058
71.6350600153747
71.6033300869283
71.6504192159477
71.7440532518381
71.8949953939996
71.8238604185657
71.7246290153813
71.6751222811691
71.8366564569197
71.8004207788571
71.7893054055625
71.871949768198
72.0328728304956
71.976690349899
71.9762017294169
71.9356894406742
72.0003607714478
72.037672013531
72.1600697952384
72.1805130221858
72.2496760564185
72.3204969156127
72.3823596312592
72.418867771482
72.5420451468938
72.4716405854719
72.593144698212
72.7310576852063
72.7328856636208
72.7489365789918
72.8437935262476
72.7992604814392
72.9901524794046
73.1130308308338
73.1972854097852
73.2060901149277
73.2981981738332
73.353743343648
73.4518141820333
73.4339748404726
73.5161085923558
73.6494173154918
73.7842717084956
73.8054512641212
73.9694798951979
74.0637391659918
74.2421653917016
74.4327808611359
74.4644273962367
74.3491098838467
74.395439667883
74.485352196179
74.6745494481884
74.8609902835622
75.0547497559487
75.0556896035993
75.0709325661173
75.0401175188887
75.141767575367
75.1874318358562
75.3337112895938
75.4552134453247
75.5804542107595
75.7418281338655
76.0274574911067
76.1955567088681
76.3896148172491
76.4871370405716
76.4397599655766
76.386859349481
76.5363583362471
76.5302949056639
76.483321210565
76.4755972308831
76.6708509178762
76.8950297810738
77.0216923439961
77.0063967493252
77.0545050511301
77.1178890185836
77.3784173351494
77.5420229539678
77.5942355551568
77.6639207303453
77.8648103233431
77.9942038927672
78.0956403886065
78.1765006419626
78.2770889665578
78.2118800008393
78.2233978021014
78.3025137534875
78.4884958572883
78.5863060119492
78.6469962949817
78.7139541638337
78.8230276040046
78.8133045372582
78.9294249231032
79.042591779854
79.2152273098531
79.3147424373292
79.4461350511013
79.4414855612118
79.6080705118791
79.7785057590282
79.9043302040646
79.9332946095039
79.9554344617801
80.0015528678618
80.1202183056893
80.1990314704118
80.2579562707492
80.2134967800149
80.2125069346582
80.2552694407785
80.3729174701638
80.3730998296691
80.4338385201141
80.4917116560258
80.6065226205336
80.6229066922843
80.6177026048549
80.5707805604332
80.6271889498511
80.5439947035412
80.4828541770297
80.4760821541012
80.5004812294826
80.5261937589839
80.6302183374426
80.6054316810494
80.5560927689704
80.4932782166534
80.4622175652357
80.3938442539901
80.260680470135
79.9661359738679
79.8900747535441
79.8417040889095
79.6562086581231
79.3389578100314
79.071057290665
78.82541204294
78.5448356660216
78.2248494981358
78.0174345227956
77.8526130375755
77.7795139813865
77.6240056067345
77.5256128120338
77.5221458463749
77.6318370296241
77.5761892464999
77.6230040484085
77.7694170396871
77.9122461763631
78.0306292719515
78.1619683955587
78.1478581314188
78.1049177193865
77.9796254023365
77.8692669599575
77.716412744235
77.6227243463942
77.5699506132891
77.6373513773702
77.7704754283807
77.9511553027174
78.0937279506019
78.342537051754
78.5796493037247
78.8820057134886
79.2330216494892
79.6246784700758
79.9491301486864
80.3279118236297
80.6201310228245
80.8078360259665
80.9536117667247
81.1450933130573
81.3033715602749
81.5217510892971
81.7378235363295
81.9627472517572
82.1653277138991
82.3146662783743
82.3287323003144
82.4725661144324
82.5795076866934
82.6512154050575
82.7353626971884
82.7836922518948
82.6869743681247
82.6119979048317
82.608133695537
82.6960973258357
82.769506463503
82.785742547844
82.7575430799025
82.8860043187184
83.0470952904164
83.2590023893974
83.4588700592708
83.7283528796448
83.9474125561112
84.1516974153467
84.299011067559
84.4711027324027
84.5994908162745
84.7908391899327
85.0286470375667
85.183839311201
85.2465419425763
85.4087711709107
85.6294946823946
85.8867202132409
86.0494212174762
86.1628164099102
86.20534390122
86.2532908911568
86.3192418950219
86.4531279227855
86.5403700081724
86.6481176746934
86.7289542026458
86.7427889446089
86.8112764288702
86.91755590805
86.9689936122016
87.068309071515
87.215642382243
87.3398182097084
87.3252597987954
87.3064118125984
87.3192528145983
87.3749109144173
87.490494751679
87.5974250760497
87.5954896114368
87.6786701911111
87.7439918036057
87.8183770215852
87.8644786355106
87.9097373242113
87.9588422480401
87.9998881914598
88.0184375469301
88.134574790487
88.3563625091806
88.6528939367235
88.8105662568303
88.9274642244147
89.063744902944
89.2181946795967
89.3544036610512
89.4859553064559
89.571009444896
89.6461067865335
89.7277098153533
89.8135714950619
89.8305033212092
89.8842842715544
89.9568087349096
90.0521662560702
90.1397875874649
90.1822168068
90.1400233013353
90.1296138784204
90.1873747319825
90.2539104715866
90.2118673876521
90.2357680531737
90.3054818344984
90.3089968357962
90.3210032940925
90.4610286951298
90.540175903898
90.5879435571602
90.5970525818518
90.6137882962332
90.6512129972642
90.6730154267148
90.6482978710178
90.6578713127305
90.6875397897751
90.7062405808521
90.6889173325789
90.7215697020422
90.7181298513404
90.7106230133952
90.7121393266058
90.7685976759404
90.8445464723005
90.9191083109738
91.0030356540581
91.1038711811445
91.2091583519366
91.3270600244449
91.4066586696806
91.4992735016773
91.5922261092181
91.6665077490845
91.7307200316554
91.7568676170163
91.7781131295623
91.7838007145608
91.809389739192
91.830789736329
91.8530663966482
91.8973997760044
91.9085386133332
91.9385011201864
91.9787588293247
91.9951990332551
91.9939053306279
91.9942038461078
92.0514130152213
92.1743964834593
92.1968948973035
92.1790474713464
92.2341315403076
92.3265116592667
92.3981282466083
92.4094840558079
92.3618300978566
92.4265381119547
92.533430033534
92.586380926743
92.6018863014596
92.6591816883078
92.7347262579586
92.7483622683316
92.7992815106817
92.7784379628277
92.7982306845938
92.8639622419695
92.8875524038904
92.963894862442
93.0949931566176
93.1199405367899
93.0461533026955
93.0574315413262
93.1578574077421
93.2280859711597
93.2549610605163
93.2957055145899
93.3083850442976
93.3356171838785
93.3977975884176
93.4622250070645
93.4738347173232
93.4897292380006
93.4814251713597
93.4631258266403
93.4005327802497
93.4946353291848
93.6319913193497
93.6605905162657
93.6684153600981
93.6949405378465
93.7685375669816
93.8181201636734
93.8569815234194
93.8400435570252
93.8366186596968
93.8999318663754
93.8948821026799
93.8585788187456
93.8059264748258
93.831291393853
93.9037172280246
93.9733929096385
94.0236816951206
94.073079962765
94.0683416578251
94.111971567991
94.1176960661741
94.0674054694645
94.1058036608684
94.1718994400685
94.1811302578181
94.0991087558075
94.0251473687497
94.0114683254119
94.0429404038378
94.1542010807702
94.2388530180895
94.1828080889267
94.2111833217102
94.3212663129654
94.3250917996517
94.2676900661813
94.2948642790548
94.3237604610058
94.3259986302401
94.3532628076308
94.4789995425953
94.493913941864
94.4413817794073
94.4281271669675
94.4402953708724
94.3772394760728
94.4305414674063
94.5470606221793
94.5968196768427
94.5314537168228
94.4766325290819
94.5404770281654
94.6338375185693
94.6888967587421
94.6590103269804
94.5853655562654
94.6610973167431
94.8739234758509
94.8603104093547
94.7091826521224
94.6744873925634
94.7157215811271
94.8060137233405
94.8744330318228
94.9593341463441
94.9166582794024
94.8404620290177
94.8327354282408
94.8939324121648
95.002036729148
95.0488007282129
95.0597547331372
95.0305643585528
94.9672189643891
94.9342548361945
94.9924050320916
95.0470907027082
95.1256495850101
95.2057355876578
95.1901282595168
95.1484224133402
95.1659882296174
95.1831968999631
95.1814663148256
95.2115576499774
95.2459321187301
95.2310763557986
95.1940217621832
95.2670086094101
95.3048526111258
95.3551678317339
95.4101834208822
95.3525394448247
95.3147470104701
95.2936342915664
95.2404368394029
95.2612137866493
95.3033004899361
95.3327342260612
95.3505193764794
95.3248023511972
95.3483257616734
95.4332453469264
95.4214148964162
95.4590203990893
95.6214350266377
95.7608602729366
95.8368581470932
95.8981953397471
95.9932400865914
96.0493724358132
96.0620891913711
96.122327799626
96.1882608320218
96.1470798919721
95.9768418294965
95.7966715662559
95.6491686088539
95.5095452406499
95.4417637182181
95.4771428262677
95.5439729559438
95.6851785363281
95.8050026032195
95.8365805372521
95.8224010054001
95.7673384026717
95.6750630493884
95.6837639377411
95.6469189847225
95.6677531975018
95.6567243805148
95.6509505919121
95.6614648586332
95.6342335200711
95.6269853862261
95.6814037239542
95.673908066409
95.6975760336312
95.7840018742618
95.8840078969388
95.9076136038918
95.8773446335397
95.8637478531081
95.9067012770788
96.0069886614995
96.0898324130122
96.0014181038618
96.0107033743359
96.1071963374638
96.1167526399574
96.1833514493949
96.2503032329794
96.2607966692401
96.3235143776998
96.412288581959
96.5155140213232
96.5394378312208
96.5376301748728
96.5934483845938
96.7026714936147
96.801992495264
96.9200554714766
97.1775513273819
97.3776689169127
97.2687153330146
97.144315999643
97.0925972601148
97.1250028652186
97.3133978437169
97.5354202586902
97.6878937597799
97.8190434577786
97.6951329052707
97.6527252463482
97.6695177697717
97.5566824959946
97.7008587840547
97.8841842196734
97.8464521496237
97.8936923645826
97.9234081468865
97.9225170077075
98.102159231348
98.5155348688476
98.5819351346031
98.6376033031311
98.4021688739729
98.3619864124152
98.4876431617275
98.8194602115723
99.0720846437283
99.2868557967564
99.1764220639434
98.8774346921548
98.8709492260226
99.1393424380776
99.0703117064664
99.147474236422
99.1453046916199
99.2522095560307
99.3141184395846
99.1655512389229
99.2246389646362
99.4992524195748
99.6322935566611
99.8508881332369
100.045865939629
99.9421347655149
99.8888122331728
100.279433303656
100.428895924541
100.363114841651
100.467028691396
100.550337520305
100.194065097383
99.9584723333095
100.058905043033
100.506414769366
101.021570792596
101.553580356118
101.57529070808
101.514028238788
101.838680575423
101.792059446315
100.944705135162
100.372401510583
100.141064912867
100.066585346978
99.6542257880523
99.8143565671731
99.9735998833677
99.9155418543922
99.7794038738999
99.3989862348274
99.0325483358645
98.8761841808387
98.6656110576589
98.4588092518662
98.2883797519093
98.339042299383
98.4036867684143
98.4301636099293
98.1279493282525
97.9388613992585
97.8460779396135
98.1120820443756
98.2149994041706
98.1345450940337
98.0884278335043
98.1837111533339
98.2949708973353
98.3431124047746
98.2961160573453
98.4919896993466
98.5848715380863
98.34924668043
98.2176449046915
98.3960990371781
98.3007991055404
98.2341147702094
98.3096991896736
98.4013330050657
98.3692110114727
98.5609237886279
98.5131480800373
98.4664630707407
98.5437168058642
98.6850725973678
98.6960119096761
98.8422440669289
98.8158705085526
98.8348425856564
98.8924554622002
98.995197667782
98.8946579657427
98.9645180583387
99.0811578219483
99.3891519482608
99.6005946253935
99.7045931243392
99.8869321142333
100.265759071048
100.497145637568
100.704941241526
100.849382017012
101.152084879751
101.052670486312
100.896098956077
100.962480083197
101.408661271116
101.312254278416
101.077845599682
101.316159351408
101.71298845069
101.474221197995
101.254209394429
101.22278826941
101.119252947748
101.084831915439
101.238827139867
101.088297266804
100.993775139199
100.941608115448
100.836067479214
100.584835230853
100.504983639681
100.25269824487
100.048918981949
99.7693985771911
99.7119443383814
99.8916846315589
100.360630899436
100.368856499468
99.9463836251746
99.6065955250695
100.039016444927
100.129357653405
100.275289840824
100.437231820641
100.717560658144
100.776109089195
100.732599082878
100.548339209449
100.440911617876
100.318407194317
100.252281362916
99.7346845165969
99.695758939425
99.3886827467426
99.1879326318848
99.2227452267839
98.9490124914303
98.7831860620446
98.8498554607059
98.584335502927
98.5138791750898
98.5680420069637
98.5132181486699
98.2649986494042
98.1456696948353
98.0132007518003
97.9091462253898
97.6664163712837
97.6120260762406
97.5975233564589
97.655678602433
97.5020976621829
97.4785907325363
97.5244618398814
97.4819819927123
97.3032937990952
97.4035051024889
97.2514174467277
97.1153362615116
96.9789256313237
96.9189053726752
97.0293110191004
97.1346093536464
96.9037217026206
96.7763716575833
96.8118116372184
96.8823123780364
96.9105862266732
96.918836557652
96.7626220759455
96.7246214238703
96.6495314921619
96.6269858202031
96.5349019856513
96.4768443546169
96.4474696702554
96.4961400655678
96.440114646535
96.4714862335049
96.5510010486258
96.6139045121863
96.5804833903345
96.5894660242648
96.4976901062481
96.3812443088634
96.2232559241662
96.1902080997434
96.167849504268
96.2190832135767
96.2240712478819
96.1807162781286
96.1375177370951
96.1890041625617
96.2087816198796
96.2842214167083
96.2299304472734
96.111281495768
95.8814782587735
95.7934754178617
95.7521308410691
95.8461751629069
95.8974619211791
95.8990381279635
95.8799538972282
95.8436113148662
95.712573478539
95.6238994681724
95.532592326807
95.4927029382654
95.5049685555685
95.4999748532338
95.5185946902214
95.4958779082208
95.4159460551325
95.388719513441
95.3370393875276
95.3010988165707
95.2786671031456
95.3041577862457
95.2439830414457
95.2102996449066
95.1343970291232
95.0612583251976
95.0308809076445
94.9622785389139
94.7998377270204
94.7486880081389
94.7263663727387
94.695838907285
94.6313050486269
94.548386398312
94.4827643451228
94.452270887746
94.4379200821457
94.4157654800859
94.175733351237
93.941400177589
93.7336822804739
93.623882998418
93.5828524249725
93.5143665374692
93.321713614105
93.212622778439
93.0482790104145
92.9697102674137
92.8851214861539
92.6930315241838
92.3921815693501
92.0811452491686
91.7535595638124
91.5539950264726
91.3476439146721
91.1342504865533
90.8538489614557
90.6813416008812
90.3051998511223
89.8504787022206
89.4979583370104
89.2792784533251
89.0508840151736
88.8938294422008
88.6768982255811
88.5096398413501
88.2412989208167
87.8404332007237
87.172723300056
86.5925510450769
86.139083530627
85.7807192264397
85.4180070684299
84.992213962818
84.3511288006726
83.8456639255992
83.2104429598847
82.244009803049
81.3467593336098
80.3692514873139
79.5107447505742
78.9587495262845
78.2513196723776
77.5315737901621
76.8481086332767
75.8978871891387
75.0333128206188
74.4363896497278
73.8516286120468
73.3457409485069
72.8139009559348
72.3905580329715
71.9282052146579
71.4669861030606
71.1755854417398
70.9292666967503
70.5073840295926
70.1158516373645
69.8993983813139
69.6252770714576
69.1994275084574
68.6386582881581
67.8606413912156
67.5679003062621
67.0975006526122
66.3469469589746
65.9234052179357
65.8364254954371
65.6212056056653
65.4096284802534
65.0988431483451
64.6702271506918
64.4055304086995
64.1625888511488
63.6959814726574
63.0995361824435
62.4083738808572
61.7205042589039
60.8660950557171
60.0927540152127
59.264739927215
58.2682197935162
57.2291938586517
56.4289502192126
55.4360232897531
54.3811554267743
53.230690451325
52.10760693765
50.9085700985267
49.7342479829746
48.471500872241
47.2464909141703
45.9649293600922
44.6761219580127
43.2470064050825
41.8584522533845
40.308825918906
38.7496701359064
37.046927404944
35.2743989848159
33.29951150751
31.3210607007249
29.3057374210246
27.0586493428088
24.5906010454126
22.8706235756592
21.2858819949017
20.0289300661254
19.2786808996038
18.9945259905077
18.9280860078774
18.8901301197697
18.6347058855882
20.4796616390653
22.1710115141209
23.5383376499251
24.9402809669049
26.4135174315574
28.3083622878172
29.8924844827082
31.3153752971213
32.9398673305328
34.3609681326376
37.7684722887085
40.9781979866157
42.0250957539554
43.1498634847635
45.6802420099708
47.4136117280934
48.6080123185608
50.0864924304726
51.674632863009
52.5178803215598
54.3192554473044
56.0615317000165
56.9823203321384
58.3139309731967
59.214078403862
59.7752604875349
59.9231263533198
59.7551819370444
61.557903549798
63.169207808253
63.2585154538135
62.8891161855575
62.5810580131304
62.5286432969118
62.6624154642588
62.3702892407673
61.6652833158005
61.442053096608
61.6603742485774
61.7872750391708
61.7317185386224
61.6668770938766
61.6956971398748
61.4765053160501
61.0008047099899
60.4046631143401
59.793170727318
59.3835672901979
58.6675677999269
57.7265883083595
57.0146329222328
56.7915338671609
56.4308459200867
55.8011299141089
55.1126895737305
54.9717262379273
54.4406444044346
53.5082584720719
52.5496424733522
51.6801620797072
50.9096502187057
50.131397700151
49.1453311005209
48.05890968377
46.918621196267
45.6747834817439
44.7271380530462
43.8466904151743
42.7851752307554
41.678317363557
40.6173982201213
39.4467766124534
38.1388649079141
36.9023830793482
35.5450196012169
34.0944580245455
32.8815317359956
31.575604386995
30.2251614224688
29.0047517665425
28.0805173433716
27.439217047087
27.218877815711
27.4265797553478
27.7520064226109
28.1993973041817
28.9652006147454
29.7014808603748
30.7739728389099
31.7698102617198
32.4265849133349
32.983922165705
33.9037136860659
34.7857939158217
35.3878905973926
35.9120288290149
36.4092771676482
36.7695703070566
36.937502618245
37.2520868456273
37.5613411876758
37.5989654484726
37.6304157309531
37.6677591353914
37.6876928472104
38.096699198075
38.8007624571862
39.2316294204189
39.4848234999987
39.7874395879038
40.1900341072123
40.5953314880593
41.0541397362478
41.5819405673724
42.0996715760726
42.5477411474247
42.7372813614331
42.6999476224255
42.9430521198532
43.4729361171839
44.088659718602
44.8222756139747
45.7782861708514
46.8261191250369
47.8181387471641
48.6692473327519
49.3636053317305
49.867069656351
50.2825466338832
50.6599552169482
50.9385583330184
51.1198185636467
51.3222198733029
51.4894372633809
51.613873489322
51.7339984428541
51.8503958627324
51.9626605953495
52.0897758037785
52.2568792396681
52.5614244289402
53.0585383253877
53.6412959406646
54.2753049491556
55.0622671541302
55.9700069141516
56.9038402347021
57.7811048216463
58.6178857640546
59.3949094128289
60.0887285936794
60.7003006631239
61.2594646763372
61.7319243324179
62.1530504339247
62.5510184028598
62.9503830707081
63.3243644805397
63.6855076026452
64.0722677888915
64.5082977514892
64.9413667492837
65.3365169448231
65.6817885822114
66.0225897717642
66.3459406277009
66.5961474219866
66.8042306654078
66.9948458311139
67.1382032647496
67.2765380664323
67.4570101021283
67.661601028369
67.8596779907947
68.0797687499134
68.276856688987
68.4045848618431
68.4752647309965
68.4948899984538
68.4830720080254
68.5366215980155
68.6616064598979
68.8159686612289
68.9883006946035
69.1730102006252
69.3496980003578
69.5428450295741
69.7005478557128
69.8085014660762
69.8984489805666
69.9691888036494
70.0254341939692
70.0749297107804
70.0987579061069
70.0990821426477
70.0491863090657
69.9327663026019
69.7561002517337
69.603868924559
69.516752270955
69.4936227004028
69.4586995941055
69.3691339173329
69.2302352231653
69.0426829902124
68.7798423112469
68.4459116450333
68.0578558871617
67.6919579297633
67.3709734131765
67.0745998993723
66.7505580681316
66.335506752286
65.737218185167
64.972122492757
64.2431630499873
63.834820396706
63.7518015581993
63.7373130687298
63.6306385134459
63.3895218244177
63.0061122056298
62.5675385180769
62.1276117648503
61.7015064747227
61.3275424727674
61.0408752490107
60.7611230473143
60.483692742748
60.2034222499174
59.9200302118953
59.6423753535077
59.3871871829387
59.1765564728091
59.0442008300131
58.9567103905276
58.9287917857526
58.9404180412261
59.0238415020425
59.1408058235096
59.2680430486464
59.4085894631927
59.5707777603522
59.7177748126083
59.8300771097045
59.9099861834336
59.9726056694093
59.9686568541987
59.9126898680591
59.7955461168586
59.6560965232132
59.4800707037704
59.2759081129563
59.0554764452697
58.8326286319989
58.6200834220202
58.3809586480205
58.1215669080213
57.8882557309434
57.7165493794534
57.5709994795716
57.4045659453839
57.2598897689087
57.131766796538
57.0351563522983
56.9573040347538
56.8698879016557
56.7670209025407
56.6401901867812
56.4386423834924
56.1346011066581
55.7296004793526
55.3253878085131
54.9768170444908
54.7972434445094
54.871112619333
55.2138558925488
55.7495418196362
56.4461655671937
57.1748800092198
57.7892267626475
58.2703870443623
58.6324656170617
58.8414435417643
58.9042132683901
58.8061252030779
58.5545872794823
58.192450117417
57.7919571733265
57.3983999721993
57.1173932823626
56.9520745034499
56.9052467328901
57.0450014501627
57.4166205153749
57.9981197379661
58.7230752011237
59.5001971931659
60.2168491688681
60.8131815082562
61.3162309647578
61.7123285972447
61.9614449827977
62.1037913025439
62.2128652024035
62.3265160474792
62.5050881633043
62.7319547129248
63.0254713750844
63.4007589405526
63.841289529359
64.3163770018577
64.867186564448
65.4744330355852
66.0798054081546
66.6200726126578
67.1323195743117
67.5625266566234
67.965009745602
68.3428042124101
68.7176438107828
69.1009530032436
69.4354351169186
69.7533252582436
70.0364693138526
70.2609320260622
70.4322054901529
70.5484120228096
70.5954463238519
70.6035816088163
70.6113449600456
70.6143969870561
70.6037446601029
70.4608278514431
70.2238147379513
69.8722321501315
69.2840824336083
68.2926341726884
66.9137980605601
65.5754329201317
65.0929218324225
65.6964993381983
66.9093492532492
68.2078644686541
69.3559638990683
70.3303761381057
71.1246280597556
71.6741953366759
72.0938076297979
72.4833219063227
72.815138149954
73.0426467618302
73.2089943110839
73.2905074578804
73.3029490933861
73.2847154355531
73.2405489433463
73.1838868692794
73.0707123419057
72.7431938319538
72.1299429764504
71.0362993955043
69.5051389774766
68.0113398730057
66.9573955429472
66.4293904583944
66.7901354944052
67.8590444766698
68.7734102019101
69.2496634579989
69.4803988214486
69.5040508639299
69.4250371135774
69.2931765639982
69.1067751526022
68.7694293530507
68.2485921953442
67.5771980995381
66.7333663755282
65.8101721030305
65.015824721838
64.2827605389728
63.5049434188712
62.6854564604999
62.0445537653939
61.5488603967302
61.0081808404562
60.4037573930271
59.9226992034382
59.8997993147458
60.4672989468457
61.3526923509479
62.1372746669308
62.6780985899674
63.1251983099477
63.4612184085999
63.6932022350455
63.8633728988838
64.0322810634158
64.1931591453832
64.3398125889809
64.4679205627167
64.5383595042159
64.5559769396697
64.5908836078145
64.5886001535778
64.6040416390875
64.5496574033304
64.4500972610128
64.2931710711976
64.121869441527
63.9364975269027
63.7086223599307
63.4492706053714
63.2907124006336
62.980226313906
61.9167988498202
60.5950332574392
60.2968325378682
60.5664701440606
60.7169516911026
60.6711640451043
60.4595369322737
59.8184879148478
58.6674116070382
57.8323955217741
58.0913561182505
58.8136780658904
59.3649817804967
59.7171992934769
59.9687857082429
60.1457496489911
60.2941361282075
60.3646566617691
60.4062324281096
60.4387580188886
60.4472550560887
60.4025883854909
60.3848508394742
60.3318694683076
60.2160933725964
60.053666645549
59.9378298121126
59.7936084810982
59.6636052901303
59.5372276965543
59.4290412141299
59.2814915795251
59.1907441794121
59.1009959967571
59.0094445407343
58.9279251960753
58.8374526653771
58.6641550745384
58.4214188130622
57.9470460562877
57.2850972904879
56.495781976216
55.5794148418577
54.6985091208267
54.0989940798303
53.8493624703805
53.8036265657097
53.682809019212
53.4860031076739
53.1377846817833
52.6936698686312
52.2595680815493
51.9138986034632
51.6006857998598
51.3629987683123
51.1540037713763
51.0143398050262
50.8905354888765
50.8388939668136
50.66503627852
50.3648465130837
49.9888077542688
50.2257141278904
50.2300722340115
49.8544662304407
49.3448054422777
48.7030684024471
47.884709060682
46.9888650121221
45.9319378985659
44.5058744343594
42.5886998615302
