1798
3999.43349933624
650.420452594757
1
128
4
99.7038555171614
99.7309424896878
99.7146130519408
99.7753812372198
99.7721450061186
99.744980872005
99.6733211010974
99.6574359334851
99.5668343354154
99.6064101856666
99.618730780098
99.6822760400413
99.680553842739
99.6436965075389
99.5644711129439
99.6492383453029
99.7052613806666
99.7324209203496
99.6464891994921
99.6288604301514
99.6033700470908
99.6187999206231
99.7124724957307
99.8075920134889
99.7182468387715
99.7163623636116
99.8195277862811
99.8256340702504
99.6472564535014
99.6322710736253
99.6485584073638
99.7551023426981
99.6894324484632
99.5980542844464
99.6285978831976
99.7928087850401
99.7202095399381
99.6918335500469
99.7088958918781
99.7319403662305
99.7494131773419
99.8195887356004
99.7048079784162
99.591061308748
99.5942707465498
99.6627464877485
99.6591208311863
99.8066501074297
99.8169501862387
99.8386530094873
99.9154903645826
99.8866204333023
99.7490382843973
99.6734448790435
99.6141060023905
99.6990831525711
99.7072556927343
99.7851641243164
99.8441623966789
99.8820342099483
99.8160317481898
99.7810036569845
99.6510280718395
99.5967826554112
99.5864130083993
99.7044762611194
99.8680001019533
99.971450273254
99.8973838719553
99.8793592919575
99.7858013571015
99.803619680866
99.6894218038252
99.6389060702563
99.7628263800859
99.8778890108414
99.8412584430119
99.9242379978619
99.7689143413365
99.4200610695349
99.2951404208556
99.3528702196687
99.6241016922204
99.9633938136039
99.9604023490895
99.8415162940014
99.6527361286066
99.7624804423694
99.6609848629469
99.5187149904095
99.5714528373278
99.6933291752032
99.7067264151887
99.8482572197627
99.8765616876703
99.8174365149481
99.6995535071434
99.6159218059448
99.4660397208531
99.4617918600778
99.5871869426436
99.7656943156872
99.7750673003347
99.8605751507792
99.8522944076343
99.822247234642
99.6618897115996
99.6315465137554
99.5525204774392
99.4010803959131
99.4234729204101
99.5753604510444
99.6246182414648
99.6839124616341
99.6294527410367
99.6574500884598
99.650381707623
99.6277689261836
99.6478628358068
99.654518835264
99.5986482972528
99.6724305599584
99.7375159497456
99.7288014504307
99.5814488646351
99.6105111341155
99.549849701984
99.4633486056456
99.4495408527997
99.6887906143401
99.7819990119154
99.7799765063553
99.887644800884
99.9313802388667
99.5065070401003
99.4713866455119
99.4047297841182
99.4003712785772
99.4418384669376
99.6621081738252
99.6944777178406
99.4833301484087
99.2325953359815
99.24611272457
99.186803194875
99.2734330590714
99.3608227917604
99.3986689343663
99.3415421929418
99.3312466943926
99.3829034307419
99.4802881959264
99.5656747774175
99.6416009011809
99.4170074691973
99.2363509042155
99.1045496489994
99.0905599092399
99.115934825709
99.1542178535147
99.1630057831184
99.2376988218712
99.2335273188951
99.3060747314391
99.2634641408028
99.1331056650579
98.8198897677609
98.6807995852775
98.606551716713
98.6708532481516
98.7761296487732
98.9464972012208
98.9834179661215
98.9141117536432
98.6499573617994
98.3488956986944
97.8559649849244
97.6054048431471
97.5116115030121
97.6486240987381
97.6750706211159
97.7408291046392
97.7139071473635
97.6681715800505
97.5742299322377
97.642368274896
97.439809482491
97.1714748595849
96.7243945519155
96.2861660861757
96.0788025180053
96.1513965279382
96.0555213458661
96.0767231640716
95.9439905513409
95.7922925293081
95.6447362419311
95.6735568036504
95.3660087230215
95.0159428248569
94.8321912346013
94.746530563099
94.5498053901785
94.2908604506727
93.9626498775775
93.943618215125
93.8473604727057
93.7583757529974
93.4607313522565
93.3331406401278
93.0481673828726
92.8933171308621
92.7897352850759
92.6685240163151
92.3666936522862
92.1224836722698
91.9434003813036
91.9084392105817
91.7294940297119
91.5313295005201
91.2475614232504
91.0034829344151
90.6910009750735
90.5092334987013
90.3529221431293
90.280170566074
90.1305237794853
90.0249130913649
89.7724062941422
89.5943400652909
89.4388568793355
89.1599352047489
88.7063942650861
88.4941158582098
88.2721873669848
88.2335185187375
88.0233557863088
87.8298066014207
87.4931839150788
87.414407655908
87.3184365643475
87.1318376137896
86.8110694310984
86.5376309335104
86.2848136337336
86.1021852880863
85.7322189021794
85.5245167910126
85.3436609591543
85.2452309456024
84.995992313878
84.7016230204502
84.5299155672797
84.3844669894819
83.9820891100771
83.7514515335974
83.6344374790559
83.4471462602271
83.1420980560891
82.9942269578501
82.6885829751524
82.4568798496889
82.2178223484388
82.0882312172143
81.8711151384043
81.5964736180341
81.2678586585598
81.1231880923008
80.9201140768488
80.7533990252895
80.5043185671294
80.3994790880584
80.2301570086078
80.0072124041907
79.6916288178276
79.5498475757825
79.2706616483715
79.0309905215336
78.8613415109278
78.7461960528757
78.5671666609601
78.4501565332141
78.2895647373068
77.9716031197026
77.618858594082
77.5362598014983
77.3706987267662
77.2548472490948
77.0731906116877
76.9728285233519
76.7334870416052
76.5357660193081
76.2288819145168
76.0813068779807
75.8609542149415
75.730699346731
75.6292125714577
75.6055425507315
75.409606570578
75.2826730576432
74.9969389517262
74.8409675149623
74.6890791173214
74.5278727086428
74.3535778555869
74.2648586587481
74.0726336229301
73.9889081946513
73.7394954996556
73.6299211063287
73.5118717234562
73.4590817013982
73.2597262433142
73.1211143751749
73.0081047493849
72.9535350428485
72.7886003706517
72.6996382079217
72.4804311929013
72.3841993860761
72.301737321716
72.2791107170714
72.0514265992135
71.9512912640003
71.8529780320985
71.7347429320439
71.6071936067426
71.6184519305813
71.4511411242744
71.3958516220327
71.3049558978996
71.2689228547835
71.1762056759079
71.184349686537
71.0917142515565
71.0533527865362
70.8765269630502
70.7772179780198
70.6775640878893
70.7469831785545
70.6242657497191
70.5515920657432
70.473225544013
70.4345446532217
70.3278028220074
70.3204844963187
70.3193044127191
70.4300665301551
70.3410095618698
70.3526202338221
70.2307427810775
70.1044473417874
70.0682530852346
70.2187437720872
70.1757401911086
70.1418705472524
70.055212005192
70.1414200529192
70.0650304997781
69.9860750873286
70.0038941312985
70.081284752365
70.0359092312723
70.0154833812338
69.957037168206
69.9811794626365
69.9508185441885
70.0296036466395
69.9337228109323
69.9097104293547
69.8894105965863
69.8532140937113
69.8089401794536
69.9172038232097
69.9522996231237
69.997374449813
69.9093511027309
69.8932915463416
69.8125057685739
69.8299271015045
69.766662403569
69.766982831184
69.6983662470085
69.6840454105241
69.6684518916565
69.7168169905043
69.6979334727733
69.7331634425048
69.7000573512659
69.8112904840235
69.7895414743446
69.8494817250915
69.840476549048
69.7736901541455
69.6216932725802
69.7219220222934
69.7161411885343
69.7255108884729
69.6717989711014
69.7148280815498
69.7034461756495
69.7925453254528
69.8398278046202
69.9260998493276
69.7936553345749
69.8104712145182
69.8491594117007
69.9211922088522
69.9480596276812
70.0631838315357
70.0466144700618
70.0700901850411
70.019677865643
70.0720311850808
70.0444825869676
70.1308592050497
70.1769871637032
70.2845082612932
70.2073093528434
70.1901344687355
70.2822484685623
70.47097687324
70.4659294822221
70.4656826464394
70.463547244979
70.5033760776895
70.5173677666642
70.6954536084199
70.6989852839189
70.7854690490351
70.8069909267517
70.9246451190781
70.9427648997988
70.9937080711725
71.0609767450484
71.1998999580703
71.1946008830351
71.2734210611486
71.3722681337886
71.5038224784628
71.4537000729343
71.5865532260052
71.6928132252498
71.8209485328928
71.8194036953489
71.900277832581
71.9414737215176
72.1060440846719
72.1320850775432
72.15818682715
72.283574219629
72.5302820411036
72.5928440120447
72.8216358095014
73.0954958472049
73.148084527799
72.9700542132556
73.0185678168733
73.1267575775794
73.2599763325998
73.3595195184
73.6488684653611
73.7474379037559
73.7263950582696
73.6857983190575
73.8564867226249
73.9911765515773
74.0683963977271
74.0559540470138
74.148789003766
74.2709128893139
74.5932268839511
74.8509066728832
75.0282297974962
75.0884704603876
75.1220885858972
75.0777054317811
75.1898714745428
75.2853839994051
75.3846275458436
75.4050547820534
75.5159283137428
75.6585939288804
75.7935960654691
75.751897261744
75.8085462905207
75.9528003749235
76.2590810833554
76.4216788456201
76.4850694409439
76.5741253220778
76.7578835651996
76.8549885817697
77.0297006456464
77.1679534507358
77.2340262812772
77.1851602315281
77.2572691254411
77.2657757982096
77.3861346868187
77.5552007168277
77.6407285256954
77.68260226939
77.8293574829442
77.9009678704716
78.0438526640518
78.1419932584618
78.231349678651
78.3334279462758
78.5760280620108
78.6522279910991
78.7468061814786
78.8455643377074
78.9877156008654
78.9769027090576
78.982021101253
79.1022439950076
79.284736463326
79.3985865234831
79.4330109209494
79.4051317430485
79.459781569145
79.4924425890987
79.5968540623952
79.6450378581961
79.7026493892054
79.758684667097
79.8624183532178
79.903674662012
79.9454375753837
79.9226406375007
79.8954416198545
79.8429682687215
79.8767492177711
79.9149624886136
79.9142688797641
79.8502685149511
79.8708211730855
79.9102771725447
79.9935670521719
80.0315784569785
79.9976363964502
79.7456156988721
79.6164195387123
79.5292490840186
79.4183333129507
79.2315898862169
79.0979567530225
78.7993886218241
78.5572016424349
78.3201198476515
78.1342849230753
77.8815432039542
77.6512120982504
77.4380376661522
77.3822629348274
77.2860135841842
77.2631586167498
77.2769345304687
77.2961371329014
77.2228958992876
77.3852990099653
77.5664608136204
77.6893574407597
77.7375716221827
77.8503310108552
77.9213289999311
77.9113227273099
77.7989402386848
77.7031245805113
77.5413508339188
77.4807370585748
77.4661956539473
77.5826389354267
77.7261073542283
77.9227641776146
78.1211651380377
78.3751665530967
78.5907810126897
78.9423567823678
79.266761821132
79.6342437283114
79.9837219827383
80.3507308363681
80.5951950995596
80.7674946010676
80.9020990294889
81.1057605223438
81.2926772129877
81.4992019994173
81.6650387082338
81.9282794145406
82.123616984311
82.2850956315317
82.4195189242064
82.5533949865624
82.6093108228105
82.7353963855407
82.8044532079091
82.8212134047413
82.7342423728478
82.6814054690072
82.6542405829982
82.7214389766479
82.794941462975
82.8600543041728
82.8956689141236
83.037568872649
83.1958024096004
83.3699956472545
83.5738711496828
83.8388938005309
84.0473909103401
84.2210580661577
84.4198386385964
84.6394698946006
84.7592234321802
84.9138656640159
85.0865336869179
85.2462886564402
85.3718862923829
85.5769057435423
85.8087319195883
86.0384313575538
86.166709869324
86.2626981063347
86.3306683981419
86.422163182786
86.4649915300592
86.5068247635255
86.5693301416715
86.6917681373089
86.8119170109365
86.9184889663034
86.938102131671
86.9683780894717
87.0538662535946
87.1809063834041
87.2681551450687
87.3181865902503
87.3347259493378
87.390510497282
87.4218620539521
87.4867520541757
87.5977481180185
87.6947027718124
87.7222726955208
87.7941271019858
87.8527115990252
87.9740626798319
88.0852387574032
88.113475703508
88.1394247268034
88.243104185004
88.3156635568019
88.3924471553448
88.5682662612866
88.8259232833895
89.0351135288097
89.2120485998433
89.3102019754219
89.4106220412902
89.593525297297
89.7445889557078
89.7194179916857
89.7843066809672
89.9148278749736
89.9840106315446
90.0106631877061
90.0803890236236
90.162457722831
90.2828315945326
90.3447634113116
90.3514458369861
90.3544797651689
90.3450335242398
90.2739379194076
90.3652870072275
90.4627200400211
90.4948824403017
90.5197186925375
90.5069300321007
90.5397813665973
90.6385265093886
90.7028754186926
90.8031440397448
90.8577395161141
90.8902560060419
90.8678372085088
90.8466862502748
90.836824646093
90.8926732422923
90.9088250283193
90.9273639040865
90.9544067685309
90.9407500740499
90.9268813139313
90.9278708176516
90.9556668031584
91.0450807449326
91.1210973240381
91.2087375490072
91.3510590271381
91.4996188156003
91.5826889300928
91.6391251531787
91.6862055690202
91.7962069691642
91.9208602044041
92.0045421771992
92.0464926301136
92.077309390705
92.0934516051153
92.1145568529011
92.112999856705
92.1334303251763
92.1424816304022
92.1524232492053
92.1946278775182
92.2363406425192
92.2518411472956
92.3045029067791
92.303840157605
92.3527257652865
92.3909004856014
92.3762215655666
92.3671266410919
92.428766466377
92.4710777399
92.5376758287958
92.6139565681935
92.6982911731876
92.7325693458815
92.7361861207853
92.7404204923713
92.8134676674205
92.8886004706889
92.910299780925
92.9795901232884
93.0377329980439
93.0959601660916
93.1113167191385
93.0601358724665
93.1576548439761
93.2431509831142
93.2566660702529
93.2313633047434
93.2511275876583
93.3266075747303
93.3935133157748
93.4165835940075
93.4420686138813
93.44442663256
93.5234857607069
93.6161422785229
93.6091226378639
93.5821535088044
93.5757273711949
93.6933820130482
93.8392435301461
93.8535404156976
93.8296950330295
93.8405205293334
93.89762707249
93.9125199486494
93.9264902584709
93.9248400739613
94.0507634862189
94.1432991909531
94.1052749607111
94.0928165949937
94.1639233530653
94.2220507217847
94.166775368346
94.1315957023323
94.223894514685
94.256859708209
94.24973453152
94.2489503015709
94.2305731444284
94.203621661185
94.3110819316649
94.2978991989599
94.3280982789451
94.3346036234635
94.3571418290101
94.4138334036724
94.4441499432
94.4754400367722
94.4840666720097
94.4423035427909
94.4452469058174
94.476166424158
94.463142597442
94.4924120537617
94.5225807034319
94.5306159059681
94.5420848669318
94.5288041102448
94.5811016759983
94.606825346652
94.6614972180221
94.652266684202
94.5823536009109
94.595756176296
94.6859669480617
94.7295228792223
94.7103963879351
94.7619311004421
94.7404897591652
94.729958420987
94.7570312091133
94.7914173134429
94.8296379390676
94.9077458853069
94.9195318955992
94.7936808664428
94.8037135699149
94.9357938783732
94.9959836695729
95.0232898642962
95.0448790065144
94.9930587765574
94.9460508432578
94.9761881448642
95.119587640077
95.1648930745122
95.0533562241794
95.1247239007469
95.1980704757998
95.1483142388557
95.1771642757124
95.2693673437498
95.3302626746211
95.2212772365755
95.1289036155292
95.1174423029874
95.1610546232797
95.2544625724884
95.2793526948105
95.2846103098925
95.3803466329283
95.4539855783285
95.4306030748302
95.4287803125693
95.4766129833927
95.4875838897219
95.5209510636796
95.4602387623357
95.4477001251708
95.5187615137006
95.5306437048045
95.5564612618113
95.549196726004
95.5742925083919
95.6305373490571
95.6741255287442
95.6873208201279
95.639904350462
95.642483913078
95.6070685084221
95.5759312112766
95.6601417006622
95.6740050919483
95.6498877662403
95.6433236107748
95.6342802987766
95.6380419693313
95.7698765461966
95.829746271549
95.8208531392613
95.8902313423109
95.9210232373595
95.9937426718619
96.0834843047186
96.1081061931079
96.1142480485856
96.1155371656251
96.138837532676
96.049019724061
95.9236044731732
95.8731861634122
95.8911910169892
95.8151645493281
95.71102404481
95.7094944678225
95.7870186399902
95.8930925917605
95.909629040107
95.914599023166
95.9186587665789
95.9437355595098
95.9621802098139
95.9145395172896
95.8953203145313
95.8301642667206
95.7621086034229
95.8136611399991
95.7388842629895
95.6568167747833
95.6771276421618
95.7524008391645
95.8987499468284
95.988230375553
95.968127620024
95.9624366087995
95.9699109707723
95.9968549639879
96.0857981081509
96.103663381915
96.0800621383292
96.0801604697358
96.1181591136635
96.1859629362613
96.1954817406251
96.2451357461611
96.2674668060654
96.1968084534258
96.2838734968121
96.4076392268865
96.4949897713975
96.564850080063
96.511503313677
96.6091066997137
96.8713474214056
96.9278589674686
96.9038219445285
96.9536428287914
97.0435704491417
97.0747011197962
97.1433194871039
97.1913697068017
97.346044490243
97.402395063673
97.3898144962188
97.4909630487845
97.6341405227556
97.7420703294502
97.8262132352337
97.9280596181914
98.0035789330427
97.9494509291605
97.7435061542468
97.6426267925309
97.934515746229
98.1697135526633
98.0609169680055
98.1182407003293
98.3883044658924
98.2338930205208
98.1475496687281
98.2765673540239
98.3847917891675
98.4888567988335
98.8028047793116
98.6871981627689
98.6518142985887
98.6219481285555
98.6349295342579
98.7403544200282
98.9842555602299
99.0391613916328
98.8416483657042
98.6923816579589
98.8271293082655
99.1523803769427
99.2704061693473
99.3330125971702
99.512132319007
99.4524974833685
99.6518723590604
99.7223490285756
99.8681304424655
100.009490420396
100.111332349112
99.9332247052904
100.018085980218
100.049632789887
100.043114579787
100.353360048227
100.364941276086
100.236577663552
100.519618868224
100.744266939735
101.079785780395
101.154558205781
101.239389156345
101.322737162677
101.712989887187
101.35552758843
100.465474490863
100.150072389999
100.229526680267
100.016094258447
99.9190715342751
99.948600317603
99.609584798429
99.4017477889626
99.4407269742855
99.3084243449141
99.2326661560745
98.9739042768455
98.823221652954
98.5954609525327
98.3656608198007
98.179669789288
98.0855884857847
97.9768985152353
98.0533420253396
98.2125633017531
98.213818140341
98.155408950466
98.2728950051354
98.1601722533539
98.1934853036504
98.2650500448112
98.2215275942031
98.0664587957566
98.1364243826056
98.2391219936744
98.3922342127558
98.5443907896679
98.4846702432137
98.4697403897619
98.5145935218355
98.4569772492218
98.3888469672007
98.4047929851009
98.4376005213674
98.4727874844068
98.6058150750219
98.656851610586
98.6902457935446
98.6016024257217
98.5946413972662
98.6506651183169
98.9465016680332
99.1011975631106
99.047351983022
99.0145442559217
99.2284736771791
99.2238020532362
99.2730974103922
99.424046103878
99.5981735778144
99.5025165681035
99.8975226062181
100.329882542956
100.582607175076
100.781208817226
100.906747045454
100.926106369463
101.33591698212
101.323887703921
101.20199312842
101.325058845661
101.479356592644
101.354841433583
101.612963012788
101.616027269606
101.546617012912
101.537467495441
101.540049405367
101.216810730458
100.912290337299
100.785959686212
101.019014975491
100.74196799379
100.892607243168
100.790511690627
100.423301263966
100.311855514262
99.966326168728
99.7538406205077
100.267790623493
100.209619314775
99.9345299655264
99.8608139642625
99.8953959696244
99.8834830172262
100.134651642115
100.25285320623
100.446907785794
100.652693084377
100.859078863926
100.95057635763
101.001787893435
100.7738320183
100.728203372646
100.680665727917
100.521554212216
100.16518284928
99.7482089693409
99.2852251719391
99.2498955348998
99.0074701007764
99.0158624040967
99.0442057032904
99.0367148493185
98.9214985316248
98.737164402951
98.6305432042541
98.6411608747871
98.6124680221293
98.3307558828096
98.0820163763065
98.1308830376194
98.0102916159936
98.0250389423045
97.9930225715136
97.9754316213174
97.8259111211377
97.665841795834
97.5741629005441
97.6657321943209
97.594740389443
97.4714828730873
97.3258049328009
97.3767469862553
97.3034639454188
97.2086452054776
97.2332307806372
97.3173837031881
97.2145554290781
97.1959052788464
97.234405294786
97.1901279370883
97.1058218409952
97.00492736132
96.8941388906912
96.9582655771185
96.9142489946942
96.8513622014028
96.7293741978147
96.6597769946209
96.6435080696821
96.7679582226338
96.8236746315652
96.7601283187749
96.7825251561235
96.8063755740697
96.6650458549155
96.703473245461
96.7237912099464
96.6819117252842
96.54667624799
96.4590632033913
96.4057816022943
96.4576798421029
96.4268310045518
96.4152771096776
96.4482644609876
96.4116253453529
96.3041448055759
96.4227244696959
96.4346270431813
96.30475309794
96.1692084669249
96.169801501569
96.1660587030181
96.1566433167414
96.129876524496
96.0939099477063
96.1099122519918
96.1370192831388
96.016215164571
95.9346570562784
95.8889883973552
95.8940331229315
95.8541151052073
95.8975380414318
95.8907226346053
95.8203689553343
95.7683275311976
95.7625486864273
95.66975697957
95.6554516269816
95.5966881916075
95.5707774208078
95.5482955955471
95.562612643653
95.5402929533922
95.5127716097585
95.4499283184099
95.4136319691752
95.301075451687
95.2158802236706
95.1681436879179
95.1410208696225
95.0356946110844
94.9711243095787
94.9432896735449
94.9236079187304
94.8089922973037
94.6977306664422
94.6522470104088
94.4930672152445
94.278175599848
94.1844780507514
94.1124078540709
94.0242813641449
93.8563076019409
93.6699374877633
93.49149426969
93.3741778741481
93.1719982705667
92.9275142519676
92.684596147045
92.4297866209616
92.1195004446523
91.8726517912845
91.5915791362724
91.3266083370781
91.0195514727062
90.7434966450496
90.3879288355719
90.1508765590208
89.8342878651533
89.5266370277221
89.2540697470488
89.0365846375467
88.78682149806
88.5410935795691
88.2083361218238
87.8179709710977
87.3671469113933
86.9574822300948
86.4840774769798
86.0212861145583
85.5472530358288
85.0723462316458
84.4988355614844
83.9383555323914
83.251329567921
82.5001763384081
81.723267515562
80.8377476111513
80.0541696508306
79.3398503688549
78.5248191101495
77.7485098916406
76.9319823468611
76.0315946146598
75.3240875599085
74.7439166316521
74.0710904211534
73.4556302987239
72.8677252321699
72.4913867577326
72.0367215898644
71.5814361986734
71.3208752697254
70.9708571249904
70.4600232075079
70.0803416199597
69.810174799803
69.4689125552106
68.9001658241456
68.1283042476595
67.4957923437199
67.386408122167
66.8759881251808
66.3100194230916
66.0586760945007
65.867380808997
65.5917963259929
65.3605447763629
64.9818762451881
64.5818231212562
64.4685482001583
64.2356290131198
63.6914873126729
63.1131107205749
62.4641052620931
61.6948504818841
60.8073689906001
60.0961379725972
59.2347198820642
58.2473925481424
57.3286185544387
56.5609622809182
55.5649579421878
54.4943269404342
53.353895020189
52.2562392740321
51.0607461380987
49.8555431206238
48.5926764012825
47.3742951588402
46.1063854258699
44.8849334291994
43.5378132204669
42.1867894507651
40.7252015097088
39.2653034890794
37.6269425269062
35.9503502138342
34.0991001296447
32.2226370149658
30.276070154809
28.0225488753826
25.6055192815588
23.9290761924351
22.2718245241666
20.8046124202739
19.8637487877288
19.3412728720653
18.9523253291321
18.6686879443484
18.2837310140976
19.905466414773
21.3217836303625
22.5607743142046
23.8499309395291
25.2506181509534
27.0838553188956
28.6091074405857
29.9964810157064
31.5990511740322
32.9947977231387
36.5854073406894
39.8190836672507
40.795650725701
41.9445103562698
44.5576890538382
46.261950316671
47.3999298263493
48.9130399381035
50.5246308637831
51.432664728825
53.4992593239368
55.3208461658543
56.3356161062433
57.768893225685
58.6780736948459
59.3233366960449
59.5410051396379
59.4679380485428
61.6266918688496
63.3332084863328
63.4283874048952
63.1171788350279
62.8479272943201
62.8187043913697
62.8816906349035
62.3982783912499
61.5040129948738
61.1225362725894
61.2229090104469
61.298288598242
61.2314340524692
61.2186465206622
61.3171670329037
61.186550779628
60.8238514148945
60.3084172112179
59.8603827914427
59.6131624628311
58.8954662897375
57.9697402070026
57.3726780743674
57.2506277817776
56.878854816072
56.1862634707024
55.6525076199511
55.8620165278226
55.4825037144033
54.6481307174773
53.7999667691502
53.0115390679722
52.3052382099995
51.4829145723094
50.4516075932825
49.3281461252507
48.1710782972182
46.9731258510394
46.148118587637
45.3385934049163
44.3077796338498
43.2432761299674
42.1546623936318
40.9361106297058
39.5691248717713
38.2224775946282
36.7781838673977
35.2672682225785
33.9659556922505
32.5609075315832
31.1713737429331
29.9201714082861
28.9553709348363
28.3174001203443
28.1300638721407
28.3778563697159
28.7390818499637
29.2231422467426
30.0345281139008
30.8042916566479
31.9102283010043
32.9703489539599
33.6412960721157
34.2256296929045
35.1638655060747
36.0330994745371
36.6080879605784
37.1251784958312
37.6028221110517
37.9142422863834
38.083174509779
38.4693087255385
38.8211671245115
38.8772133953608
39.0193621099704
39.1524347874487
39.1945717088657
39.5962497598546
40.2665959183859
40.6219026004382
40.8177449523272
41.0678951405274
41.4107956496927
41.7675663033395
42.1914861042464
42.6732496121957
43.1657069868208
43.6157754224284
43.8573891315145
43.9555315632501
44.2278306868481
44.6274178977521
45.1327342842025
45.8330605086131
46.8638638157458
48.0538487959236
49.1629260898697
50.0736360605778
50.8058531731773
51.3223618300631
51.7371425768896
52.1481118880776
52.4612874019431
52.6628426661128
52.8819313574358
53.0577205302969
53.189116775833
53.3052799202765
53.4072091093562
53.5170503792801
53.6484268237055
53.842584372136
54.1623200952963
54.628670045202
55.2206288361967
55.867050474945
56.6320901253891
57.5327886304247
58.4577317001008
59.3030087810225
60.0779322111014
60.8109243071102
61.4923048836255
62.0849412968079
62.5897796643942
62.9988972763515
63.3442733023696
63.6343472602588
63.8917397210437
64.1781281917887
64.5239092770008
64.8959564252715
65.3489694463983
65.8443729439883
66.3070728848764
66.7212848605382
67.0798346286028
67.384225137982
67.663565808093
67.8625658086909
68.0096533346762
68.1745621495959
68.3560135501343
68.5207883065321
68.7052619208514
68.8884012600981
69.1033006179535
69.3091274958356
69.4309720285214
69.4442990432577
69.3560680213704
69.2427300822009
69.2324900542916
69.3955148074578
69.6523219997289
69.8955668431348
70.1379005614592
70.3665086539214
70.5716242637716
70.732510061808
70.8594981532855
70.9687965718524
71.0627249086413
71.1128366556453
71.1421374309545
71.1764757369057
71.1729973127348
71.105499949927
71.0075090756809
70.8746042696408
70.7406708540503
70.6363790445648
70.591621541952
70.5352293368447
70.4380438520872
70.2884438068203
70.0890676996747
69.8083218810247
69.4818782266556
69.1280268376832
68.7754246961815
68.456116218732
68.1555518274738
67.828007635477
67.4659140775057
66.9531307677113
66.3269619477822
65.7460550391028
65.4059498761147
65.3272489700747
65.3070190103412
65.1924363546226
64.9512449603479
64.6056353668435
64.1827764672558
63.7304170278249
63.3485915292631
63.0165855273865
62.7337077632414
62.4819196558499
62.2547685151243
62.0118249884502
61.742090648448
61.4672806773237
61.2260057587068
61.0451420420001
60.9148378067784
60.844739944923
60.8542535180484
60.8818245797949
60.9395368259084
61.0407426253628
61.1611715974466
61.2831675678141
61.440022563337
61.6073614882731
61.7404330877032
61.7896265544437
61.8001502997335
61.772848310505
61.7126366028979
61.604807168049
61.4599627998629
61.2654347598312
61.0639673769608
60.8808968750151
60.709962601838
60.5057007210111
60.2972732332834
60.1025300452116
59.9238466811674
59.7677497549239
59.6646922263851
59.5903575205133
59.5057846090668
59.4275178869174
59.3754240109416
59.3242176164093
59.2822445053045
59.1917139483081
59.0364505205672
58.8036982297551
58.4628663536857
58.0501352193868
57.6448662837601
57.3148127103528
57.2074837690232
57.3371677082048
57.7139365792056
58.2841224934273
58.9646840390845
59.635670842612
60.1799119565681
60.5773342388401
60.8408262142049
60.9511270085621
60.8993049047899
60.6339811874059
60.2251620389664
59.7388042587818
59.2301401232585
58.7645359266603
58.4021738401192
58.1655002711321
58.1318300680402
58.3304687856949
58.6960724222075
59.2214597314903
59.8922428553678
60.5735813012761
61.2411683868719
61.8513293789023
62.3569714879129
62.719797103645
62.9703635385613
63.1350752767928
63.2437137918541
63.3198264538633
63.4647787222977
63.6945137587384
64.0078637693882
64.4014661826922
64.8893825550803
65.428263702843
66.0593966688914
66.741470910417
67.403505008779
67.9850502879845
68.5072851436304
68.9730393479695
69.4188342325779
69.8722917969608
70.3081869134938
70.7109386651896
71.1125646990506
71.4129290895986
71.6541470372736
71.89367282884
72.081868476441
72.2098155665508
72.3079592746719
72.3452787258971
72.3408890777739
72.2866919183328
72.1849299048049
72.0367233941976
71.7940922485694
71.3846917385604
70.7356959568297
69.7718770887672
68.5710098693443
67.4999687870518
67.2254729793043
67.8534951099579
68.9921759011147
70.2001417943374
71.2542290625929
72.1572544743079
72.8902495200894
73.3985959531692
73.8440774760452
74.1790811044608
74.407085562356
74.5755199792078
74.7090176137397
74.7565462666211
74.7221298788951
74.6609946372685
74.6131154709274
74.4955732613612
74.2991290910784
74.0210858651967
73.5246508853115
72.6141272929393
71.3736966011621
70.1598841759496
69.3277210364456
68.9110040223293
69.1609157619757
69.8760233223286
70.4774501411705
70.7464852255032
70.8342676448168
70.8208277681912
70.7339356463039
70.555644064358
70.3008591992876
69.9600700980796
69.4647999549201
68.7648253591419
67.9110784493214
67.005008293032
66.2201414013231
65.5044870667516
64.7274917463429
63.9218739153862
63.3020987120366
62.826343350378
62.3160968535095
61.7514144317367
61.2784488699185
61.2083358769484
61.7162404127111
62.5443984084918
63.2604341952986
63.7555849732373
64.2008226994164
64.5589642381154
64.7501661269559
64.8587027160472
64.9781736037191
65.0565347538983
65.1043117845971
65.102596684581
65.0545377461202
64.9796440684969
64.959006476717
64.965569196806
64.9759465228423
64.9108426292097
64.7935328344546
64.631059225144
64.4601990969066
64.2419697099112
63.9957893382683
63.7208135355064
63.5219986424177
63.2233119708255
62.157417358125
60.7307336547183
60.3565673059709
60.6440165236608
60.8195449212921
60.7658392854792
60.5199360311919
59.9455494237144
59.0180267323636
58.358602485558
58.4781662442505
58.9608225473348
59.4281778665558
59.7075562841368
59.8355861280878
59.8989160564969
60.0030223886242
60.0869585777744
60.1385199364008
60.1321220736907
60.1049073207896
60.0226540676202
59.9711504833581
59.8381100623119
59.6912225372737
59.5584119085482
59.4036869747599
59.2530384443302
59.1447339394254
58.9704103766253
58.8265238961014
58.7236973267689
58.6407730672362
58.5069735469797
58.3909879556596
58.3100003381355
58.2293717691668
58.0449289189597
57.7661086073422
57.2855785189506
56.6371246314893
55.9139383852452
55.1211070860375
54.2981530167541
53.7232499996804
53.4678692560542
53.4145390118521
53.3183829987661
53.0873667403962
52.699318702496
52.2545957973545
51.7908055390738
51.4549058168638
51.1480474386427
50.9372700730378
50.7316048688842
50.6034407221718
50.5071046752682
50.5209041802272
50.372175501846
49.8635118068238
49.1450294639032
49.1858269810009
49.139685129706
48.7768394497866
48.3210273666766
47.6096060422448
46.6895544003198
45.7686295539482
44.8785301804001
43.793324796959
42.3611183941276
