1798
3999.43349933624
650.420452594757
1
128
4
93.0691694945837
93.0775858239925
93.1800667463071
93.2555059573472
93.2028673363911
93.1912122248363
93.2373422514248
93.2612867075028
93.2657304116822
93.3070977098336
93.299904436137
93.3325149357958
93.3009499508881
93.3278188779476
93.3285335080385
93.2836817292078
93.205541024432
93.2399101522523
93.2297276692885
93.1795557865063
93.2229872708449
93.3116100502342
93.3302326946205
93.3775119846295
93.3147601831731
93.2299920849588
93.2519220330142
93.3026450234277
93.2365040677062
93.2912983755245
93.360593142537
93.3868523190938
93.3304430140829
93.3558958034049
93.3514915742093
93.379036471573
93.4569220196148
93.5719965706782
93.4661638461611
93.312702306812
93.2443287822083
93.2971854562207
93.3768379829815
93.47235104123
93.3405540980897
93.25489115728
93.3304619396339
93.5449460412683
93.6277874282032
93.5101457195787
93.334868226956
93.2753556797435
93.3203245541332
93.3474225713461
93.3190848767981
93.4658167432268
93.5498289652511
93.5942461762714
93.5978919852691
93.646058729953
93.5180284785252
93.4573415040253
93.5360912965418
93.4764434528124
93.3870207015871
93.5111436303738
93.6241623105589
93.5286482022345
93.3889694479212
93.411450866227
93.5271888988599
93.6281741959976
93.6162189334996
93.6557637712543
93.5838998205128
93.6062208365873
93.7235434690264
93.6458313127135
93.3704873397647
93.3505196306951
93.467736410008
93.6866310837662
93.7979051324461
93.7481816128144
93.7452699215723
93.8113649326671
93.6457870518185
93.5272250082047
93.6234182046758
93.7470773348159
93.7628287288303
93.8400933576174
93.8362896643583
93.831244595832
93.7556090131444
93.606035666732
93.5414003582175
93.6843950837779
93.7141433331957
93.7337369184766
93.8171381423775
93.8043455825216
93.7814036824802
93.7691310877162
93.6589899364379
93.6638644495785
93.6079074019216
93.6652281184465
93.8568914621185
93.9074086686597
93.8382439707816
93.8340124240886
93.8200024619848
93.8714589492781
93.8756725123826
93.8567469610383
93.9163309602877
93.9666278440583
93.7583024200365
93.6682075810528
93.7849666558841
93.9437553153578
93.9185750306203
93.8769774146959
93.9054159365791
93.8762112279747
93.7751418014952
93.8778503719653
93.8542285616479
93.9461189724284
94.0711131003658
94.0765587127665
93.8806779212011
93.8074723001857
93.9002038819953
94.0801241414941
94.1009273995286
93.9871078042748
94.0975948185368
94.1837414527045
94.0225356668312
93.8841631299702
93.7593342380038
93.8317195846572
94.0071002822188
94.211495603863
94.1751880450324
94.0124051190642
93.9113449393601
94.0308023171444
94.1223654642532
94.1918115812293
94.184032009023
94.009443478109
93.8808000633923
93.9632285587851
94.0871405294523
94.2605992415366
94.2542585595073
94.1069370240313
94.0310304449604
94.1644628359387
94.2136280586668
94.2365434170913
94.2668405756529
94.2435374562675
94.1301630323563
94.0724009671163
94.0173897064267
94.0994836068366
94.2626355519558
94.3093046943414
94.1171826189447
93.8557045125513
93.6801668303253
93.8173722236434
93.780804459151
93.7038110970606
93.6967106122833
93.7517072782833
93.7600308829901
93.826769737643
93.8225721900242
93.6151383358205
93.4034938936093
93.5372884635579
93.5237670093298
93.3001808075972
92.9355993437168
92.888650566079
92.9965901655802
92.9162359740703
92.6628648732357
92.5948524850189
92.599932791444
92.5700848040175
92.5023689459338
92.4892504495762
92.1384902483521
91.869428293304
92.0052007755688
92.0620264954839
91.9099216571246
91.732515008484
91.585937642167
91.5367294483381
91.446988987938
91.3283283848937
91.1806162598716
90.9961305731742
90.740561046254
90.7824145743299
90.8831658433425
90.8091709162222
90.645310329707
90.5622632284237
90.4855716295252
90.4485836845681
90.4079624616702
90.3227701321579
89.9517852427783
89.6133879088599
89.5570662664012
89.6325985857327
89.6276875040227
89.6124122028374
89.4251502631195
89.3043516254041
89.2065820471969
89.1356813540669
88.9821900792249
88.7638338821115
88.4772832703312
88.5162949655599
88.6321323570108
88.61157093355
88.4766712958262
88.4770158009174
88.3044171888803
88.1448867473889
88.1238901395974
88.0285674777993
87.8548603910713
87.7914895210747
87.6492694309673
87.4340380717266
87.3400507372575
87.34881117174
87.2484659554273
87.210526759721
87.200615724051
87.1661784900122
86.8848801158255
86.673718109887
86.5686410133563
86.5856711648172
86.5797919552883
86.567610561054
86.4244072228462
86.41506169059
86.3824870195297
86.1918938448598
85.8346821330743
85.6248191255998
85.5999336840716
85.6113255106574
85.4981592324069
85.5170814151741
85.5990939276855
85.4727821408538
85.1436268224217
85.0861254846575
85.1186793761983
85.1087518156931
84.9744708962031
84.8191878937605
84.677840768914
84.624322992542
84.5633397431445
84.5728763426179
84.4493708628325
84.2656303850031
84.1623439186976
84.1487235487008
84.0425060608976
84.0016092323738
83.9443846381773
83.9509845036626
83.7740219213825
83.5647034105576
83.4967665652332
83.5960850028602
83.4938538707168
83.4066276304753
83.2840944873176
83.1896723569286
82.9677849701314
82.8989530427189
82.9611688087533
82.9284695173038
82.7516957955816
82.7265595918517
82.6818588647259
82.6520237151665
82.5738562161999
82.4801796285648
82.3520399995394
82.3106433571498
82.2393997463723
82.1215078656718
82.0339106623468
81.9956304360564
81.9129964874756
81.9198357916726
81.8003943611305
81.7647000096664
81.6777396878039
81.6106952563556
81.5679034762855
81.547271234448
81.4648750423429
81.4465567647821
81.3767091765535
81.3309875121994
81.2574857738639
81.2351077134691
81.1961438079192
81.1996110835279
81.0998645561876
81.0381251083047
80.897355472082
80.8936815065895
80.8938777493043
80.849457836283
80.7125107125126
80.6516817762446
80.7055294956641
80.7885996075454
80.7020761207881
80.6351686559538
80.534941448118
80.5180255322879
80.5405585881629
80.5262301562348
80.4924002484458
80.5109400646929
80.3859702350434
80.3392256431883
80.287997780821
80.2192560921661
80.2098832873796
80.2958092544553
80.2803639119897
80.2676799632527
80.1901512574491
80.1847246219248
80.1802792617642
80.181614709811
80.1147205853976
80.1471018499936
80.2360632996216
80.2011902292752
80.088038702277
80.1366082533345
80.1301607730618
80.110038706171
80.0737613982123
80.038491934094
79.9721490979088
80.0111921252525
80.058061230628
80.1608761543111
80.1342553281217
80.0311544419108
79.9418722584049
79.9390681750188
79.9007108467543
79.9937186064428
80.0328198934082
80.0463581347666
79.9742920372097
79.9298767666587
79.9369829345095
79.96130556229
79.8875279073777
79.8784459424926
79.8712502740847
79.910426891009
79.9261501372443
79.8825779596089
79.8346542999804
79.972973099959
79.9913376504548
79.895386725781
79.7973226307517
79.7991204369814
79.773206535099
79.7611486969643
79.7278950251134
79.8289578996811
79.821192197798
79.7581282171118
79.794278587209
79.8546365890539
79.7906995865584
79.8210330220663
79.8023915151257
79.7934177881711
79.8053159114223
79.8393223703851
79.8781141373735
79.9016082277787
79.7790749928008
79.7899809691729
79.851876250867
79.8696283600137
79.8286726961805
79.8606143859315
79.8279371326794
79.8412808823723
79.752153382979
79.7389149809077
79.8103657821862
79.9612572418254
80.0084175406464
80.0263853190629
80.0305506065187
80.0710494446617
80.0124624217542
79.9343012098904
79.8884980206245
80.0061943942381
79.9798220393563
80.0072204084489
80.0776965221936
80.1210771384592
80.0916273986967
80.1265605496292
80.1816618617926
80.3277193481787
80.27012503812
80.279781999555
80.3367102101584
80.3380581642042
80.3576691912088
80.4173711530334
80.4039027484258
80.5014638156925
80.5216445180468
80.5294940715189
80.5956815530757
80.7078316769242
80.7286475507671
80.8249246189339
80.9138737222461
80.9262695605357
80.8402064307254
80.8847152277818
80.9831374792631
81.057194481865
81.1012952427519
81.2400998366417
81.3208272835375
81.3238130961815
81.2411595557646
81.243990800789
81.329249017358
81.3834449365565
81.3707520433989
81.4398326838255
81.5155931582513
81.6238218742326
81.7490823721987
81.8860597762672
81.8908191238104
81.8562044331758
81.8762759295252
81.9706405740223
81.9639618807408
81.9867479016335
82.0095802502232
82.1168849159491
82.1818896574272
82.1664017964079
82.1566903099165
82.2556656043632
82.3533524252254
82.4541524502559
82.4421845247239
82.4861987198516
82.550583969201
82.5995810425087
82.6461114982639
82.711211122834
82.7668359577192
82.8152658192264
82.8492156954658
82.896384121584
82.8525395430318
82.9139117598145
82.9454089943201
82.9881590253264
83.0729230431114
83.1213945410096
83.1171781617955
83.2298104138249
83.3578875808001
83.4235425278024
83.4395742653902
83.4706665897033
83.4757940310288
83.5863075712572
83.6810171088713
83.7297901262511
83.7361356950374
83.8183724503989
83.852375982906
83.9237374748242
83.9794150257556
84.0198226053326
84.0242108709629
84.0238218650875
84.0280666042628
84.1823836780806
84.2059610642204
84.1795063846396
84.2720373826431
84.42473461389
84.5219464051433
84.5584491138806
84.541795088293
84.5150344739178
84.4630941692542
84.4890824224213
84.54191575122
84.595709307601
84.5674480002018
84.6016770393773
84.6264099948361
84.6584684825873
84.7431585996053
84.7536977141959
84.7007429698673
84.6942820037221
84.6561825970637
84.6661841633369
84.6859830473958
84.7446998831765
84.7663115776017
84.7911880472017
84.7986693978606
84.801017701266
84.7687033988071
84.7862631432919
84.8281166726894
84.8937451171637
84.9231114804875
84.9356227505532
84.9233751149872
84.9699322755472
84.9958064835669
85.0101085031387
84.990568418272
84.9776239729699
84.9801701830392
85.0376306449497
85.0431645746944
85.0292737844241
85.037447315559
85.0941500016371
85.1099787686764
85.1178968903597
85.0798415197035
85.1412462731242
85.2071449708627
85.2581627770873
85.2995613696863
85.3537137082596
85.4140018016977
85.5010735136785
85.5784527029672
85.7057130070939
85.789027829606
85.8579751196885
85.8712007662354
85.8902304126643
85.9149657046991
85.9956790758969
86.0472918646752
86.094589555406
86.1411195431792
86.2582634206762
86.3194019448343
86.2731937847552
86.2499845875833
86.3342835193588
86.3605785609654
86.388479252332
86.4091763774525
86.4761216925218
86.5331025891738
86.5377663324396
86.5410381878776
86.5906590492729
86.6827402150971
86.7628222455352
86.7776693715238
86.845747682007
86.9316002107925
86.9888294337366
86.9981476597535
87.0039815194263
87.0404332906546
87.1359023541483
87.2008391294738
87.195765454448
87.1758079723935
87.2676237955539
87.3781378194028
87.459672157187
87.4731007573607
87.5063427625312
87.6035793200463
87.7225086195887
87.7485843337211
87.7779247928713
87.8209484326492
87.8267082062041
87.8221768527734
87.8299040670999
87.8266683087074
87.9238195676294
87.9892410921344
88.0350715224951
88.0036550096034
88.0170544939211
88.0676646108475
88.0983341537146
88.1804467787948
88.2415051341324
88.2660410536328
88.3307467540613
88.3170521985333
88.3492168684305
88.4037125603405
88.4174755004161
88.4634431073508
88.4989332145607
88.5373297460795
88.6088920313983
88.5755412037129
88.595330734152
88.6741388722358
88.7179513768935
88.7109360656861
88.7538093819248
88.7584176901292
88.7524347571464
88.7953370470422
88.8555074868378
88.8935501914008
88.8933634480572
88.8933481428931
88.9422964589118
88.9531535173406
88.9998282246832
89.0574033740232
89.0845193388162
89.0791615105733
89.0730563011551
89.1312838063475
89.1940250946384
89.1734239711646
89.1858719586902
89.2261825506466
89.2489714877745
89.2527868352961
89.335524336065
89.3615003030555
89.3369523208125
89.3388336939543
89.4297468316303
89.5021603110273
89.5165718325934
89.4901161087312
89.5558526756194
89.5663800074173
89.572789611372
89.590901036474
89.6411574766977
89.6746175409808
89.6735800973623
89.6977125028849
89.7600003861883
89.762755321585
89.7585969845655
89.7889860141071
89.8327868451415
89.87590415185
89.8832733617196
89.8765297133392
89.8966895254272
89.8952617550332
89.9090359601718
89.9403390531948
89.971965217133
89.9951577106519
90.0793536949958
90.1185060356698
90.0992735456637
90.1106166199418
90.1485119396336
90.1460890329552
90.1762468575682
90.2067606627539
90.2400099150862
90.2545268797569
90.2515214575457
90.2562968061255
90.2846471109258
90.2965045472962
90.3293759528269
90.3581861516368
90.3592345795005
90.321527949134
90.3294799207398
90.3931696430983
90.4514981948749
90.4580504070543
90.5121924310547
90.5123676148007
90.5049090361265
90.5792815116159
90.6722753281839
90.7185105303097
90.7467202986498
90.7591622074065
90.809175572926
90.8536813771141
90.89376220467
90.8863371401514
90.8862953890794
90.9089747317896
90.9622122687728
91.0348319956834
91.0689258300676
91.0679799663889
91.0992276451754
91.1444833728972
91.1593499154754
91.1350352517721
91.1980414674253
91.2554748688998
91.3353103897115
91.3868629503968
91.3279566848732
91.308234961774
91.3832592971828
91.3924047772849
91.4385744279825
91.4889830905453
91.4964826533201
91.5243060435052
91.6302401267952
91.6507964415927
91.6547724249156
91.6827393687243
91.6782449284274
91.6518761959913
91.7004373709581
91.7207571126959
91.7105776541096
91.701114330296
91.7608529325776
91.7725892341792
91.8123087107476
91.9102867920145
91.9778297984406
91.8958493508568
91.8717368170757
91.917704292571
91.9401967402421
91.9835282772574
92.0511748928723
92.0229824336257
92.0197964483785
92.0972220959569
92.2215139485242
92.2391856949703
92.1607929267193
92.0103869679349
92.0136264364626
92.1502197727945
92.1938674038516
92.1908951623034
92.2319755911982
92.2154656111118
92.1930651882792
92.2248726868974
92.2710876948472
92.3279116337774
92.3624944325961
92.396819451197
92.4395902811477
92.422341918209
92.3492636387985
92.2665575198608
92.3041809238121
92.3382414077284
92.4228102690157
92.4512892002288
92.3631147820245
92.3325262109962
92.3449816494313
92.3686501766197
92.431290697727
92.4576094430341
92.4269493628448
92.4786463561402
92.5121524323263
92.5273613755371
92.4531664354123
92.4031036565962
92.5181143742323
92.6003127014154
92.521933722384
92.4889679354771
92.5115415899262
92.5505804387813
92.5554432828571
92.4306679230267
92.4749607445559
92.6179638954605
92.6833954618594
92.6099485178269
92.5109032789778
92.5296502607864
92.6343931188717
92.6985223665713
92.7164423788502
92.6824689513793
92.6939589895462
92.712877779126
92.746203899821
92.7571200603685
92.7682546395563
92.7394311771849
92.6809948062084
92.6345068007103
92.5988921302898
92.6690754040916
92.7328084108994
92.7371695290838
92.7144106108114
92.6667563082866
92.6475736424095
92.6815643072011
92.7657091100341
92.7955225443205
92.7807873251094
92.7422663876413
92.8269543925003
92.8631160907457
92.7928260613978
92.7474004973106
92.7632999562337
92.7584972477894
92.7403016373675
92.7770755157605
92.7460566388855
92.6971014656003
92.6872532090826
92.6949315958774
92.7894314877515
92.8084952194705
92.7993730726982
92.9134867363451
92.9798768900273
92.965623855409
92.8632476674011
92.8056924970047
92.7767531357869
92.7644533330576
92.8046234339955
92.7699114386178
92.7676151715189
92.768650940531
92.7499619177867
92.6506870093573
92.6372836494993
92.7299125834026
92.8219220143089
92.9030231065656
92.8103464438468
92.7456290253762
92.8074923185284
92.7619868531354
92.6690265674809
92.601713998571
92.5338753065002
92.4956246648005
92.5959448172845
92.7202198430597
92.7044298728327
92.7086646787524
92.7606957237072
92.8528706718558
92.9710298333926
92.9905962857304
92.9413952976964
92.9128336085304
92.9832194221798
93.054403509098
93.0514356949352
93.0207795615715
92.9705420994307
92.9848931244099
93.0308452213058
93.0561474160521
93.1464486709378
93.3234048363198
93.3615658294823
93.4321950882577
93.415545226126
93.3346276571458
93.4626205490411
93.6833500785741
93.6778999366181
93.6907136281306
93.8490407948133
93.9529540750952
93.975968713016
93.9508006170706
93.9436090603559
94.021595004308
93.9737958546913
94.1052610687109
94.4151619090204
94.4794920638384
94.410369048083
94.478527591815
94.5548010296891
94.6393941236088
94.7301150416796
94.7332575270609
94.7164125355501
94.6236087726243
94.5757022217487
94.7810184009542
94.9281257368028
94.9717240650758
94.8480090425111
94.9145978073595
95.0082015659618
95.1617719452255
95.200467529448
95.1933098052284
95.2828051241522
95.2542354670311
95.4775875462995
95.4938676510208
95.4359509395734
95.7077637934572
95.7872112628289
95.7141625977915
95.7895014444642
95.8682509080717
95.8525750842173
95.9652856542387
96.2064477383143
96.3747197770152
96.3377427365855
96.1121035490125
96.1226615260324
96.7194984449937
96.7596858527336
96.4557742793635
96.2018894637783
96.2780942480769
96.5039254243228
96.771095322912
96.9982348414232
97.0393321907928
97.0749731146126
97.3653057231695
97.4970697396976
97.5391221517611
97.9683655328825
98.1606745784208
97.597760603583
97.4833159618675
97.5027380824739
97.0194993926368
96.5445490222282
96.3689607225936
96.5227043534474
96.4847123898966
96.1007236947855
96.0572017617912
96.0693165382165
95.7957507930016
95.8470037552998
95.8796659859024
95.9276804023308
95.8960314437388
95.572143915879
95.3270866026567
95.215389629861
95.1050192204581
95.0341285458047
95.0360501168296
94.9430319801732
94.8265202820783
94.7807400051669
95.033731741522
95.19033597111
95.1759669350215
95.2834171240649
95.3213226546508
95.2754502540382
95.1669825934935
95.1272410543265
95.2815134008505
95.280129562669
95.2444224386106
95.217774394025
95.2920555708883
95.4217020664702
95.4143974204205
95.4252264604338
95.5090912514739
95.4609233467969
95.418898733339
95.6155476976502
95.7340144081536
95.7939758287523
95.7800419651892
95.8901043845568
96.1075250270781
96.1633756220208
96.0271636943322
96.0179204144393
96.081754775329
96.207434323476
96.4147458127762
96.5007068699638
96.4239625939931
96.7395181567199
97.2986806342252
97.3949170218858
97.2688244266656
97.3076562928937
97.5051443566739
97.6108176035541
97.9504803352808
98.150640695862
97.8069478818648
98.0022050139716
98.0732218359893
98.1216178832681
98.0722550340414
98.1265174433887
98.3987787355183
98.2159023189271
97.8144448387763
97.8934356662038
98.2162364309642
97.8710597291692
97.752340535271
97.9414922064525
97.9323124451856
97.5030110491838
97.5082385621322
97.6370676537657
97.2996766333202
97.1503022164398
97.5359705180835
97.4003832121854
97.291075631674
97.4692703891959
97.5823435428827
97.5494874290957
97.6059981749586
97.7609359056321
97.8870754168332
98.0273136560493
97.9744964492196
97.6222892060278
97.7829908885815
97.9887460051031
97.7889655439704
97.5825675992108
97.4994174329332
97.3639824991482
97.4777661461252
97.6185460700851
97.2647996819323
96.865238821329
96.6188745565254
96.8420281526216
97.1272225703199
96.9527735102564
96.7316993807981
96.6274278842245
96.4982286758189
96.5021824242097
96.4377580716528
96.3890173053348
96.4342891690701
96.3598595408517
96.3233161735977
96.3083331308328
96.1717194745803
96.0251198754302
95.8829923820459
96.0038618902258
96.1804253368113
96.1575313195475
96.1062481522751
96.0119438277233
96.0552742467251
96.0999270077724
96.00036988431
95.8981228925255
95.7285060283074
95.6663779155104
95.8706691990137
95.9448725755556
95.9133843723947
95.8289637637043
95.7717050920994
95.8365559587712
95.8911585485177
95.9241707701681
95.9333366876308
95.9258132212674
95.8033189508506
95.7519536306272
95.8136855207625
95.8486564037491
95.8847811832112
95.869973646384
95.8936775468077
95.8580628347753
95.8906377557715
95.8817763636117
95.7516119681055
95.7690429798475
95.8148584057107
95.8523264432541
95.8620258565407
95.8297267498669
95.8350653939245
95.834432092606
95.8366846927309
95.846403632946
95.8575003981503
95.8522386045426
95.9060728651639
95.889238999974
95.8412713118532
95.8660650125149
95.8454043037053
95.8115939108153
95.8310364014154
95.8231197382217
95.8507697405148
95.8896074721074
95.825394121888
95.7948929669111
95.8324303276779
95.82110524905
95.8011581260298
95.783568941669
95.720343996663
95.6645717870115
95.6536863204407
95.607238091995
95.5793606783341
95.5837919943975
95.4971194764031
95.3844048512142
95.327263969315
95.2296116446437
95.0711828441064
94.9538426357283
94.8382899547037
94.7232428672148
94.630834139459
94.4737093711025
94.2760889956547
94.0789331754131
93.9195428220042
93.7486545797979
93.5626021584563
93.328604334566
93.1161881248524
92.9523766575731
92.8278287537023
92.6910272688289
92.503377533528
92.3470454139064
92.2382642366115
92.0844736674276
91.9544039234377
91.8691957309026
91.702831652853
91.5644924338724
91.5378741113863
91.4552170972207
91.29974767839
91.1439601105196
90.9650720321891
90.8066245232607
90.7537359363675
90.5327812275854
90.2214769608453
90.1243319711337
89.9530462836799
89.6723432117866
89.379735346507
89.1007081605155
88.8659432060771
88.5846123538875
88.0629319942696
87.7059035857179
87.5291467263812
87.3326915496138
87.0405625394163
86.6933475266431
86.320396225258
85.9556282976047
85.7841769318367
85.42216760365
84.9175106673902
84.8330764253419
84.4740467310378
84.2405462451823
84.0612078920546
83.648428282254
83.2168925731632
82.8351823118422
82.1469701881369
81.8580997048037
81.8510672577296
81.4976309510533
81.1009844679054
80.5053505928757
80.1708478055138
79.8755949972704
79.33019622509
78.9839636397465
78.8088624977555
78.3884185532726
77.8175297536376
77.5245652574744
77.2791095667832
76.9041435631277
76.1990166373532
75.0044391670683
75.2499412465787
75.4071009015829
74.7506060841289
74.2232279440056
74.1670623786133
73.8344026510353
73.3493888059675
72.8308851405156
72.0068115078443
71.5977920690721
71.6851304500792
71.4168469221055
70.8554505177212
70.3130549805923
69.911150062125
69.3271879375909
69.0368502864349
68.7520717045004
68.0004345009401
67.3034697615311
67.241279824023
66.914461130736
66.3661900562593
65.8122437603433
65.3451379453671
64.8775905691332
64.4028325973484
63.9627286575394
63.5769291028952
63.1294428733443
62.6726245570529
62.2962255655159
61.9955136861615
61.633150312019
61.2967615883166
60.9967983965953
60.7255936769289
60.4751610036768
60.2424455173075
59.9424242404609
59.3371373838594
59.3982563313502
59.8210715408678
59.5496844250515
59.2083410418007
59.5708661532009
59.7453498887659
59.8152338669787
59.7545227470814
58.6398900003046
59.1762843369066
60.8295401931406
61.3320981807115
61.7042261369763
62.0452800655211
62.4999166691216
63.0167407098626
63.2243978099414
63.6688183034584
63.9640871531351
65.142290224975
66.913287050257
67.6049311239871
67.7178868697778
68.6641271080883
69.4855442711215
69.8846398088432
70.3393523266879
71.0208899513407
71.3723564959081
72.1568272212725
73.189103106522
73.6854021801119
74.3215653228333
74.7884064485306
75.0266256379997
75.1668180825504
75.0109982014803
76.1166532739182
77.4288042058657
77.7915952065181
77.7378552077057
77.7650396403465
78.1403786864986
78.8010041772276
79.035886952347
78.8768268908088
79.0373154923011
79.4917766769359
79.7726466595369
79.8295400954935
79.7624351845919
79.7600616869096
79.6711898456757
79.4823510519341
79.2492092311937
79.0527958918852
79.2252381337415
79.1462256020957
78.7096508217674
78.2434275885032
78.1411864525797
77.9488300102575
77.3421732709658
76.5386384440219
76.6258470823301
76.7808857818945
76.4327815245656
75.9739384853256
75.4933845987667
75.1978407231402
74.9392170934635
74.5456552368367
74.1555551365324
73.693721746712
72.9876984070229
72.8165867953109
72.6711742822111
72.1271777342347
71.5632254592158
71.1778585530415
70.7111947541481
70.1032840341384
69.6816751826053
68.9948247397088
68.349103095808
68.2343083641922
67.9492014533148
67.4375732143883
66.9025912851357
66.5002711222091
66.1301199368515
65.6790689273148
65.4102206319955
65.2072521180981
64.7576653265398
64.5229643147872
64.3772671798437
64.229604703624
64.3129059465678
64.2273864364627
63.9673887318195
63.888260010236
64.1182920997162
64.199548450643
64.210235054
64.266357385644
64.4034474968512
64.5008723091947
64.735347575846
65.1470766692748
65.3936294897465
65.6166918250357
65.9101562153973
66.0639095316566
66.325760591108
66.8684618199162
67.2776895764323
67.5399045554076
67.8314008255191
68.193321901007
68.5528760197801
68.9209640163284
69.2857085812672
69.6219000563562
69.9344818305553
70.1519575614799
70.3307309239121
70.7474487295927
71.214707566961
71.512099552085
71.7485601240669
71.9989671342931
72.2152451263173
72.4344170435221
72.6568809568689
72.8741515450599
73.0352514249712
73.1830238588602
73.3959920666806
73.6184432738106
73.7743885275673
73.9526038127451
74.1627244722679
74.3573975448961
74.5208105184514
74.6701100510047
74.8139333583393
74.9844921093012
75.1395803897894
75.2675088876165
75.4138649101043
75.5729338618695
75.6936167971627
75.8099275367019
75.924380824967
76.0263757275673
76.0944658234267
76.1543616371546
76.2154096615443
76.2827462757529
76.3341339795516
76.3760120266286
76.4086644165474
76.4400271151575
76.4897784091789
76.5370541384014
76.5646954927978
76.602445765657
76.6435981408408
76.7133385830311
76.8061806995794
76.8799465276085
76.9245833917924
76.9666170172563
77.0139256632755
77.0546419093264
77.0893670755125
77.1089806057034
77.1258122022179
77.1542080624669
77.1927995577065
77.2315455649276
77.2299594394442
77.2256882901225
77.2344423098832
77.2590333190613
77.2758827611884
77.2679746791039
77.2864953586995
77.3318199919483
77.3509300562268
77.3768089928031
77.4232403023601
77.4565695000329
77.4865156305704
77.5354944673364
77.5859801343896
77.6247108260925
77.6718050218178
77.7101141909196
77.7469040997547
77.8101560948671
77.8564087386428
77.9068208673869
77.9636046418554
77.9892244379488
78.0010973508119
78.0263897634413
78.0454637977943
78.0366138269465
77.9935805459471
77.9602055561695
77.9457621012134
77.9258714128899
77.8768928194005
77.8066889294206
77.7225773483962
77.6417088759035
77.5917461726738
77.5342562711039
77.4568499277909
77.3948761635786
77.3313072783192
77.2769785078446
77.1883640573558
77.0780515069793
76.9875806624773
76.9235289294045
76.8442194201972
76.7506666729683
76.6405739306237
76.5174555368497
76.4083107992892
76.3040869116824
76.1741404671122
76.0312778487043
75.8638563980444
75.7101445529523
75.5464058585865
75.3577662670171
75.1562041443301
74.9738388852014
74.8101584139391
74.657020968281
74.5086018074183
74.3798817325928
74.2277238108364
74.0800470623043
73.9254215937015
73.7733423986661
73.6334065497421
73.4709245769514
73.2911078871281
73.1345621085897
72.9884038556199
72.8020941019262
72.6126973405541
72.4669997972501
72.2969264523773
72.1019508326661
71.9233481245301
71.7656297989043
71.6161449034364
71.4558021292952
71.3152115475208
71.1787065238852
71.0383650601485
70.9034514675844
70.7971266675478
70.7337904893643
70.664995370884
70.5823798933028
70.4580696681836
70.3534056001275
70.2756996855029
70.1821445920758
70.056136450318
69.9330207147362
69.8149435040507
69.7027947323818
69.6019435526772
69.477719000841
69.3373490602664
69.2343517044405
69.1528031381769
69.0947539186572
69.0857676266755
69.0917432775768
69.1444177369979
69.2589470416755
69.3767634322522
69.5204281299317
69.6661096630845
69.7963364351425
69.9768474530264
70.2076334399335
70.4197046938227
70.6211258674399
70.8187726145623
71.020153688516
71.2430985288667
71.4829261688567
71.7297325137254
71.9988335972666
72.2681723696979
72.5317832177012
72.772512713629
73.0196922386031
73.2780905577904
73.5464818795851
73.813393965483
74.0562926477848
74.3022978557948
74.5440785653571
74.7814638771998
75.0262173837967
75.264230232789
75.4971770763027
75.7235215488747
75.9275015626283
76.1445752678227
76.3722992588601
76.5422936605384
76.7153104024876
76.9018269631079
77.0707683950471
77.2236179559656
77.3913281415219
77.5337253207034
77.6554520132339
77.7766074870507
77.9059475343758
78.0147815862629
78.1296719588434
78.2343591833476
78.3611318394684
78.49997790428
78.6018882987855
78.6810369400817
78.7890483902163
78.9068077257904
79.056535137363
79.1719844053478
79.2792163139273
79.3964773646077
79.5097073168861
79.602382449449
79.6973837297151
79.8050973848048
79.8939540555068
79.9570558028332
80.0378331209414
80.1189741426663
80.1820996740857
80.2321925336925
80.2814047493328
80.3376339339515
80.404493181253
80.4522307492949
80.4645137613975
80.4626259672444
80.4754643705971
80.4901141373834
80.5392238975775
80.5340307620301
80.4976879622818
80.5192346370852
80.5648454197442
80.5547942713612
80.548049682027
80.5256043253105
80.4889142481325
80.4733266732976
80.4352908025436
80.3585866149852
80.3076342018088
80.2929925958129
80.2919043739417
80.2336265097263
80.1625809346312
80.0903675582049
80.0272477733998
79.9639167039787
79.8807727489011
79.8462517274155
79.7740545928791
79.6756413276446
79.5551941735953
79.4189536695741
79.334917115413
79.2023890782515
79.0553928679811
78.9172874790192
78.7853896649535
78.5993096332377
78.3809044401361
78.1172844287679
77.9297195094536
77.7900404545869
77.5993080925192
77.3895539583537
77.1468343341644
76.883741426766
76.6661970501286
76.514664904132
76.3667329106767
76.1523928931414
75.9438115996462
75.7514047053329
75.5335033869035
75.3574597281445
75.2186078579644
75.0378875342792
74.8847656543307
74.6780420214512
74.4735196061375
74.2962789650987
74.1125765324225
73.9254489363586
73.7759703158
73.6403536591599
73.5054998336403
73.3692932619456
73.2856095468124
73.2301353816241
73.1837810227725
73.1027105093021
73.0139196500325
72.924920972452
72.8153167177255
72.7252126134452
72.7035965357413
72.5830974699322
72.4652290206318
72.4140117743607
72.3461066008168
72.2153272727241
72.12489026521
72.0620059770477
71.9629767493364
71.8680021532299
71.7507735466764
71.6547179498643
71.5407128059287
71.3878688340156
71.3115742424802
71.2343613674703
71.0830679881479
70.9360355125001
70.8297560175754
70.703936871591
70.5781258791551
70.4588571516521
70.3182753601793
70.1675335409044
69.9904510943667
69.8019374021495
69.6753066787848
69.5280474062078
69.3684081046379
69.1865723415013
69.0352290735338
68.9127350714711
68.7521254439002
68.5963448824494
68.4322933499084
68.2520091110445
68.0824057661254
67.8963742653719
67.7497666672101
67.5811571922837
67.4526681574564
67.3234183120503
67.1719525854571
67.0243976597326
66.8692374586889
66.6703712528433
66.5322193411406
66.4055714394035
66.2641186821651
66.113761253968
66.0013975191156
65.7895394456903
65.657782423962
65.5616955997407
65.3678335144842
64.992920597279
64.9863844588075
65.074887411493
64.9010688104503
64.653440249832
64.4895018240882
64.3395719244288
64.2193513976828
64.1261486267011
63.9961867615335
63.8399410377438
