1798
3999.43349933624
650.420452594757
1
128
4
95.6351758532215
95.5852175582886
95.5188926827039
95.4398866028158
95.4188588991281
95.4411845436744
95.5421217272866
95.543605292919
95.4038319906586
95.3972556681628
95.6184418189136
95.6002751783132
95.5368864019977
95.5657162534618
95.593156566523
95.5667919007241
95.6258261840052
95.6207313028522
95.5447434954749
95.4803386873624
95.4863184944617
95.5352498465774
95.5816604350075
95.5610109093578
95.6106036067259
95.5828970988842
95.5163511881135
95.5102089750585
95.5405332379136
95.5652356480546
95.5683759792781
95.5924875896835
95.6786909979866
95.6599345888865
95.602405215766
95.5510624159611
95.6221551596145
95.5717738834211
95.4947535590938
95.557312598293
95.6726358540273
95.6285273843692
95.5420028886889
95.4955736816207
95.6139770558879
95.7305090318862
95.7580916795068
95.6693449895601
95.6637200824255
95.6916823464155
95.6739168401968
95.5931382198035
95.6937182636944
95.6434941669079
95.6040095772619
95.658283477473
95.736480084755
95.7845312691896
95.7694417482648
95.6920682080906
95.7763380728912
95.8239777827477
95.7150547073653
95.6570172103824
95.7111265354468
95.6605073774039
95.6712868910165
95.7301952642408
95.7108794712324
95.6951657918456
95.7477249988884
95.7643367073318
95.8291516328172
95.7476903824909
95.6852471845042
95.6544281118889
95.739545188805
95.7962176223269
95.8373480656438
95.8617258049984
95.834462600931
95.7113996762156
95.71816770952
95.7250544814354
95.6617269229652
95.6371803539389
95.7843263162867
95.8045066786668
95.8010262512504
95.8163236947207
95.8757796249272
95.9040484757497
95.9350095029246
95.8512825856712
95.8121072124807
95.8234730098895
95.7453364505944
95.6822862582429
95.8247437623357
95.8807439464197
95.9834120473567
95.918844372969
95.7881634401503
95.8108398501971
95.8855425043816
95.9056382973381
95.8921522246186
95.8727060836199
95.9830546372254
95.8403757942046
95.6632320106917
95.6805586644322
95.7970776715576
95.8229204937342
95.8850978468021
95.9723585103279
95.9364243393839
95.8943940474707
95.9396383609648
95.9234865946651
95.9636809004751
96.0072698615013
96.0567270112703
96.0084694899458
95.9555630756068
95.9723986920753
95.9959962882537
95.8861001777518
95.8264513493478
95.8623076722777
96.0202341880476
96.1028643594869
96.1533031265767
96.1516176718491
96.1330468051574
96.0005106131087
96.0595818169657
96.0511648920946
95.9726419341918
95.8551566258487
95.8779463533007
95.9669028464835
95.9708765458177
95.9878188212376
95.9700804678833
95.8206773625589
95.7993463478698
95.9305837063497
96.006393266472
95.9691556593487
95.9928703497403
96.0174260270018
96.1541439618034
96.2345509433619
96.1669951052656
96.0324657696059
95.9662309738315
95.9130504771931
95.9398961786624
95.9062352533668
95.9422400218952
96.0565213737818
96.0961696778945
96.030997537845
96.036658152756
95.9666519936952
95.9739015089469
95.9544173617986
95.8754769781363
95.9061041839216
95.9295655796757
95.9057587776926
95.9611879783677
95.9890687052453
95.9249192323221
95.770050692548
95.696946449382
95.5116488407342
95.4438385699066
95.3610238660047
95.3859123333717
95.4891225653693
95.618789760547
95.6086366859264
95.5352549644606
95.4737181142124
95.5119682524794
95.406002531979
95.1406351659669
94.8765713104633
94.7961768974808
94.7077751608261
94.6277511797544
94.650462446776
94.6728130244856
94.542251647443
94.475164385803
94.4630578583666
94.4574557895235
94.1820091009904
94.0172343185829
93.9596090198412
93.9337613855904
93.7932464842982
93.5772144614867
93.4855985208737
93.4458595987635
93.352040471124
93.3785479390299
93.2411252765484
93.0024182530022
92.9170538117911
92.9775916664234
92.8699872375787
92.5789129804068
92.3272834065366
92.3602995774072
92.3254891177712
92.0265321675609
91.76216618911
91.6822128067314
91.5471084132364
91.4471198267253
91.3750600158403
91.3280392111876
91.1791831763743
90.9901244651258
90.799080528944
90.6982039181472
90.4752208888876
90.2349004556072
90.1846464405357
90.0944311560894
89.7479472991367
89.5547737420019
89.5071416814296
89.4536961387589
89.3271580557438
89.1264223317459
88.894559619374
88.8057288044248
88.6983738798981
88.5255563265892
88.2691529427081
88.0526387140079
87.915569616219
87.9197370470914
87.737786836569
87.4624870249022
87.3348559954965
87.2597394201339
87.0431685516647
86.9179735849512
86.716127109301
86.4184542792277
86.2632823929963
86.200196657284
85.9700576141682
85.7991163265754
85.6416146964384
85.4300587490493
85.3120902085255
85.3260538192551
85.1675335256333
84.9828838262641
84.8409413450849
84.6148541319061
84.3227096100245
84.2127841281391
84.123854980972
83.9356714114271
83.6089369257459
83.4107132162459
83.3155995416573
83.1578928919448
82.9748263042131
82.9583442127833
82.8347171108065
82.6938009457331
82.6473910584589
82.4296158537607
82.1001949464633
81.9602582058111
81.9164052489932
81.7341528253645
81.3482376410452
81.2839369559879
81.1839778156794
80.9533950444321
80.9890926836077
80.9510112771745
80.6609145314407
80.4629741221354
80.1867611745662
80.044193036808
80.0978988860692
80.0705304383732
79.8444140289952
79.5544396919641
79.2090647749667
79.0920942632902
79.0934512678141
79.0899070341112
79.0510756847524
78.6768843258568
78.1206780454303
78.2850614930786
78.5284971074002
78.2427313160531
77.918484615135
77.6826445503834
77.4530062059164
77.4307632606291
77.3312501574579
77.4855504928792
77.6173252244404
77.2382148285952
76.9270764276464
76.9798814632894
76.8214142776125
76.6363857237009
76.4190534683285
76.2505501546745
76.371685656852
76.1816601410048
75.7692624839803
75.6499272429132
75.6772945424967
75.4349934661107
74.9809603483888
74.937464480101
75.3161965599148
75.5985209457093
75.1996483766223
74.9288844939419
75.1745150761281
75.138818272419
74.7303850294238
74.549423023146
74.5942261411408
74.7114909390993
74.6074528647096
74.5761713871826
74.3778516473574
74.1424626316876
74.2242477112261
74.216694568956
73.9007976726556
73.7772942507301
73.8015917048475
73.6928349739429
73.4349609865796
73.2028908457289
73.3041078617552
73.5500550506094
73.4534454517791
73.396635063574
73.3155814560708
73.2637852478871
73.2085781602688
73.1624917733868
73.1006891133741
72.9615444980405
72.7750294757174
72.6920942824593
72.6868240804079
72.6862303923792
72.642256177045
72.7381919265273
72.726960963616
72.6461668240178
72.5103489172575
72.4404446564378
72.4136867134203
72.4372892363345
72.3761446628008
72.2482640677306
72.0905857708084
72.1661852410482
72.1637341422979
72.0710354554455
72.0015875267708
72.0039547848916
72.0250765093628
72.0656018081813
71.9806431196952
71.9089783586417
71.8685546832777
71.8592300890399
71.8514897575236
71.8130710954862
71.74147210547
71.7549662416075
71.6620638348333
71.6338977172539
71.7290417144148
71.8490597591326
71.7962731798692
71.7630349214336
71.7639361467072
71.7997515225767
71.881882362802
71.9775955319112
71.8884374831032
71.9089113471111
71.9647811177058
71.938448508072
71.9200967918761
71.9946471142476
72.0023968801133
72.0629487977726
72.0810411863459
72.0801683705552
72.0618886435146
72.1007006469995
72.2127073395476
72.3695908867558
72.4283287587772
72.4973834872821
72.4397657590766
72.4325003727941
72.4605222868719
72.5737853860058
72.714590387746
72.7730350648509
72.747930527707
72.7605245864562
72.7839894680699
72.9005177377641
72.9403239238732
73.0889932034305
73.1775043226719
73.1935500430742
73.2312968381278
73.3391760040857
73.4574790364818
73.6120569117705
73.6430222719781
73.6675047323481
73.6807852373469
73.7857301265265
73.9258189562593
74.0653562018782
74.0933685757952
74.1347367984626
74.1998820309023
74.3412873090644
74.4250265192519
74.4930320362582
74.5750996959277
74.7413053215469
74.8501449660106
74.9922699195219
75.1750629912227
75.28442677876
75.270816244587
75.340394714386
75.4286059345365
75.5604772728246
75.645852538709
75.7987803286192
75.9826428303949
76.1410294364829
76.2157959218433
76.2529085677135
76.3019978427632
76.4334696326663
76.4470473746218
76.5398201853978
76.6476864758309
76.8208264179905
77.0245457529305
77.166787836578
77.2127031087777
77.290855661612
77.3502870067358
77.4396394509999
77.5273477238852
77.6037320077234
77.6698794996375
77.7811501635251
77.8284838138802
78.0103673269009
78.1293126606387
78.1570186451264
78.2103576429082
78.2906463633811
78.4112819955993
78.6444100392557
78.7193209526177
78.6723485360325
78.6664581387348
78.8324455149007
79.0015378055154
79.1243385675523
79.1600545876026
79.1638619944907
79.1373323465169
79.3025905072237
79.4828061664004
79.5270831581519
79.5395511031359
79.7069255166295
79.8235780012468
79.9069914395049
79.9956588633599
80.1786249981005
80.2912430373649
80.3660487786953
80.4078676634197
80.4621371766563
80.5537252607011
80.7527529380424
80.9344130739276
81.1077156876412
81.1901334462144
81.2407261432587
81.30835943411
81.4138026893621
81.3945041868639
81.4681444195698
81.6617709602261
81.7797191091355
81.8024608888311
81.9161683642887
81.9986336516518
82.0881758999915
82.1952708700434
82.3666692799415
82.4470185497203
82.5172350657965
82.5838241497364
82.6177381067096
82.6689628787546
82.7149529082342
82.6553247035765
82.6800330382589
82.7900107201374
82.8931196122621
82.9455366509202
82.9789520792654
82.9072945736545
82.8405847882577
82.7611264665818
82.6954072867344
82.6333410187673
82.5648244985426
82.5231794052049
82.4532225123329
82.2953043422051
82.1352483216248
81.9079645094344
81.7314150208826
81.5996727584717
81.4853557073384
81.305017388293
81.0864306912852
80.8830190624501
80.7303699571424
80.5684518708912
80.4727499221635
80.3554525075506
80.2394209050382
80.1028908458115
80.0259766633468
79.937604291891
79.7865400900311
79.6134112006672
79.4647994636119
79.2289620475569
79.0330944800974
78.9028464502571
78.8205137879972
78.7074628226618
78.659308263328
78.6599735940844
78.6841178854878
78.7030815234076
78.7904266036258
78.8976646509598
79.058163002085
79.2223573304271
79.4194892189913
79.5571034648058
79.6939175180351
79.8463256629687
80.0179939781771
80.1556416746323
80.2417449919244
80.3175573245532
80.4614436048397
80.5537114626577
80.6528217843109
80.7120266891483
80.751886059699
80.7303195315114
80.7346650732532
80.7223576145076
80.7153144111152
80.7265646033104
80.7191222539666
80.6379156742143
80.5951680714738
80.636869658495
80.6922335507671
80.7035736985196
80.7253818688662
80.7459318733059
80.8526683750121
80.9730009960126
81.0680825588058
81.1692544447889
81.3151394451899
81.3931316246522
81.4872189295523
81.5528867592726
81.6428815221689
81.7750056846016
81.9710259112045
82.1611960763362
82.3406653387718
82.4833641636916
82.7012721435565
82.9160174966696
83.0793670722768
83.2115999221217
83.3680577142359
83.5000299606625
83.6392573028528
83.7179854573303
83.8445580480101
84.0127980949294
84.1912560030964
84.2915729769373
84.3505412737826
84.3880239996417
84.5123792247234
84.6472450007469
84.7503130063899
84.8524105149644
84.973996668938
85.0895995836213
85.1731101914218
85.1884850518828
85.2963971326538
85.4367116569072
85.4874777835234
85.5661216443295
85.68952165622
85.7602061020375
85.8382119968773
85.8975020811208
85.935590150599
86.0224717549804
86.1218706644028
86.1316723608952
86.1693660616767
86.235079092357
86.2929353046823
86.3659304360527
86.4634847517703
86.4932244496735
86.5197603697168
86.5837419826135
86.633866774527
86.6966488639472
86.7683867839026
86.8413089305837
86.8651649767803
86.8321792341115
86.8806405130954
86.9819899459526
87.0592828701991
87.1167559330156
87.1858405377951
87.2052866292154
87.2258917244777
87.2565074542718
87.2856615286283
87.2952380896348
87.2953087976502
87.3048893473573
87.3605926099213
87.4834968570236
87.5875490903263
87.6276909008025
87.6583717940476
87.6916961580113
87.7621588800923
87.7842449392929
87.7860558460856
87.8153682891209
87.8313803950217
87.8864192010942
87.9682120259534
87.99099011227
88.0219980600356
88.0322755400783
88.0444503296191
88.0652539427576
88.1318734850547
88.2072046146264
88.2668769775484
88.2615584705376
88.2563970816724
88.2870940202998
88.2881089156312
88.2938520365054
88.3896688483775
88.4607841621101
88.5262316785279
88.606781292601
88.6341302375618
88.6243518742765
88.626082608321
88.6081352940595
88.6212101117512
88.6850740443702
88.7274917033785
88.7497932856882
88.7754192488953
88.7820823189956
88.821305371971
88.8708016204201
88.9280605325015
89.0108726291879
89.1088501788002
89.1189933031403
89.0774406832684
89.1475579922732
89.2741069396281
89.352137760453
89.397614679434
89.4441461132527
89.4994111966121
89.542776936041
89.5806032237208
89.6348495484871
89.6987427840627
89.7918963645084
89.8666536150685
89.9252359075159
89.9694366459618
90.0466791552538
90.0846427517216
90.0919108665944
90.1298217883275
90.1902601435825
90.309565897925
90.4174702689578
90.4466237040001
90.4910109357513
90.5511414938231
90.5917097511334
90.6408938700366
90.6542903500224
90.6226505449759
90.705711354384
90.8430918486401
90.8881614887041
90.8676514043532
90.9654870601542
90.9922128565593
90.9040124089994
91.0101431009445
91.1791496511866
91.1323859009256
91.2214943327333
91.3817356444733
91.3201671627611
91.2506409792944
91.2685215659127
91.2865620562959
91.3878187610602
91.4568568493956
91.4822960375064
91.4716010836934
91.4193803275154
91.4445442266647
91.5842526529071
91.5950816619942
91.5916878158655
91.7456435970689
91.7798997785438
91.6840021382997
91.7233935980121
91.8051218543474
91.786898771434
91.799503921751
91.8788002001616
91.8988737414629
91.8771133957039
91.9152975416545
91.940197684032
91.9375446545121
91.9299972469288
92.005252317175
92.0759601519292
92.0145853075623
91.9771201840395
92.0671841402627
92.1752315813239
92.1736221269893
92.1840257192773
92.1555278865614
92.2356517353056
92.283172973773
92.2717322152872
92.2239574527157
92.1604781054994
92.2813138697275
92.4309498871982
92.4393744043046
92.334658935553
92.3915824787529
92.5688917354754
92.5730838706093
92.5353556775416
92.5290544998877
92.5294522974984
92.5263133573025
92.5172650996529
92.5351057896267
92.5874701948119
92.593663719766
92.5893806848648
92.663824820589
92.7108423412126
92.7057752901452
92.7468361036335
92.7204561950974
92.7175414412598
92.7301145545496
92.7815143293984
92.7790026001825
92.7591339237743
92.7425101652809
92.8699825832286
93.0490326849231
93.0882965420976
92.9649345140057
92.9557812662927
92.9170103971008
92.9206795126141
93.0321138195117
93.1226272275778
93.1108608817916
93.088710533513
93.0884814750026
93.0839285993728
92.9932027690126
93.0860737526686
93.2072861436263
93.2086458511421
93.2311292797065
93.2307262115219
93.1519719110101
93.1215825359405
93.1310870830195
93.1211618918315
93.1728194917177
93.1577645292569
93.1982556814344
93.1820388064944
93.1331135677451
93.1936362310636
93.2254163640279
93.2329922651233
93.2138660798635
93.1740306083271
93.1823318619619
93.2895691294256
93.3902135242361
93.4234367128006
93.4233580007447
93.5129406396178
93.5067419915477
93.5111632984779
93.488342040065
93.4402839318341
93.4510583485216
93.5207959433899
93.4633251298791
93.4643434494355
93.5182050836291
93.4772760372257
93.3463061178971
93.222104282637
93.2033832109672
93.2803389792772
93.3476066914922
93.4431402835687
93.4238237069472
93.3628557863449
93.3864448066486
93.3746189925859
93.3625691865208
93.3565371203052
93.2233722141751
93.0529071881585
93.0422133246135
93.1807837304033
93.2956851266358
93.3257021797825
93.3456459444552
93.3683754014547
93.3151597681647
93.3770620041455
93.4535059831649
93.4378092510123
93.4616377928769
93.561744737231
93.583531389668
93.6164784436306
93.6533662680805
93.6254120240405
93.6059395460504
93.665095501056
93.704961499134
93.7516225011288
93.7731935794056
93.8787333653172
94.0091674617503
94.0475804407142
94.076071650077
94.1420288653581
94.239415992503
94.431907625552
94.5427878972613
94.6588781802482
94.8216034292526
94.6764674278837
94.6120596266977
94.811748572784
95.034258276872
95.0685265285071
95.0011305148044
95.0669463725753
95.2252132822355
95.3572358229177
95.2695705498154
95.3079100971401
95.3454613463961
95.4692866981673
95.6329890330089
95.6988127428699
95.6773817714006
95.6655751365464
95.7094378445472
95.7354162062942
95.6932596240367
95.8536228448408
95.9959056740414
96.1000668767236
96.0121697820011
96.0298386847814
96.0864597268576
96.3270222350344
96.5050415099051
96.6097126342017
96.5376367633077
96.5144396404312
96.4920851971649
96.4971315976145
96.610120473554
96.8075104840701
96.7869425938527
96.9399388474676
97.177431257474
97.0875457165404
97.0347964031563
97.3782177400092
97.5020576154943
97.4171315239906
97.4403277769007
97.8658101394181
97.8123344820612
97.9151112023982
97.9086704243499
98.1564028488686
98.3109432970507
98.2117120587698
98.2921049549587
98.3523187890908
98.275142655254
98.4165526277483
98.6371183346661
99.4172041561235
99.8090153606158
99.6824028949082
99.2326343801645
98.8682411231726
98.6818794766597
98.3859483691375
97.6904566026609
97.3782796769021
97.488619714766
97.4847000339222
97.1781058346307
96.748178768752
96.5307046915094
96.6510784862456
96.7464303702125
96.4595882537372
96.1466811556822
96.1387251594263
96.0779418708745
95.9331701243513
95.8646278260079
95.9607009111545
95.8730570107098
95.6400998823406
95.560026817786
95.7092823870997
95.8657463395062
95.8336957410183
95.7752711641073
95.9746329570117
96.0268689931365
96.0630553441673
96.0710693753455
96.1415201356506
96.2463485707622
96.1586432734017
95.9761106034036
96.0183243859138
96.1147493830404
96.1440388518794
96.208913531499
96.3617568834172
96.312441824414
96.4279808234912
96.5804504888027
96.5341877627212
96.4228305686425
96.5277828517519
96.849952286926
97.0028949052341
96.8808035448118
97.0151093561118
97.0158198520443
96.9106523664163
97.0363665956856
97.2620926775929
97.5039986813958
97.669658959762
97.6641128935538
97.7942513969415
97.9986581050958
98.1504015940543
98.5005247339976
99.0328849803641
99.2780681961372
99.2174886405798
99.035624872794
99.1766464923373
99.6406487925457
99.8745052779293
99.5877444912172
99.3853947498765
99.6291042170606
99.7821434082037
99.483107024294
99.5839576925397
99.5821489727376
99.5308381948023
99.2665236364756
99.3919890684359
99.4075756356028
99.1408636988423
98.8355347313357
98.5020269875667
98.3627696632868
98.371432654967
98.3864937694509
98.5920896262313
98.6793379614525
98.4036938568427
98.1713779442102
98.3642366228035
98.3949578930069
98.5991310419697
98.7543765743838
98.9147692517532
99.4703062744191
99.7928885372025
99.3725097792723
98.9742558133377
99.0153507124354
99.2294620997945
98.9757692241704
98.5177426135469
98.5172456363936
98.6769891305742
98.5085546902114
98.1937024599054
97.7461623947956
97.6067698665989
97.6391396428147
97.5341927690877
97.4248461367974
97.620532629856
97.5873565026935
97.3409226477397
97.2212588527015
97.0947285389514
97.0136956362257
96.9235896249143
96.7238874377786
96.6409953378327
96.6271700980001
96.5842355822785
96.550423823475
96.5760918162257
96.5572022916222
96.4743671505729
96.3333724501551
96.286353964695
96.2952690872419
96.3051168446965
96.1667519561069
96.1540212302218
96.2353008579566
96.1654032097312
96.2063813676699
96.2051802600894
96.0903447830133
96.0191724563034
95.949335549667
95.9407620582937
95.9582548124987
95.9169549645271
95.9324588709878
96.0019385139709
96.0165031241673
95.9650146863787
95.8689294668003
95.8097192913086
95.8541168464746
95.8765159945183
95.8458469518282
95.8181573024363
95.7884567036741
95.7854875256597
95.7941540533903
95.7834587962311
95.7781994212752
95.7608474461169
95.7248249047807
95.6811046573348
95.6927344083073
95.7164442978945
95.6770839840158
95.6349255832021
95.6336733840399
95.6188336392439
95.6654198369285
95.671836462319
95.6163652473214
95.5756972384273
95.6033883604037
95.6222201005315
95.6019541725322
95.5863877390616
95.5930962153487
95.5318451007469
95.4824325909527
95.4342739901485
95.4233385923691
95.4814569947466
95.5491666788004
95.5668457778144
95.4999189550088
95.4320558818527
95.4145192683441
95.4389403467879
95.4160120239965
95.3652957183318
95.3365665768631
95.3590938921296
95.3655946342409
95.3417762095072
95.302752425921
95.2632407826024
95.2525431297074
95.209346282752
95.211459229941
95.1933129113091
95.1376460180245
95.1177151577605
95.1360902296459
95.1359744879771
95.0721863273512
95.0292978080964
94.9347614769525
94.8939489696446
94.7691134288942
94.747595935986
94.6955512442402
94.6308979248224
94.5486535298524
94.4587292281984
94.3530476752111
94.2975638998419
94.1877334176066
94.0364717413454
93.8710687204655
93.7049061024741
93.6486805221852
93.5172803982348
93.3620903333777
93.2132979057511
93.0494371707986
92.9196740170474
92.7703970957385
92.6659537455954
92.4583938276682
92.3491976018512
92.2289872886754
92.0381089306606
91.8433342039594
91.6348465109594
91.4374166270251
91.1648057424379
90.8637060770545
90.5583264983532
90.3100425658245
89.9581895884621
89.5966422031424
89.1906225850721
88.7875581401818
88.4145990210039
87.9418473323567
87.49438925414
86.9579565842423
86.4507697625436
86.0203884253404
85.3288173821211
84.7783827713444
84.1073762243396
83.4172879752922
82.6753083392779
82.0422074391519
81.5191208080812
81.09430932086
80.4353022977841
79.6870205588555
79.0531946453674
78.4877088815858
77.9065341463696
77.330336129191
76.9221695348808
76.4107908643213
75.7706270920874
75.224061890018
74.8273563173304
74.3573590550377
73.6326400577457
72.7380616404389
72.4844737314238
72.8040180627323
72.4489868692639
71.8109008232853
71.6342565877041
71.5747351989566
71.2270603118767
70.7329893699246
70.1539313961064
69.8195485878531
70.0502755432702
70.1387001047137
69.8250606500543
69.4340330767936
69.1992276131121
69.0203977287321
68.9947696419435
68.9989541177761
68.7165094906885
68.3270063905896
68.4203832268823
68.5206908058239
68.2602381255194
67.889528301364
67.6645863541922
67.4644229295995
67.2387645457483
66.9762106295942
66.7257079101599
66.4899501947023
66.2764290439076
66.0913969422743
65.9555596169549
65.8253228206984
65.6995455294138
65.5773616393557
65.4303226588088
65.2373950609428
65.0436473865873
64.8005839790131
64.3566657786879
64.0106940669639
64.1788956888914
64.0970502492401
63.5634596815244
63.3243362202981
63.3555071025443
63.2441915163519
62.9694704541935
62.302122007248
61.5024669091998
62.6887383076187
63.775227327201
63.9563135772739
63.980353941541
64.1770934597319
64.5830195177391
64.8589113912151
65.0024120465324
65.2216261187019
65.5504005227137
67.0983491567715
68.6654727978667
68.8776251573211
68.9544059040532
69.785753923119
70.448640469241
70.661383440417
71.0451953927743
71.5144497988129
71.7455546276602
72.4708674038192
73.2065139916498
73.6077380757635
74.0701079591657
74.4861372801575
74.7110116898236
74.6391603471356
74.5229266398867
75.8814577183493
77.2216082364389
77.4598107344242
77.3129840655199
77.3012092983701
77.7117384452142
78.3242900265843
78.492635327057
78.3483895829056
78.5121050704285
79.0099456121357
79.2563575438879
79.2160320530479
79.1343012272802
79.0703113958016
78.8627091197016
78.513763165574
78.179388059565
77.9836122244804
77.8374950072455
77.4258697773311
76.7309110213054
76.23738152043
75.9752944532189
75.5357126240231
74.7656597648447
74.2679252593189
74.4850821320885
74.5347503957834
74.2102331251644
73.8770433622734
73.7024365683212
73.7398430659782
73.7396057527792
73.5899734323644
73.4053780604011
73.0890191142141
72.916234406552
73.1049315664095
73.0543719427999
72.6606080505014
72.3489541196529
72.0731198559531
71.6403606596601
71.1089359380315
70.5489120938634
69.9296134365995
69.4954117835244
69.1943406931811
68.6000652470444
67.8476998786382
67.1731775354521
66.5540939789615
65.9529245582749
65.4649200097454
65.1943822223927
64.8867015255531
64.6021057029579
64.5129227840371
64.5150875908064
64.6787906413946
64.9174090702579
64.8841045555557
64.7726561601723
64.9843612943486
65.3388896111699
65.5346609690033
65.6879821496055
65.8988998689405
66.0944903153305
66.2952412022854
66.7025656382914
67.169957332916
67.4540326460125
67.7395797856829
68.01559945402
68.2065223949284
68.5897897814553
69.1296031496176
69.4814704301095
69.6839315918387
69.9124101836286
70.1938727696839
70.4454286952876
70.6527583852773
70.8512845264644
71.0653004764105
71.2650613570196
71.3809126350661
71.5237086873469
71.7928900009952
72.0507219887173
72.1995351014803
72.2727540219855
72.3290640564783
72.4052564674828
72.4487113037363
72.4528646718813
72.4485473861591
72.4083358576792
72.3425014100775
72.3378779507685
72.3483847207154
72.3304059845706
72.3351785070746
72.3568433727937
72.3516847933651
72.3308858082897
72.3334033783834
72.3761958172706
72.4881039675779
72.677780720126
72.9201936168315
73.1837966759265
73.4464097282344
73.6942403762475
73.9280735591665
74.155537600841
74.3733109828766
74.5635383383949
74.7198675583291
74.8610813585192
74.9896393826695
75.1254089286628
75.2463420451978
75.3281581416131
75.4410309577972
75.5767606084825
75.672366382156
75.7320982041091
75.7948999641188
75.8613360901546
75.9148062644262
75.959198983724
75.9783675971383
75.9938277099708
76.0240356669791
76.0344520954588
76.0270147825947
76.0055436709783
75.9624175465402
75.917717327987
75.8945348015173
75.8665853809882
75.8189639426487
75.7749783599966
75.756364016193
75.7756303321928
75.8120343135063
75.8450256141393
75.9269327942651
76.0415730521244
76.1364938899453
76.2401144564893
76.3681469863065
76.5118938507588
76.662633863854
76.796291447719
76.9308434646083
77.0974026751449
77.2708858376604
77.4344912745266
77.6255842006165
77.8354565303964
78.0618333056339
78.2956021595822
78.5076095154904
78.7309144940298
78.9841549213703
79.2057899184185
79.4198025801117
79.6104215347721
79.7381748207859
79.8604018810826
79.9514430473617
79.9667171969446
79.9375736926538
79.8690616206408
79.7500716022707
79.605170110519
79.4793538954955
79.348068287786
79.1876349522358
79.0192936651147
78.8491984015707
78.6812018649012
78.4938696320464
78.2776634497912
78.0643268141115
77.8408904526054
77.6042613218041
77.3593026198094
77.1095339588664
76.8552465567759
76.5810388506232
76.28192269726
75.9522130527037
75.5583288950057
75.0841305287503
74.561185126016
74.0333716385954
73.4920655635719
72.9136809446008
72.2878274077234
71.6401041705551
70.9894704917548
70.3572217613243
69.7424547725784
69.1619163854322
68.6909436789774
68.3189671640488
67.9887682117899
67.7262609061022
67.5078798578338
67.2810343738878
67.0035997952659
66.6818039367759
66.3578051454224
66.0543202761004
65.7650545583493
65.4745895858444
65.1961474812302
64.9414986689152
64.6993658755406
64.4849359942491
64.2888955714602
64.0743639059411
63.8570122344088
63.6574832434341
63.4170452889485
63.1179213224962
62.768814966001
62.3806144818742
61.9464594814019
61.4850136717761
61.0072081072725
60.4871941557066
59.9381411540572
59.400174389071
58.8567578154513
58.3087473940721
57.7819444231253
57.3005789621294
56.8369019719258
56.3976083606227
55.9986105076112
55.6427960356485
55.3144183787866
55.0192865051452
54.8041565843446
54.6950242735363
54.6642745258772
54.7129973799968
54.8557893529829
55.0841110859049
55.3963394111105
55.7774997022071
56.2177038813875
56.7435703229847
57.3169360043054
57.9413823968218
58.640096473625
59.3825963627562
60.0868253947607
60.7878288580498
61.492258351221
62.1110829835844
62.6332332155162
63.1105879039051
63.5061964540345
63.7764068900002
63.9874178734138
64.2058763124395
64.4388030795323
64.7008461126607
64.9593115042271
65.2247790613522
65.4880098442897
65.7370079247289
65.9475481036543
66.0924493432828
66.2101386355125
66.3164810271626
66.4082028536321
66.5396200049151
66.719012629554
66.9626125998069
67.2771195810082
67.6540489779648
68.0791494942055
68.5412164588982
69.0070664184279
69.4570040018889
69.8998857528486
70.3698576443349
70.8406635833822
71.2854592612774
71.6856112658784
72.0760007459896
72.4570003344186
72.7864744706
73.0821199006502
73.3752068399897
73.6363950669082
73.8261751361509
73.9076761682634
73.9075219260006
73.8493568421979
73.7549282430749
73.6339076719295
73.5018545313354
73.3888747817741
73.3461237337631
73.3563104061553
73.4223685956845
73.521849010268
73.6552407407083
73.8021486581874
73.9651744484698
74.1711243752653
74.4182747395402
74.7207173752081
75.0964204319632
75.4585105703802
75.8013277900382
76.1224862317459
76.3825173184623
76.614896288399
76.846952906683
77.0336506514357
77.1806400119665
77.3210545135867
77.4844427281946
77.6308461613489
77.725150412567
77.7485530612142
77.7273841597945
77.6682088432384
77.5727420619381
77.4228507824499
77.2265592620498
76.97924916082
76.7742493121603
76.5793989196405
76.358515311344
76.17577520238
76.0409599035678
75.9563007510446
75.9045866135491
75.8118856649475
75.6886006079983
75.5562444343282
75.4656133052679
75.3900972471524
75.3073714384585
75.2173047125768
75.1548211858971
75.1100485847277
75.1023067503701
75.1353912279851
75.2152959185543
75.2906279757406
75.3553184684611
75.3539535645194
75.3343271005098
75.3422308917781
75.32471129169
75.2513136757691
75.1514195504077
74.973395466996
74.7599008512841
74.5647778865905
74.3864574193138
74.2523014683895
74.1661249704574
74.1309564075975
74.1486087481449
74.0969929861416
74.0574956612102
74.0661346627837
74.021960847197
73.9171537939524
73.8236735009309
73.7257025506606
73.5852264578342
73.3998304677038
73.213948076252
73.0402757942867
72.9419187623329
72.8450847903107
72.7575347378985
72.6746584327309
72.5677949841555
72.4390496255836
72.3437542570834
72.229312591557
72.1238875616983
72.0346000039317
71.877150170068
71.7288344561904
71.6400783631812
71.5237369882092
71.4078516207874
71.2780404573193
71.1738487328238
71.074509485648
70.968569713568
70.8509971845621
70.7056854957801
70.5358419967359
70.3991178861334
70.3011414124853
70.1658796190971
69.968292864223
69.773117195054
69.5060110350809
69.2603506909615
69.0596242312485
68.8094910501653
68.5713039464642
68.4190409898771
68.2337273478291
68.0891793400385
67.9954565887525
67.8815742053317
67.7498213639252
67.589821136875
67.3792808207073
67.1798577746759
66.9795871857928
66.7972931776562
66.6170284936387
66.4654270488606
66.3642607907913
66.316602616734
66.2313776206607
66.1532759715648
66.0827281415901
65.9641598587975
65.7334984483487
65.5268615329829
65.3055032457063
65.115639226984
64.867039617542
64.6085123155718
64.4093401498734
64.2688143574298
64.0450980750107
63.8130462710851
63.6366169089303
64.0690368239674
64.2237349741709
63.8982943579739
63.7105816370208
63.6337244960572
63.6410524295145
63.5995372692197
63.4872720808012
63.411980713748
63.3530422770578
