1798
3999.43349933624
650.420452594757
1
128
4
99.7760130759457
99.7917481075972
99.7518849442802
99.7163483950191
99.6233462203469
99.7382602036893
99.7060260728017
99.6984615342477
99.6706296080773
99.6699106347491
99.6723735611075
99.7232877790068
99.7352657786175
99.7347483187371
99.6740062674192
99.7778783514171
99.7517245428738
99.7774992394067
99.6752238994986
99.7055608924454
99.7216660760348
99.6748778092828
99.6509664541886
99.7285242952784
99.7279160961591
99.7745978519508
99.8352938044416
99.8267229941021
99.7222766530339
99.7845716017744
99.7740946054295
99.7921852877504
99.7343537153282
99.7743595119895
99.8485346862454
99.8913398187576
99.7699017100263
99.6466917933015
99.5969723030863
99.7113852170984
99.7430936787533
99.7295796551624
99.7991659424322
99.8874858329104
99.7616691606723
99.6392899250498
99.6013883860476
99.7159436547886
99.7318329367572
99.7987881071336
99.7910212843791
99.7916230925072
99.7878257359185
99.7119466961031
99.5935651417984
99.7629882771983
99.8848480031198
99.8649717023345
99.6536775178884
99.7186159211762
99.8395591769049
99.8745369505819
99.8112218954072
99.738627543421
99.6001252662133
99.68335435297
99.7868069193134
99.9917539522488
99.8802689292119
99.594839338748
99.5069675708551
99.6672242609417
99.7077110118468
99.7205906474527
99.7430972997236
99.7984221841044
99.8768017816827
99.9726193236961
99.7090518445077
99.4017261744193
99.4068491816064
99.7313586623386
99.7838280834723
99.8399094695321
99.7892698174137
99.7147559182949
99.7097088287253
99.7177436011342
99.6085275367933
99.738128847429
99.8035103849339
99.8446369653719
99.7978950279469
99.802630289117
99.7095372163114
99.6382434747777
99.6518316698947
99.806900866813
99.7460638712476
99.6991409597076
99.6421717277678
99.728141278198
99.7546683802378
99.6851492069225
99.6351318678147
99.7350855748664
99.5825204285612
99.5511674052706
99.5618730523432
99.6441905554607
99.6589821304785
99.7413514555204
99.7083426060304
99.7487731547434
99.7313775823484
99.6614230884642
99.6325657670841
99.6458041960086
99.6657489289459
99.6366723959365
99.5321328291497
99.6468898322791
99.7047871124699
99.6127395656105
99.5560717051868
99.5690850073856
99.5128812907413
99.5517492180795
99.5291752636302
99.4742224827279
99.5611183019583
99.8393831102017
99.8407000472739
99.6355442659344
99.4949630016653
99.6244349786644
99.5622984327307
99.4521929291811
99.4033932985945
99.608401296462
99.6721224688854
99.5748283106334
99.5144930789814
99.5008162205071
99.3187146201491
99.3576876311617
99.4680220437786
99.5749151107033
99.4506438650976
99.4636000158285
99.4211625394799
99.4444926851925
99.4110275023473
99.486386531374
99.4309422776486
99.2395298432659
99.1124224723606
99.249213288684
99.3317821635923
99.2397602985068
99.0869588066858
99.1294080716864
98.9597200260887
99.0626246412782
99.160765675948
99.1454055842212
99.0034518661451
98.8042961627697
98.6660218841635
98.734289187988
98.6532042649917
98.6822513846308
98.7293540220862
98.7081749698127
98.3132931781099
98.2058908415688
98.1221666071782
98.0000270279164
97.7952558521843
97.733344925635
97.6679146850501
97.7109871511166
97.6470079300089
97.5211711373254
97.2270187741626
97.1561563930155
97.1863008874097
97.0714176233563
96.4535846469602
96.1358590774899
96.1071608269902
96.1355863425716
95.9721992048628
95.8122495077106
95.5392038257672
95.4400440612439
95.3788116137071
95.3749707268162
95.0761168110388
94.6887088827024
94.4340971703758
94.3816154890508
94.292109298124
94.2319769836457
93.9548218288218
93.71370549956
93.4403594839296
93.3276256622705
93.1884806621762
92.9040006513656
92.6120584044958
92.5093378210324
92.3551214716298
92.210195120715
91.9573549795704
91.8192466591468
91.67081878108
91.4112685937434
91.0345619969995
91.0393871741422
90.8069883154086
90.3881044469234
90.1922847813515
90.2182877584229
90.0300558611181
89.8506248858628
89.5168165847738
89.3334374217735
89.1212354422677
89.084245850487
88.9087080519952
88.5951245756661
88.1605321985105
87.9844245237123
87.8325879227468
87.6378286993156
87.4287394182701
87.2318382435855
86.8822734166598
86.6800324773721
86.4519864295961
86.3640379259286
86.0298518157982
85.7713756953732
85.566258316242
85.3051226307412
84.9995723691018
84.8125590531931
84.5440641246977
84.388470909917
84.1628354754201
83.9881405296194
83.7190363285648
83.4418906805937
83.1427634133203
82.9239496424488
82.5771118949176
82.4249957605207
82.3025441450914
82.1450354108385
81.7757178339792
81.5195582974676
81.3225775375384
81.2151912074153
80.9512957060948
80.7117578939869
80.3599530204016
80.0943931365236
79.9219757473716
79.7628811567075
79.4061962036286
79.23312379597
79.1350036135872
78.9414366031161
78.5124278029588
78.2911162349012
78.058269126429
77.9404962739465
77.7864133114959
77.6005975321346
77.3364501680404
77.2737474212677
77.0939562801993
76.9549347350926
76.7072440307848
76.4349135615551
76.2263412137616
76.2436433939177
75.9822820813837
75.7260293446236
75.4716481689917
75.2238141326903
74.9319891104021
74.830384550956
74.6716285157764
74.6509969047757
74.4557386874026
74.2639854857246
74.0614071740507
74.012807905178
73.7325493273829
73.4104400289439
73.0888968234379
73.0641789635157
72.909937805008
72.8939569202154
72.7632269869188
72.5945031782217
72.33080566893
72.2327465398233
72.0841031100015
72.0227351103581
71.8720091807401
71.7686512662902
71.6044567509432
71.4284472520051
71.3145321680944
71.2513456919785
71.0648812587696
70.9530183067595
70.7362820411355
70.6545997703677
70.4853402858034
70.5017720753235
70.3858136567026
70.3195084567351
70.2232639586886
70.1912377037962
70.0223669447955
69.9614558277788
69.8028245139206
69.7484657336218
69.6526842366591
69.5688501843196
69.5211663161912
69.530184493852
69.3342424793529
69.3130481261222
69.2102104170668
69.2135102476327
69.1684355963369
69.1178917132153
68.9688296399477
68.9796897911115
68.9971809579806
68.9476001058307
68.6940969349293
68.7370133507414
68.7852447026059
68.7903291262811
68.7311832538856
68.6518407677126
68.5409783985043
68.6700983583547
68.6701115731161
68.6772157104116
68.6037026605713
68.6235400388101
68.5788293591186
68.575265549529
68.5411920730144
68.6013703935775
68.5305615576258
68.5326267681265
68.4682626740897
68.5587690036451
68.5645219682483
68.5335627201308
68.4624488948274
68.4592557151624
68.300812079786
68.316377501587
68.3517660494125
68.4820578470707
68.4767048299817
68.4629393943643
68.337192999808
68.4095769573404
68.4171405195682
68.4493870174721
68.331182564475
68.270098414063
68.2170639660411
68.2747241086702
68.1914377413458
68.2812701953779
68.3037242149432
68.2226952898924
68.1650095444973
68.3240716283326
68.3256251148069
68.3729351281442
68.2721913794352
68.159520018975
68.1548287711094
68.252119894428
68.1887705355764
68.2452151063479
68.2841562294823
68.3498190572526
68.3011473827596
68.2607235721286
68.198420161691
68.3196916996909
68.3939454079296
68.4900071392397
68.3970106646445
68.4288505869086
68.3665469648319
68.436122723005
68.5004465814055
68.559985531102
68.5160303034775
68.592834126986
68.5876880050759
68.6929656955208
68.7529465770166
68.8166050280714
68.7974455555387
68.8926639005755
68.9322401906763
68.9417081013521
68.8838387595974
68.9068460709397
68.9775254873011
69.1592262203452
69.171359206009
69.3135211446193
69.4142302339974
69.4694151388339
69.440499616612
69.4969075757069
69.5163842475967
69.6819457855938
69.7619150990475
69.8115043108588
69.7765689886155
69.8540034269764
69.9741777769311
70.1224264400561
70.1703011667026
70.2605209971224
70.280705211611
70.4274698089698
70.5429900182089
70.6271258458504
70.6267552461455
70.7537617878387
70.8747800062131
71.0083088836823
71.0737587807311
71.1670830594938
71.2884380515525
71.5545227429213
71.716108742041
71.7899045798638
71.7973006762409
71.8514985453304
71.7886352131476
71.9190527855322
72.1279269009521
72.361691888588
72.4117370388705
72.5257778404893
72.5011609404351
72.5777800332898
72.7693127243756
72.8872721375581
72.899511128149
73.0490796584903
73.1542790765181
73.4497694525669
73.6577297709101
73.8664288965994
73.9467720398969
73.9673723259762
74.0023334615962
74.1813726323891
74.2192103848177
74.2729366631332
74.2742034941183
74.4256065138624
74.6153317572019
74.7506278170688
74.7792003012656
74.8527187438714
74.894626645295
75.0456610264201
75.2380030829673
75.4412239054712
75.5333896742109
75.7212054295621
75.8359512854875
75.9978535126795
76.1223231503462
76.2441332787151
76.1255684836766
76.1761826501264
76.3400555379843
76.5574224384372
76.6664257390091
76.6907664118836
76.7168193057452
76.9151064548284
76.9901502077406
77.1013986978224
77.2272709245988
77.3211183594835
77.4170375084487
77.611464681523
77.6378926416117
77.7861655178863
77.9244808218354
78.0411601971276
78.1402714033341
78.2633703430396
78.3240645814199
78.4971723833859
78.5867428404525
78.6445814220797
78.590318054002
78.6366730857049
78.7615551183832
78.8982767039274
78.9184475748012
78.9996163233248
79.0328621617955
79.0909528827187
79.1433124187069
79.2889467188926
79.2390498038745
79.1945009713272
79.2384539295295
79.2408024580718
79.1984842029272
79.3039124703506
79.3052657817507
79.3658393273202
79.3625248196033
79.3814020701749
79.4101400174086
79.4058053597719
79.2379566315911
79.1399331460334
79.0364897643556
78.9317776927873
78.7550938016195
78.6602672300149
78.4563872777412
78.2183147236249
77.9388399686869
77.6867097627412
77.4018300640916
77.241123706077
77.132580368735
77.0603870035977
76.9703935593297
76.9434104489822
76.889855769259
76.9022580941582
77.0093261781896
77.1956904446192
77.2780398046829
77.3748822941537
77.512069621814
77.6754574922595
77.6895779349213
77.6950985373516
77.6123875754466
77.5798070633397
77.5379956424325
77.5031658937719
77.4161410514436
77.4918274415454
77.6767289649698
77.8593807308107
77.9596063327288
78.2068239241078
78.5100870245304
78.8942256995674
79.2009316642507
79.5125703432771
79.8404440964475
80.1367349755179
80.3919837443855
80.6577908188973
80.823598679588
81.0140261189425
81.2022483060957
81.4024615764108
81.5481831995134
81.7259129181301
81.9319595791815
82.1687598651613
82.296817501101
82.4288116584591
82.5214266711066
82.5706148247159
82.6136303368838
82.689340184736
82.6546068162144
82.6247734623379
82.5793979414622
82.6269779736692
82.7451128267132
82.8594780091638
82.8600914940487
83.014990824196
83.2234530748115
83.3736112990369
83.5952519524391
83.8554946493815
84.0351921422649
84.1862746175087
84.3570652622042
84.5730360370099
84.7135089140703
84.8964208262191
85.1341082399049
85.3264732258273
85.4224276445192
85.5798501690763
85.7831308255208
86.0202383082597
86.1295010809462
86.2718109072578
86.3216350824363
86.3618109154754
86.4591285047674
86.5505637488972
86.5988056265328
86.7072173162244
86.813322010799
86.8918287423493
86.9300078954247
86.9961936184953
87.0822756172858
87.179315504171
87.2601330666087
87.351088729279
87.3593740115915
87.3581513684912
87.387092123466
87.5218263372647
87.6210369997293
87.7050012938189
87.7620229220681
87.8506448839714
87.9737218830027
88.130628046698
88.2012731139034
88.2432295842781
88.3167717912963
88.4095561846743
88.4884542589007
88.6247500889238
88.8112897579006
89.0667984717816
89.2154607412734
89.3307180691424
89.4602763657812
89.562690645515
89.6431760193541
89.7908376786266
89.8700786812018
89.9108622469583
89.9795150470404
90.0567190215177
90.0679484412363
90.0946741149762
90.1666257115614
90.2997994532857
90.3711196674226
90.3602499173482
90.376806628903
90.4416804515092
90.452562392312
90.4602688919101
90.5030781381418
90.5607840978605
90.5737148695253
90.6000116966421
90.657717806821
90.7772939791407
90.8407010808253
90.9053367754028
90.9373789224155
90.9134130335653
90.9181339985447
90.9742204416939
90.996560235906
90.9992230609657
91.0539931580007
91.1160088480704
91.1313974931416
91.160042941922
91.1788130299247
91.1833706380978
91.2126500798476
91.2539410111984
91.3260336568186
91.426770768279
91.5277641733594
91.6100958723481
91.6921661969339
91.7914283962401
91.8081889772921
91.9011042638179
92.04419575662
92.0832604295055
92.0958309762506
92.1788269178486
92.2712687807338
92.3092524460523
92.3186724967062
92.3610721795067
92.3637855199777
92.3359180116998
92.3363770524512
92.362287934039
92.402634366587
92.429272360162
92.4010383170076
92.447387069312
92.5169032390386
92.6053873894979
92.6766710924547
92.6701851160112
92.636217163126
92.670724584167
92.6839467065193
92.7428830873645
92.8505120088884
92.8876335586691
92.8913449844966
92.9592976280283
93.0021792644315
93.0781648178282
93.1585984749652
93.1582497931439
93.1175420665685
93.1331494563418
93.2751887273696
93.3736048637238
93.3579018359616
93.3800951815148
93.4598257004484
93.5927305702694
93.6272695921524
93.6162415444246
93.6053554580133
93.6428544321381
93.6861773052746
93.7630259009113
93.8380551213611
93.824387043631
93.8165671894285
93.9127283233536
93.9284813998295
93.9036300664787
93.9356059418194
94.0064735735401
94.0326195766464
94.0374885875445
94.079819115733
94.1982618752355
94.1953554513236
94.2148032863828
94.1826801637425
94.2264265761674
94.2845757450981
94.3422611585503
94.4089176786541
94.4442416317699
94.5191620357061
94.530299853249
94.3969806555933
94.3467654083899
94.3235001236738
94.4048790599659
94.4357360568059
94.4857871939509
94.5631397390818
94.5887986181208
94.4964970696731
94.5004335803408
94.6099438842697
94.6674165343431
94.6407495302433
94.6393231494902
94.5631021279311
94.5878968451155
94.6817570951445
94.824369125006
94.8131706136573
94.7232318290075
94.7880459184062
94.9129477988325
94.9423177660458
94.8295448956152
94.7450235640981
94.7927032037676
94.8391723141076
94.8621922490063
94.8901799254357
94.9509590075074
94.9423068187888
94.9278979406234
94.9819256381801
95.0139482323812
94.986526930405
95.0494788320546
95.0430994671655
95.0586977878178
95.1226724409697
95.1180643410943
95.0879006287547
95.1134830942896
95.0914604999059
95.1219594222766
95.1482574038782
95.1318463486395
95.2251036953677
95.3105793126317
95.3549154612979
95.3547353597569
95.289242007901
95.2781875835676
95.3180233054795
95.3775342349794
95.3893148422235
95.3257614618862
95.3512911910583
95.4869611714667
95.5424965766277
95.4308126379844
95.4501365753494
95.4999576570074
95.5117793525339
95.5326828297776
95.4562380437091
95.5506012566637
95.6337499172504
95.6009256606702
95.6789180380631
95.6685298953802
95.5717550623807
95.5727110879811
95.676022695498
95.7859985362689
95.8021358392989
95.7704454214527
95.6780329914541
95.6059307182897
95.6928636402525
95.7899604458047
95.7985897758875
95.766736588165
95.7557051208955
95.7753568196865
95.8085373514905
95.8268588008876
95.819924902966
95.8443853616757
95.838694235853
95.7893445702764
95.7771020891052
95.8100440061229
95.9069074078916
95.8927466553079
95.888478047575
95.9377162116827
95.9394526586458
96.0907027635442
96.2096855268625
96.1787919700071
96.1853539445739
96.1971556945967
96.1557465440843
96.171058696089
96.2259008347158
96.2049597245422
96.1223893290551
96.0539044878522
95.946599613903
95.8342207845443
95.9078118658154
96.0173063061691
95.9642947646578
95.9342141159902
95.9142912666889
95.8986803450792
95.8862602057299
95.8715502997214
95.8089154608497
95.769755820592
95.8848026359493
95.9305259593573
95.8287607416714
95.8620283623896
95.904220154952
95.8274729520346
95.8267943765126
95.8929679468773
95.8978081392606
95.9974985088621
96.0842058732015
96.0401450166701
96.0321643240399
96.0534295398826
96.1073786416973
96.1755687140659
96.1787672847351
96.1508762269659
96.2777941368228
96.388059280477
96.3896182254196
96.3164077153585
96.3455260739332
96.4123008871171
96.488773960097
96.64746561574
96.6827929558026
96.7413739247361
96.8270655114086
96.9291287226406
97.0429240148117
96.9375027894632
97.01080800398
97.2436679076086
97.332367389985
97.2558831719985
97.2417286431103
97.3873914139222
97.4457842043131
97.4249490949845
97.5502942973886
97.5838247989835
97.4954517826851
97.5197413886894
97.6964278597051
97.8008985792519
97.9759273687083
97.9923821980487
98.0133256663717
98.1566477044563
98.119785990998
97.9913850052849
98.1608815471954
98.3386983523317
98.5002982744383
98.3269883090432
98.3284270257567
98.5215326781206
98.5996357764295
98.5927379895808
98.6983281108228
98.7261250701789
98.8570896023285
98.8635136564198
98.7309292455059
98.8359708411505
98.8659363055943
98.8740955933644
99.0629500716128
99.0236278328037
99.1291534534915
99.3823301151512
99.6363147947825
99.4813289696424
99.342040593483
99.4885885317793
99.7956831387597
100.08622829779
100.314522302937
99.9981768303774
99.6698779748937
99.6484633430236
100.109514639785
100.381404141254
100.459534623169
100.783248451691
100.831891555108
100.416136877929
100.851922685048
101.302671978073
101.35533796858
101.343159818342
101.460424034386
101.222727426782
100.612708958497
100.289347502752
100.503233528271
100.253067265486
99.851317696658
99.6673136656331
99.5444933587502
99.2161181560801
99.1097507628124
99.0213369437129
99.0118319150645
98.9643840759473
98.7639867956437
98.4433976717833
98.3280972063416
98.2095194471802
98.2952313844196
98.29018345397
98.2304205621798
98.1291536298525
98.1452645498447
98.1119166525352
98.0979397595844
98.064962692783
98.0752323906287
98.0982489573874
98.3035745334852
98.5527810557017
98.5822282519053
98.4089518426293
98.2059708686192
98.1895256654968
98.3233278736122
98.2328391023239
98.2580412803297
98.4257216431556
98.5559755158851
98.5402164803753
98.5703059522238
98.5630031165421
98.5676285648165
98.6516568535121
98.6496898935474
98.681355649402
99.0130681869606
99.0294728427602
99.1184445602886
99.0354748290674
99.0356747577178
99.1438415188775
99.3560380940274
99.3076643927711
99.2600194343469
99.3665705627829
99.6269441065654
100.035831733529
100.497736663484
100.788719112731
100.696720482106
100.748420824571
101.123293383415
101.076738688999
101.094103757029
101.110705289131
101.447716296442
101.688354800114
101.605785119813
101.429234611406
101.122452055815
101.101491110052
101.489441222071
101.581857948177
101.598366542588
101.550159565523
101.585813392389
101.359033729871
101.136939274412
101.036985396395
100.990088064395
100.891579232959
100.775054625574
100.341418686296
100.163336752539
100.248884565156
100.154443757409
100.142313636253
100.530626825485
100.640018294084
100.61061070509
100.403940710183
100.451212554881
100.372645862188
100.341970532666
100.877334937846
101.294356273006
101.336181037757
101.25029765385
101.097844026065
100.877463290256
100.604815354926
100.68074140717
100.591690130638
100.471784339334
100.085873304391
99.8463131232871
99.6017171042361
99.5868012852367
99.5288646584111
99.1649295478578
98.8274101453621
98.6881087707615
98.8060965146151
98.9032052965077
98.6393080325349
98.4194886113722
98.2846080748682
98.4795753439409
98.3732743962008
98.1520962660175
98.0495084456746
98.1305674451177
98.0708406464329
97.8928525959618
97.8179887127829
97.9440543480748
97.8943954370655
97.7308978632833
97.5276518438414
97.484705028999
97.4803963404071
97.5479200640278
97.5588245515747
97.4302940855987
97.2027670181121
97.19707962529
97.3415217539806
97.4455846706622
97.3569257005059
97.2897331522121
97.1528281810249
97.1274564600428
97.1743477241568
97.2606536972769
97.1877725902423
97.0489580531657
96.9495167263843
96.9482956267475
96.9511700818622
97.0023209665856
96.9312560100023
96.8693114353782
96.8642235849015
96.9955794283572
96.9603228742946
96.815787002249
96.72813693195
96.6912285479182
96.6882608171307
96.7221319030742
96.6846990919104
96.6427105756879
96.5746376656525
96.5556153962625
96.50825830323
96.5513921227046
96.5886312024444
96.5870095237852
96.3378737712192
96.2676862070585
96.3196519496264
96.2419607664318
96.1814595213331
96.2908228520196
96.316127471708
96.2368022882258
96.1018134016148
96.1045052482276
96.1293863701315
96.0880470313426
95.9416160473239
95.9295048087222
95.9053010063807
95.8547346153041
95.8364359701241
95.7955122459527
95.6632171408382
95.620089861897
95.6263433417915
95.6678635364606
95.6452609605541
95.533292476495
95.4640941438996
95.5315119696039
95.5774860686324
95.5183196153255
95.3167783768871
95.1960341075827
95.1662637507882
95.1725020769637
95.0986124047519
95.0392568041885
94.9607809606663
94.9230009403102
94.84835608382
94.731711208712
94.5706423850862
94.4622709803772
94.3472198376034
94.2298492538558
94.1173624698824
94.0138356237822
93.8467065015382
93.7189473686489
93.4910317159277
93.2765144266032
93.1447636422499
93.0542669964754
92.7875546323664
92.4974702728553
92.2445749938182
91.9649232816361
91.6405389414601
91.3716937221009
91.0902723390451
90.9101385129761
90.6509996337247
90.2484874237733
89.921634375876
89.6972668746189
89.4466724127196
89.1898792092132
88.8540901676866
88.5700810357217
88.3045706367821
87.9368016235416
87.4518761312138
87.1326703215267
86.7163320773817
86.2340002000498
85.7255568275316
85.1930979663449
84.5144165963612
84.0266563289275
83.4032622886463
82.5198120989532
81.8735166218518
81.0699671853094
80.1647067591153
79.4417135821788
78.5891125420787
77.7543020989033
77.0188461653154
76.1242257678557
75.3115481902178
74.790312256029
74.1845437066342
73.5277987042837
72.8525285574221
72.416908022186
71.9880588152932
71.4948435886199
71.1552042210545
70.9158424234566
70.4687846447484
70.0246677339581
69.6751702930685
69.2854315213193
68.7864661272291
68.0940682162147
67.3052665691786
67.2329071523853
66.9431900574716
66.4116853153502
66.0338170493632
65.8744591566427
65.6098470587899
65.3696774322019
65.015683953187
64.6185862985338
64.4656160605035
64.2879699553901
63.8244384223788
63.2240975318675
62.5146062908714
61.8010971161815
60.9017334435004
60.128233865504
59.3632964968306
58.4459938310443
57.4361705775485
56.6726661788997
55.6791398466106
54.558881262561
53.4000658402314
52.2702192132729
51.0695590755957
49.8921224660427
48.6393394099801
47.4346122932526
46.1906783168628
44.9478818271573
43.6342229040697
42.363287911985
40.9384052415234
39.5363744301307
38.0274515425559
36.4933098598795
34.7879095416492
33.1017212150373
31.3809584693569
29.3429678037326
27.1233126741467
25.6426074312621
24.0978442300744
22.573180085858
21.5072156061228
20.8387288050384
20.2645888419935
19.8887967747545
19.3573800303732
20.516848625591
21.7968220378344
22.9422600461771
24.0962831229192
25.3472901432247
26.9537389459843
28.3225553466161
29.6187494031771
31.2075311782946
32.5962400058143
35.9857439225364
39.1113879286177
40.1645158816471
41.3178862129656
43.7992064631845
45.4748768113117
46.6235116142208
48.0989238270276
49.7570481788554
50.7286471529513
52.7597138918987
54.59956122745
55.6955588359933
57.1374551244716
58.0355412664473
58.6947493386994
59.0013455131792
59.0008341497429
61.1404720908978
62.9061549172636
63.1079734620693
62.867633214048
62.6266681678091
62.6284921767042
62.7333954536378
62.3246746744836
61.5134151686331
61.1650211311469
61.2763940880695
61.403188221798
61.3609564642318
61.3034442306797
61.3408101326215
61.2034408568679
60.9070819890055
60.4994605785464
60.1110531850634
59.9440166321586
59.4035325462229
58.5615219435021
57.8982605098429
57.7692538909797
57.5238886366803
56.9343339167051
56.3650451937157
56.6054670215853
56.4052032518786
55.6714295204009
54.8321671113371
54.0195749261411
53.3562597343462
52.5978047278314
51.5877253883304
50.5221173836153
49.4561273539796
48.2902380976883
47.4744944012691
46.7396818565049
45.7337496983207
44.5888584515524
43.4233854336379
42.1535124621905
40.6955388540534
39.2929910513863
37.7856410564985
36.1333756307066
34.765528935903
33.3447510560681
31.8830080906944
30.5520461605141
29.5789543979471
28.9112064783753
28.6558618329954
28.8475827779882
29.1826243600597
29.6502505236741
30.4653585414297
31.2577381024435
32.3728802685786
33.4215362267585
34.1190746026407
34.7048167687921
35.6371845059933
36.5521198402004
37.1716641726717
37.7213673641234
38.2255306795795
38.5893820055342
38.8091888769931
39.2298998693653
39.6511306333227
39.8112344822046
40.0158215909855
40.2052228995712
40.2767729970367
40.6500720127136
41.2664739815272
41.5964811339279
41.7374239969085
41.925912025343
42.2609419183415
42.6296554525229
43.0284278361115
43.4713117910455
43.9298783452344
44.3499381397105
44.5940828228382
44.6978417413436
44.9799669269518
45.4109149347144
45.9507759759451
46.6962896420024
47.7765317811531
48.9794885231371
50.0775019320582
50.9636455411696
51.6885012790079
52.2155491542886
52.6161007236077
52.986700728559
53.2931966315843
53.4703892067833
53.6549333888242
53.8240679536955
53.9378518835167
54.0328412510464
54.1117836783952
54.1885107799144
54.3043965634641
54.4881211679049
54.8332145024911
55.3183059271559
55.9079226350407
56.5692395432435
57.3434268816148
58.2260846857252
59.1294062575737
59.9615056971763
60.7521809174036
61.4798259697574
62.1450992134554
62.7395694415905
63.2516323554322
63.6383112228792
63.9574170677386
64.2590450663011
64.5297349876671
64.7857372382162
65.0893937563947
65.4359206673887
65.8839614243604
66.3698401943568
66.8322560133179
67.2316173104609
67.5696440718592
67.8582933000772
68.1096654530958
68.3109484612744
68.4750717725865
68.6093934839542
68.7717417464955
68.9507509617062
69.123193368453
69.3183444684337
69.5369996078765
69.7021918491687
69.8009117812449
69.8113304241009
69.7212390150436
69.5724905921234
69.5397594405785
69.726442775999
70.0125117437082
70.2758171110761
70.4906548974338
70.6947038614488
70.9025288434504
71.0753670217395
71.2296038742908
71.3567531246636
71.4670310107417
71.5205136409262
71.5422626146809
71.5696347283585
71.6033883406772
71.5991017831923
71.5298922458755
71.4394574643359
71.3529999585727
71.3035278708901
71.276894045882
71.2365280740502
71.1418436236845
70.998541853777
70.8375813767685
70.6053458874315
70.303689245004
69.9945089232618
69.6785460080844
69.3750600852403
69.1174052121787
68.83858915541
68.5126449986748
68.0914055959438
67.5637963367503
67.0702044892723
66.7895942644508
66.6934790031093
66.6159785915246
66.4720051434543
66.22209848859
65.8492629271252
65.4148632534225
64.9699543741885
64.5973846681533
64.2730532900767
63.9717724438273
63.7099301703718
63.4673935726172
63.2050329775436
62.9602667904266
62.7037787970932
62.4378824855695
62.207592983502
62.0498758838723
61.9557690871377
61.9192120711962
61.9396682282517
62.0069558095463
62.1102504372945
62.2465935962163
62.3823822681655
62.5155276587497
62.6246793666204
62.7147477744365
62.7711454715003
62.789114265165
62.7795798529632
62.7315405901051
62.6258571241129
62.4687144744475
62.2853016125581
62.1276517184357
61.9658096203273
61.7794795878761
61.5816831668949
61.4035249639503
61.2223341725451
61.0511526657534
60.901103965333
60.80509274554
60.7530355247848
60.7135470157493
60.6668028007347
60.6378642667258
60.597834426076
60.5457656587722
60.4625511511146
60.3064646400096
60.0327879643758
59.6655805372806
59.2530535747004
58.8668418841446
58.5608374342773
58.4305646894706
58.5711538600668
58.9714305122539
59.5416804705045
60.2068293619077
60.8419502230583
61.3559620725088
61.7028121561083
61.8891197934969
61.9150864044964
61.7719471041379
61.4543317753366
60.9935242810678
60.4506838499207
59.8917195861817
59.3572591880106
58.9323645673109
58.6726437955379
58.663506177767
58.8775964945369
59.2731146940045
59.7990476353238
60.4413570953296
61.1194075578518
61.7664687478266
62.348464622573
62.8474723303987
63.1890476843061
63.3958282176093
63.5143190788077
63.5973595390177
63.6597019324192
63.7667421646849
63.9777811047183
64.2964531448599
64.7200725262336
65.2321235480861
65.8081919137411
66.4639814952699
67.1345818302784
67.783740443536
68.4192735416595
69.0077691159939
69.5032470891841
69.9457174916946
70.3492431448213
70.7645922582309
71.1860170437626
71.5794728486845
71.8973193691613
72.1595699740838
72.3717871101766
72.5683426443177
72.7171245302119
72.7797079043106
72.7951542721169
72.8017544806018
72.7381002467093
72.6165618497581
72.4409419615035
72.1470937437522
71.6906348764438
71.0448900328079
70.1423552570685
69.0684875654759
68.1543081337036
67.936162576224
68.5309706669132
69.5899079481924
70.6729318381312
71.6286665286215
72.4609759725249
73.1377166118509
73.6333334027867
74.0127686109686
74.2742322542746
74.4993222108556
74.6905803375462
74.7853963026823
74.7823256126407
74.7713139483685
74.7012936916025
74.5589251476493
74.4158253387618
74.2684285743621
74.0105579959482
73.549127836957
72.7247752732468
71.6620536832841
70.6329713472237
69.8903468920105
69.5268651041591
69.7141940710937
70.2844094068954
70.7494670200711
70.9419135347267
71.0060803566148
70.9710078718176
70.8803395033782
70.7361290191201
70.4728713427852
70.0491274477644
69.5442932172001
68.9216650124343
68.1137619070942
67.2054753447639
66.4230527869775
65.7337138078745
65.0066414480604
64.2347864152591
63.5941728774066
63.1182269991339
62.6444862562005
62.0793093146386
61.6305158954887
61.5469421884731
62.0166799772834
62.7964164411945
63.4698014306565
63.9477673873345
64.3783590112271
64.6746363573397
64.8375298592987
64.8959920483168
64.9615034909487
65.0579101437823
65.0937345183744
65.0649936829678
64.9931194516762
64.8786628922277
64.8428906085002
64.8840014919353
64.9015528399921
64.8174433716225
64.7354720442883
64.5752471829702
64.3769589288746
64.1835421099983
63.972582249388
63.7201191055149
63.4895927544039
63.1426456542565
62.1393255990971
60.7886635499024
60.4374523311589
60.7225058640261
60.8245372164826
60.7086731068625
60.4858195508184
59.9964080802135
59.2342192425865
58.6777779757203
58.7512377956386
59.1025976582984
59.4532377118644
59.6992911262689
59.8390856106438
59.886088708821
59.9385506885092
59.9813831364807
59.9932103140467
59.9447653017579
59.9322281581122
59.8934506849703
59.8173762568693
59.7055500064422
59.5933367653817
59.4535987293408
59.2762411548418
59.0984483559148
58.9562327841908
58.7911374050865
58.6652879984967
58.5607541122448
58.4581835575188
58.3337428916906
58.2517425012687
58.1690411172393
58.0470616094438
57.8451409514324
57.5692247213704
57.1589946984893
56.5736966393248
55.820541621527
54.9973656923362
54.1755296803033
53.6230777298623
53.3763116267169
53.335743821449
53.2571636149482
53.0084363028337
52.6165269968608
52.1925247217816
51.7360341917441
51.3980045045959
51.0757692570639
50.8213025876064
50.6143996351394
50.4830012925337
50.3899823930828
50.3517895468972
50.2183431228674
49.7505514168152
48.9978547436751
48.7954479444101
48.6739796050258
48.3269042642565
47.8422699981073
47.1196053210882
46.1956096587409
45.3037732653539
44.3938419110188
43.4541448467226
42.3512047263128
