1798
3999.43349933624
650.420452594757
1
128
4
98.6639885522314
98.7466936591691
98.8388789605481
98.7851818113163
98.7173488867113
98.6924174319404
98.6704152574764
98.5965235294401
98.6536218837985
98.7059271107042
98.69421991726
98.6822290926763
98.7277537724409
98.7028135553415
98.6413763231732
98.5633701287208
98.679033836815
98.7942901979091
98.7755745369793
98.6765461928039
98.6950363039039
98.7573643793776
98.742165226552
98.6542976718518
98.7248737052174
98.7161826848599
98.6720154523298
98.637990848222
98.6429628809714
98.688336819343
98.7134533500301
98.6658132938962
98.7394459858736
98.8062179113004
98.8091900407515
98.755344797181
98.7712581727039
98.7943456462245
98.7813948626389
98.7936754122933
98.7844286376035
98.6344405516987
98.6317622155556
98.6987032620623
98.6676295022637
98.5689928877269
98.6904094553806
98.7528402148757
98.7219453846207
98.7044094516136
98.7124750516284
98.7330082724788
98.6786617639198
98.5560310560189
98.6787007342947
98.7823960571205
98.8307670610274
98.791353344359
98.7511491983427
98.8033998981466
98.8450294029875
98.642590674381
98.6008407138989
98.6942326575799
98.7370998769513
98.83809731316
98.8181382502663
98.6289628877681
98.7159147860869
98.8117365367864
98.7850863202098
98.8228192125029
98.7393926584654
98.5876812307192
98.6030810125942
98.7246865034303
98.9239866844952
99.0692176090118
98.9388749365561
98.6106613872552
98.5471065099274
98.5752342668884
98.8017706169434
98.9494807887927
98.9152774150808
98.9185992501788
98.9113069024275
98.6344878897188
98.5893297606582
98.6773228008786
98.7149996741248
98.7426216784145
98.8288069563982
98.8462026401766
98.9042916315066
98.8144482052522
98.6982020487684
98.7334943023193
98.7193375548502
98.6323821692747
98.7726852726538
98.8952218450979
99.0055651446052
98.9496162737467
98.9405880502473
98.9447397221016
98.7437619081206
98.6192563047912
98.6780707323289
98.6060353339317
98.7041307800513
98.789583950779
98.8225973548892
98.8593463255042
98.9133296205425
98.8436438010339
98.7560429452464
98.7798300403825
98.7108885168154
98.6316438591458
98.6846070295255
98.7776362303529
98.8927406003719
98.805656577222
98.7499312253543
98.7831429246821
98.8673955366366
98.9110775231381
98.8223498915015
98.6240146350932
98.6958356942423
98.8423556330406
98.9167432556915
98.8498207121169
98.7637961424575
98.645734446413
98.5724605600658
98.3756592948125
98.4981431599313
98.6792033585714
98.8501944150868
98.8044449253704
98.6270350919626
98.5116219487861
98.5335144976329
98.5928973889094
98.6997478084425
98.6931327123194
98.5772403727503
98.5047419517607
98.6522684067489
98.717732296646
98.7173592168361
98.7189738524483
98.7229451074909
98.6206025628727
98.5702854124448
98.5770048678753
98.6424502500008
98.6576332254594
98.6334268385502
98.4948865586279
98.4468215562379
98.5528796497063
98.6247785586968
98.5649303322144
98.4872352130533
98.2174842152845
98.196060882963
98.2661161988813
98.261144588521
98.2497170697222
98.3348383599739
98.3071306388426
97.9895093932176
97.8186978201473
97.8084781165795
97.6655086543508
97.5699375574049
97.5463018924584
97.6420810655041
97.6506494319251
97.5211091920399
97.4087608200833
97.3389579372399
97.2548476901386
97.2853393101294
97.0891242302827
96.616154303767
96.2429233539628
96.2207226956023
96.1885472864924
96.1505630367723
96.0727304429988
95.9289281741999
95.8134419604281
95.7776163310227
95.6692765937881
95.4636607896922
95.0579751828347
94.9218830737768
94.9002775034395
94.9012525527994
94.7397969817436
94.4210508477056
94.1730116239916
94.1203785692322
93.9581710361992
93.6754028492527
93.4212269461058
93.2302318613591
93.0412119009546
92.9641479861094
92.9248464989951
92.7990526572087
92.5869342028008
92.4261164298676
92.2206442627798
91.9958644302782
91.7526763401457
91.6351179389458
91.3288463670415
91.1079280629279
90.9912398296404
90.8334548839428
90.7153842897482
90.536997956552
90.2111768214938
90.0351669789374
89.8844803484119
89.6453063707389
89.4712700447643
89.0901269284398
88.7494721768642
88.6005360571084
88.3918915654364
88.2173349332756
87.9113382798907
87.8469080079123
87.833801873442
87.7190029908081
87.4859294886218
87.18185663315
86.6529175823943
86.2098404888412
86.0686044942081
86.3720808013095
86.3931845827405
86.1651665132658
85.5647281015174
85.2152121785096
84.9523250284766
84.673352857272
84.5393821415162
84.4959005651381
84.3113191292784
84.0926935284039
83.6802394015113
83.374673248657
83.2882685547387
83.535251855646
83.1872186986246
82.5246727923213
82.2017494963969
82.1391084882569
81.9383858472987
81.5582578496897
81.310301694002
81.5211109037856
81.7057383655372
81.6295579358278
81.0271860317065
80.6533935222179
80.4033355009688
80.2302133373839
80.0977451572932
80.0336127857293
79.9250276105669
79.8477896640992
79.6762130428137
79.3485630985308
78.8936993577046
78.6146313623244
78.8331112132538
78.938135657014
78.2322829072465
77.9724796551285
78.0469542516917
77.9779200706853
77.5686960432058
77.1344100079799
76.8908251298567
76.8749213601678
76.6208412364706
76.468816979368
76.3808521260507
76.326513578007
76.0520397255439
75.7293034296617
75.4834248646306
75.5616163934833
75.5835819766696
75.2783198178023
75.0167753858772
74.9443488063933
74.7067446544638
74.5980701720671
74.5257549269791
74.3875970302074
74.0806098627247
73.9095605455288
73.7214112191477
73.626758404562
73.4811992277818
73.4068908683174
73.2667656430949
73.1257635649298
72.8727384415214
72.7340548312934
72.5511685458456
72.353454149524
72.2034977055087
72.1965787337238
72.0476906987365
71.9621441244773
71.8059159176097
71.7075535165965
71.6699630887065
71.6321649615872
71.4340294921372
71.3424936995203
71.2132654710807
71.0763491359194
70.9945063642815
71.0668077355828
70.9396385005486
70.7424657853032
70.5897759896059
70.5437290710214
70.3663571298454
70.2518971750222
70.1617875394298
70.1976257172179
70.1507577525594
70.1180054863594
69.9929602844208
69.9191496112286
69.8433889358909
69.8044402362734
69.7066405535444
69.7574823326858
69.7311566518118
69.6282315522541
69.5293910718118
69.5429323016319
69.4723159291788
69.4113823295303
69.3460221157006
69.380463202545
69.3651268820984
69.3575098090887
69.1610118439531
69.0315182514133
69.0244666271037
69.0631054425182
68.9575149844201
68.8725664124203
68.8471219973172
68.9324962381593
68.869356818011
68.7849672615342
68.7019218003997
68.6926917662298
68.6660255689993
68.6787831957551
68.5805370654885
68.5479253594381
68.4639532679144
68.4212132460352
68.3090957783626
68.3583668723352
68.3439030904261
68.3276168580249
68.2980131684905
68.337960253592
68.3196747551862
68.3323919954768
68.2560924642129
68.2551059812246
68.2312166776948
68.2519852301513
68.2227874014945
68.2479109525327
68.2022487734541
68.2600200548963
68.3036258692598
68.2731644204572
68.1654197873464
68.1878750307114
68.2406186677856
68.3486389723293
68.345326332668
68.3432206794081
68.3352623846829
68.5085146190311
68.5985595796993
68.6793756656044
68.6250738909706
68.6074126429827
68.663654867663
68.7428453156137
68.7811325157994
68.9177313170466
68.9603186963449
68.9979340279911
69.0560669677256
69.1430516592339
69.131274146219
69.2142703631958
69.2516029574737
69.3297894820017
69.4580366542392
69.5730721245691
69.5486879038986
69.6086470481778
69.6608826373565
69.7393502739873
69.819346511458
70.0091191605858
70.0880892600524
70.179708174232
70.2378840121584
70.4090827894402
70.5067328968832
70.6328579052533
70.6890542069972
70.7570355026126
70.7724558852731
70.9537912173777
71.1419524686084
71.2969775552349
71.3722873653172
71.4914523107142
71.5578523325122
71.6858603584932
71.8096863909612
71.9829815637811
72.0700456255321
72.1922866580082
72.2911857720465
72.3575786105103
72.4989362481404
72.8130652516935
73.0137723701788
73.1761690242502
73.2071742129543
73.257979024383
73.3987888820313
73.5822745374764
73.6011564813258
73.8085258485716
74.0703539256064
74.2321973699411
74.244225802827
74.3143683755876
74.466743139804
74.693569375376
74.832865677175
74.9285929985874
74.9780399367957
75.1716681877105
75.405016338704
75.5908068919354
75.6632878665687
75.7409152105821
75.7899141135006
75.9418948324435
76.1454062997428
76.3122718593947
76.3085372646742
76.4530137590723
76.5507743478373
76.5945187025645
76.7201761809877
76.8779137161287
76.9698648614458
77.1516730436384
77.2750492244172
77.3919419021884
77.4814225117357
77.6529679933535
77.7532801144068
77.840250168941
77.964357004255
78.1504407804322
78.2419115394639
78.3338859258338
78.425915900745
78.5436777933091
78.681762257322
78.821860573709
78.8965998561868
78.9784311762017
79.1152765204753
79.3197780486447
79.4341800686036
79.5698539748943
79.6867869067728
79.8198221368373
80.0023901719082
80.18627661584
80.3370687986357
80.4822565350265
80.6424222357269
80.7833071633926
80.8268508025509
80.9357296020341
81.0489470359853
81.2512607444524
81.3771255977348
81.5016106945905
81.6179838590521
81.7205134314342
81.8392081031648
81.9986905122074
82.100784631625
82.2367112474876
82.3497973456523
82.4695252284467
82.589676751635
82.6648971778871
82.6196697709656
82.6711442250098
82.831226795547
82.9083593312638
82.9462851557521
83.0653786318278
83.0812453478406
83.1020109381715
83.1440424362793
83.2061228113079
83.2040701065921
83.1374408819786
82.9911706235764
82.9152785554565
82.8977964355951
82.7822322150396
82.5378977162098
82.3891615402491
82.2729017300053
82.1156642387781
81.9004626148717
81.719478575027
81.4881017480475
81.3332453580942
81.1774951066087
80.9589738497206
80.7754478857261
80.5994835075559
80.4323623862396
80.289307958459
80.1669530625542
80.1172581566069
80.0166496756745
79.8775541964616
79.7211482085853
79.5351188261312
79.3290324500659
79.1402914863221
78.9546387290829
78.8244467101082
78.7178595132241
78.6439776574591
78.580910151549
78.6044522688012
78.606415178164
78.6455889151794
78.7569332010886
78.9400606621618
79.0820426215676
79.2551322349108
79.4651160753109
79.7428479473245
79.965772241986
80.1340252186095
80.309487976998
80.5099944652126
80.6527584465022
80.7812056386574
80.9114324488518
81.0158127727206
81.0798229099047
81.1663771089174
81.282399063011
81.3607219338971
81.3080545333849
81.3060410458336
81.3192520014901
81.2867091919318
81.2533597741444
81.2284589964603
81.1989236506861
81.2174304398444
81.2278488770987
81.2640213076977
81.3305436778287
81.4585132917794
81.57199692222
81.6343135560352
81.6481864749873
81.808408091567
82.0336632912327
82.1955257477216
82.3012852338708
82.442341589341
82.5599796916928
82.7030584993069
82.9331015749911
83.2140545803371
83.4144331782332
83.63879477119
83.8736511957108
84.1138406303218
84.3143553346755
84.508388611466
84.6657559347421
84.8033174188401
84.9832439637357
85.1824796660444
85.3134125940559
85.4478364338233
85.6177124390428
85.7679577668159
85.8715265786799
85.9821079824574
86.1217145063175
86.2817747243637
86.4203368432762
86.5550343149022
86.6750255080763
86.8064181834789
86.9371227504829
87.0338289791807
87.1338956900541
87.2336860426761
87.2892206276111
87.3743086610265
87.4805180328198
87.5954445347678
87.7013163724423
87.7964546617497
87.8883334504361
87.9817746923576
88.077092423284
88.0972702372626
88.1181633501719
88.2217736728166
88.340452605641
88.4275114984717
88.4920420000984
88.5336235318594
88.5842062720178
88.6496562714345
88.6864787899623
88.7276315602186
88.787721225491
88.8476828178094
88.9107538257867
89.0052965531666
89.0500331824497
89.0735285195798
89.1547561100739
89.2601127700374
89.3221421499685
89.3860815519255
89.3962482620324
89.3847676837407
89.4546425957377
89.5248821767007
89.5440122147621
89.5693631234434
89.6191929162149
89.6736493260751
89.7764729287889
89.8965063393065
89.9667689392598
89.9912836426873
90.0134165007312
90.0256512715754
90.0495800807622
90.1446479585366
90.233784824621
90.2472849546099
90.2655258671966
90.3210068837036
90.3785686140729
90.4241475626227
90.4734784242935
90.5345620212559
90.5501340489923
90.5381545354226
90.5753515982919
90.633573960848
90.683856900146
90.7478215456688
90.8129249955331
90.8439398271517
90.8934272393471
90.9230842946685
90.9385859739717
91.0141494676759
91.0927327455852
91.1662112760894
91.2030487787593
91.1889791591007
91.2163396267646
91.2546166314425
91.2749288175709
91.3244376988308
91.3722194155396
91.4078177463884
91.4662594034155
91.5189531463969
91.5553596118706
91.5729013461349
91.6498248968135
91.7014782925128
91.7632189199067
91.8515351968136
91.9185063102704
91.9716983241265
92.041503714587
92.1324619527117
92.1778150571335
92.2120094764288
92.2990362776572
92.3659068409063
92.4242892301572
92.4779081717583
92.5879773043343
92.6281612492446
92.6175666170983
92.6325904325109
92.7778537889055
92.9580108293617
92.9479237144846
92.8807074895352
93.012937227868
93.0978591653182
93.1202367217269
93.155895601167
93.3249838608226
93.4015179062681
93.4131036251391
93.477071073097
93.5005040796979
93.4684052791154
93.4523992915846
93.5433576314051
93.6708079279289
93.7024810426643
93.6820028908848
93.6826086668111
93.8262907642747
93.9286569382459
93.9691119179801
94.0615577407859
94.0605631754858
94.0530749744901
94.0914816084241
94.0903926374497
94.1365041990578
94.1263974320717
94.1075145874492
94.2009660664681
94.4017180448631
94.4126270167847
94.3658572252382
94.3411447570049
94.4367058648257
94.4246187734928
94.367606667276
94.4530397506628
94.5836666693333
94.5859763011135
94.5483564127639
94.5597139312368
94.5935078281716
94.5431462395944
94.6202312521007
94.6277394162895
94.6950284685988
94.6658952088588
94.6619939363282
94.7632073846902
94.8694657703585
94.8931191001972
94.9015032810319
94.8656647700972
94.8387394819191
94.8876812378536
95.0234400428717
95.115127781017
95.1477090569536
95.0593036301109
95.0207405088413
94.9897205589332
94.9758244794221
95.0600150368053
95.138925448207
95.1442534725816
95.1783019400174
95.2999528077712
95.3567602468231
95.2329353278719
95.257371189249
95.3517428239635
95.3472626801272
95.3441465206755
95.3802624713974
95.4344545145633
95.4602035260114
95.4338868734485
95.4854828930764
95.4721010623981
95.5291475316306
95.626273402018
95.5936293256668
95.5580549167366
95.648917349909
95.6952460228354
95.6984361079858
95.6485671019611
95.6219185315572
95.6041678438385
95.6708970311127
95.7668161594122
95.9000737800895
95.8601224905942
95.7440748272385
95.7367456712777
95.7970088774346
95.8610533586347
95.926485545943
95.9340345087035
95.9108738178877
95.879490389534
95.9415124822747
95.9147949621445
95.8809665000813
95.9705782025204
96.0190509759509
95.9038779078452
95.9238446016175
95.9269396316991
95.9711178160866
96.0103954098849
96.0228042176361
96.0489267490578
96.0724067806847
96.007615149224
95.9143414335659
95.9389116749979
96.0354529936445
96.0609077927506
96.0503645060169
95.9729745218314
96.0363317377768
96.0985140930244
96.0734162932685
96.0919532206282
96.1249325406827
96.0659352588446
96.1138359993392
96.1998099842253
96.1870392711743
96.1706023645103
96.2926141239221
96.3133218186634
96.2273127756174
96.285981739752
96.3663711328045
96.3121758445018
96.2684061734419
96.2188220750573
96.2101567332812
96.1890730306503
96.1879556236341
96.1723268712495
96.1315613034454
96.1195899376847
96.1469212497199
96.1444951510934
96.1825963443655
96.1713025595295
96.209703381279
96.2456940833013
96.1745016149859
96.0632708681864
96.0317356795182
96.0296448032165
96.068409963697
96.0906123010089
96.1094847586282
96.1102480427824
96.1150424249148
96.1373249273985
96.2409283605152
96.3348527062224
96.3371762682393
96.3103027642007
96.3045333578731
96.2470283670329
96.2671970944157
96.3030910955104
96.4030277233128
96.422586384279
96.3822675013254
96.4208616683386
96.5531365392995
96.6828264387449
96.6742468709276
96.68244099366
96.8458800601459
96.9223187550735
96.9470728232377
96.994907131183
97.1567408259318
97.2307651036828
97.1323730756506
97.1403401098165
97.339397194546
97.2667588087335
97.352515415053
97.4643799340536
97.4801298194176
97.4923971900738
97.4614153958577
97.4243590767264
97.6889141981379
97.848868948069
97.7913822515021
97.7965487475454
97.8800652289564
97.6743502868847
97.7788124886363
97.924610588554
98.0271537523695
98.1428149362609
98.3155920456478
98.347452810651
98.4778779576891
98.4649226961924
98.3063564983646
98.213967435266
98.151521666504
98.1155981552596
98.4645914266766
98.7385349424352
98.7937933548465
98.7009280917915
98.7388108796494
98.5046723631011
98.4956595505058
98.5701600435148
98.7810934244189
98.9802907581171
99.0988403196387
99.2288774349892
99.4311345854749
99.2475582099051
99.0652366769686
98.9587481720185
99.1190214437332
99.1869945854613
99.4442565671702
99.9911721481772
100.144873683007
99.939776967073
100.286438644059
100.237244881994
99.8973254556754
99.715048431963
99.9429510226543
100.039063068142
100.48210094724
100.876148987215
101.463847877584
101.148794763722
100.438927400073
100.228999788102
100.332474076805
100.128152007836
99.7153069004188
99.14330687759
99.2358813392576
99.1490750765794
99.0041577348234
98.817107555766
98.7967035568283
98.9043303714503
98.8274745389335
98.5454517129044
98.3656492042336
98.1375359571046
98.0093253743609
97.9220889337446
97.7828070368068
97.5651564388648
97.8261853698961
98.0291984178687
97.9862519712009
97.8648774970752
97.9510943050021
98.0164407141161
98.1215148007524
98.1757751858859
98.1266975090097
98.0466508782012
98.1111346610057
98.1244575264938
98.1673014647833
98.1293844171346
98.1719553659279
98.1729249811057
98.2100756212135
98.2183206703121
98.2746273753509
98.2396399308944
98.3072375128019
98.3912856907424
98.5047078248339
98.499727449482
98.6279398941436
98.720944497008
98.7088874612346
98.7956780300529
98.988464983373
98.865732502034
98.8621122766466
98.9515988651686
99.0232091801156
99.0878803808685
99.4447422512798
99.6251969272488
99.5372830725001
99.6243748932197
100.165366872467
100.380890374863
100.134980268744
100.379207502802
100.938208053882
100.844468045439
100.891544995331
100.976725238158
101.084253703515
100.959975502691
101.292526996511
101.673183352505
101.580160533178
101.077382557263
100.761495883326
100.856358364065
101.033590388313
100.958390435812
101.134941924723
101.06479966036
101.104718546864
101.157271988249
101.261875155712
100.882931444385
100.306215449339
100.150363052081
100.373926458255
100.500617505202
100.324998515611
100.17327141693
100.301309803719
100.014217875418
99.8991301619108
100.122639827819
100.445017900238
100.476934569608
100.580183352364
100.97503309996
101.35628621318
101.34603889906
101.133347978568
100.790506289307
100.753019996565
100.691549850572
100.456268286279
100.169760003822
100.097538819354
99.8643900406244
99.8735626612524
99.8225925388847
99.5503716910608
99.3998826912201
99.6306844079971
99.7972507108219
99.7472764121987
99.4276898967607
99.2407637138462
99.0662549787055
99.0236209847198
99.0270921211666
98.9994228405622
98.806217653847
98.5948476242737
98.6042472479768
98.741424919842
98.7936610423155
98.804444758526
98.6035388561852
98.49448994916
98.476269626451
98.4924534592013
98.4275771304165
98.3080109939996
98.15981560736
98.2378156124224
98.3257811825383
98.3270077991371
98.2526922666197
98.1821146525801
98.2098468909066
98.2637146960028
98.2242268979492
98.2170820632877
98.1194089147995
98.0771090764878
98.1247092673735
98.1228187333639
98.005533828011
97.9165840683503
97.9750941566783
98.1039366532795
98.0695058678846
97.9351923980043
97.8782277284077
97.9356552858861
97.9781660449333
97.9970789728884
97.8987649856878
97.8671592178457
97.8462931056217
97.8183162054388
97.7996330022636
97.797066975771
97.8110383117236
97.8335688254551
97.7932302969123
97.7856246625866
97.7434863945986
97.6509589748972
97.6464002734536
97.6250833493642
97.583106249233
97.5253782421224
97.5056404750172
97.5595044674275
97.5402176395494
97.4960231402815
97.4696110062452
97.4267244192591
97.4486421461242
97.4316664401592
97.4340650995476
97.4306225202845
97.3979220552847
97.3946014337606
97.3262262086614
97.2997848264579
97.2667590392736
97.2153091690374
97.2178408511536
97.2456920253638
97.2338957612225
97.1982887674224
97.110253593845
97.0569857203443
97.0722545857716
97.1087801404822
97.0389937486905
96.8994128447397
96.8947935817021
96.8910131881011
96.863751117102
96.8175935586559
96.7447119919678
96.6642975456223
96.671565594815
96.6445293522497
96.5590028758284
96.4230800972275
96.2418612426699
96.2466038447488
96.1174258228319
96.0143612981594
95.8811354532946
95.7600201428154
95.6728550770468
95.5686690503513
95.3941340998798
95.3403625402021
95.1694121187622
94.8776746340522
94.6556294640315
94.5043117765015
94.3626490866858
94.197288767982
94.0405663697968
93.8649854646894
93.7090670469214
93.5062294958732
93.0972951334691
93.030589819465
92.9055073213477
92.7349417447119
92.494054125314
92.208972243811
91.9028363218761
91.6187852948167
91.1676197961587
90.6410553207643
90.3177319272092
90.0398159798034
89.6990542418587
89.2247754164903
88.7150358303651
88.1821986248623
87.6742937795594
87.129906187954
86.2127873515122
85.8251992160397
85.2231200052543
84.499555441943
84.0455536709398
83.2937001493545
82.4781937086346
81.7318320392161
80.7003812181071
79.8486944366808
79.5952677503779
78.9605585217954
78.2332342535269
77.3207358465114
76.5902286599525
76.0480888687635
75.2531305779833
74.7121248841941
74.3577334645633
73.7147335843095
72.9140387558304
72.4535568111093
72.0457593427098
71.4253358029176
70.5002162763974
69.3730551999552
69.7716285382418
69.998745610066
69.2790190333173
68.8115704533432
68.9171566269946
68.7581609527729
68.3232562052693
67.8088337529435
67.1945645720441
67.2098429209859
67.6294686633128
67.5330236593172
67.1599811525376
66.9489275738392
66.8402998902342
66.6654470577019
66.7444443745079
66.7224005035538
66.2721424180887
66.1093379971445
66.3802201059589
66.2962072345142
65.9379930223539
65.6280544391549
65.3876996081436
65.1759945757193
64.9172351444009
64.6920197443431
64.464182679858
64.2158475535172
63.982082243672
63.8457924652045
63.7529364351219
63.642491539598
63.5087853649912
63.3608816531977
63.1591278375966
62.9832321381988
62.7647836659543
62.3646054061952
61.738058393711
61.71021112546
61.8986239189096
61.4464091653698
60.9018443559466
60.9288727444291
60.8670503164395
60.6350144011486
60.1652372840912
58.935929199131
59.2649279130853
60.7860223879477
61.2753191780449
61.4182404337122
61.5998052715659
61.9379895272771
62.3525485191583
62.5311551967846
62.7311116138595
62.9700837454783
64.4373644536146
66.3535188919536
66.9452129299996
67.047345924993
67.9432155414664
68.8160040981428
69.1367259514019
69.5289724201749
70.0420545567633
70.3298769824852
71.0070699161536
71.9803801102233
72.4913901944714
73.0746984849512
73.613894736656
73.8832760726617
73.9217388096001
73.6758653952795
74.8129494118627
76.4708191664206
76.9706439491804
76.8804197000159
76.8163251802951
77.1806365671593
77.8562292803662
78.1240046510879
77.9275230848079
78.0032170379463
78.4733863168773
78.7728260275549
78.8016993770994
78.6418271477282
78.5056165642099
78.284821274019
77.8355906223769
77.338944957024
76.907877373817
76.8445786539388
76.5809763360156
75.8364326237517
75.1109482233831
74.8116110939507
74.4713294814808
73.635767370137
72.8182003055409
73.0263563059907
73.3829218984225
73.1507076716881
72.8313666320932
72.6140234281647
72.6492860876729
72.6815137652892
72.5544896018154
72.386804506727
72.1025425590507
71.7366638288492
71.9002236823588
72.022965024782
71.6329527890144
71.2034434241154
70.8897023262259
70.4536002869066
69.8581026714396
69.2963741214911
68.5145990094255
67.8519453224596
67.6594705572407
67.1302601036994
66.3328073437742
65.546301516768
64.8573554965261
64.2269237401944
63.6517070347124
63.3071965335247
63.0639770378666
62.7233417940038
62.6052792152141
62.6355841514982
62.7558481112344
63.0944812227097
63.1692571046776
63.0259258459102
63.1615026682789
63.5866967537741
63.8727660229102
64.0620506132583
64.2981256395598
64.5433339877879
64.7847712918726
65.2016759468074
65.7771675442853
66.154129644223
66.4623608058875
66.8168107963961
67.0674633337734
67.4023216686449
67.9709504659724
68.4155653373983
68.6702998495077
68.8995106049891
69.1768164430182
69.4245922726897
69.6602515001254
69.9227122307948
70.1718976464482
70.385082678482
70.5230844023343
70.6257997682828
70.9074110230981
71.2386227458299
71.4292091228596
71.5003784063178
71.538490717117
71.5893841456176
71.6243479912097
71.6374964463388
71.6396698247843
71.6041807973357
71.5414654100811
71.5298692965627
71.5457774505544
71.5337148207528
71.5488577023625
71.5885857114352
71.639813225304
71.7096949910129
71.7732218959013
71.8739723255663
72.0393544222677
72.2638011403115
72.5458336745038
72.8432249653554
73.1409724113959
73.3962919570382
73.6266745303711
73.8630688622025
74.0853189811734
74.2835750050381
74.4554652177995
74.6093258340322
74.7686341543222
74.8887603657463
74.9748232020942
75.076680068735
75.2031011865594
75.3243960833715
75.420667422643
75.5165979254683
75.6069378586998
75.6569167558815
75.6984243896862
75.7486352858396
75.7705248645602
75.7695146756778
75.7749082975463
75.7633697559405
75.7389523543589
75.7308551507506
75.7276162870098
75.7150019218682
75.6901685307078
75.6424064771591
75.6023243875203
75.5872629017335
75.6032746576794
75.6274247095578
75.6789645524187
75.7609097665461
75.8371754684783
75.9176432207056
76.018001008006
76.1209289076534
76.2500110272939
76.3988711513218
76.53741353321
76.675643320808
76.8358811314895
76.9955258066347
77.1638861976547
77.3622001515514
77.5806917756114
77.8019910780175
78.0482796859446
78.3111563652076
78.550627195551
78.7728033431348
79.0354561445224
79.2933788956722
79.4927522311943
79.6639514808956
79.8160330301669
79.9382155101701
80.0032420707602
79.989649506245
79.9268022890204
79.8170287972727
79.6817300854136
79.5467342308039
79.4085917060005
79.2294741186253
79.0311922131282
78.8594328297298
78.6757263921424
78.4522926266157
78.2374328830598
78.0083254980764
77.7379770118805
77.4547325413017
77.1817220243614
76.9046782109916
76.6084633550125
76.3058898588906
76.0141028962183
75.6656935931406
75.2436955571966
74.8120884511824
74.3471991575036
73.7912317918411
73.199107899318
72.5778664772439
71.9164241345008
71.239826100612
70.5464433500408
69.8354387533933
69.1259872890415
68.439524183581
67.8332483304058
67.3255612227144
66.9155269949557
66.592733640907
66.3313628355719
66.0883251376205
65.8540080918719
65.59412971774
65.2987132364084
64.9828049998635
64.6585024900541
64.3485769649682
64.0542956535513
63.7568324086803
63.4862025605377
63.2310452232531
63.0129269944453
62.8142883154702
62.6229186815767
62.4243950038558
62.2096319835672
61.9542355432316
61.6751924904922
61.3305362300168
60.9265327659067
60.4760428615802
60.0086005489927
59.5508975298744
59.0470977253802
58.5015347148122
57.9651872376821
57.3927707456461
56.8196667164058
56.287070175804
55.8016854516644
55.3415992329148
54.9013776977095
54.4773288768422
54.0852492442368
53.7508618835807
53.49032345778
53.2873823559485
53.174275379912
53.1753983034759
53.2971092720785
53.5093664832229
53.8123611894354
54.1879351189162
54.6453718841065
55.1879870587609
55.7943730651412
56.4651573946056
57.2707432052345
58.110280779489
58.9174587338573
59.7362551433446
60.5518008304139
61.3193008165613
62.0240099302312
62.6098722056026
63.080681795924
63.4583896066918
63.7659301704722
64.0041511577539
64.2233264294334
64.4419953139999
64.6662713653593
64.9208285260648
65.2122248675496
65.5019144665277
65.767865604088
65.9595003013685
66.0891587781226
66.2063077914539
66.3440879033572
66.4635862802947
66.5876369019204
66.7925409575529
67.0800136193341
67.4376711280781
67.8773897539879
68.3749307551872
68.8881615569888
69.3788716470112
69.8672758923925
70.3753418385351
70.8898637610416
71.3558218340692
71.8260214731381
72.2758277294403
72.6831449890564
73.0567304153058
73.3718299823198
73.6729498753921
73.9878909162847
74.2059320746138
74.320813841357
74.3665439313688
74.3412002118416
74.2128908253905
74.0401434148835
73.8622450086218
73.7135295851253
73.5970905998402
73.4953498255255
73.4719033416574
73.5412201263323
73.6560533013355
73.8109599986968
73.9822012907813
74.1794440850905
74.3946625825257
74.6643132562881
75.0224149925226
75.4240327414417
75.7735836017206
76.0918219600268
76.3935104505411
76.65986092437
76.9014404724163
77.0757474295918
77.1741380465667
77.316020953335
77.4665675350851
77.5689167896001
77.6387891021358
77.6778052762078
77.6996074764733
77.6509544863718
77.5203510034427
77.3460106760567
77.1230801082502
76.8754978270161
76.5984249140089
76.3121845419347
76.0450178469498
75.8517794359146
75.6816977352505
75.4618898107692
75.2495385111455
75.1370159019527
74.9973873608776
74.8394005092326
74.6927238970755
74.5542291782439
74.4388074884094
74.34884033786
74.2444660622845
74.1597688554286
74.1083948356175
74.0617051497238
74.0192281905544
74.0567612262958
74.1522476433307
74.2086189564786
74.2010183170152
74.1724686320814
74.108866980104
74.0004248110796
73.8550272656401
73.6908556297731
73.5049942576428
73.2616389857727
72.9676065812093
72.7508071689611
72.6152726014598
72.5155425207705
72.4614822281201
72.423507668062
72.338404113436
72.2552492667325
72.1939733400287
72.0881940101719
71.9866579888838
71.8964525970485
71.7104587856676
71.514555810396
71.3118725605671
71.0878734254211
70.8765607819799
70.7427327240958
70.6283450707702
70.5193447993422
70.3822700345572
70.1945599029162
70.0495552871255
69.9320088512068
69.7631441029379
69.5839204378817
69.4335360329956
69.3447996465807
69.2357425056762
69.0976677171302
68.914601110766
68.7204445844801
68.5860994199565
68.4679743483033
68.2955631987292
68.1312656107124
67.969263592047
67.8338585700597
67.6729334709953
67.4805192639418
67.290546337751
67.1326153250786
66.9052369008648
66.6636756082815
66.3984842695558
66.1465481903356
65.9109621595523
65.710042828625
65.525599047849
65.3140646528421
65.0785877825193
64.932961825111
64.7991241528452
64.6088081261531
64.4060418029651
64.2500359615895
64.0778953234472
63.8879883873992
63.6719986666335
63.4561894726839
63.2583206349673
63.1391411585603
63.0011960155308
62.899494951559
62.836399715709
62.7309118773863
62.5260071482082
62.3394212657303
62.1762749150868
61.9815707613282
61.7449328633382
61.5810180235181
61.3323522414022
61.0750456932041
60.8560367498765
60.6477240502302
60.4384604212306
60.2508220494098
59.9335881786161
60.1966809255299
60.4782668262123
60.1901010521492
59.9704292747972
59.9167120063403
59.8062166689197
59.6717068769169
59.5929389680574
59.5133392027518
59.3637469807738
