1798
3999.43349933624
650.420452594757
1
128
4
99.9177831306695
99.8839731566034
99.8820439397057
99.8783180064255
99.7945447024851
99.9021002172581
99.9137977984838
99.9091672140522
99.9193660625412
99.9994986346716
99.8546673999459
99.7871094447841
99.8410113463927
99.854715758814
99.856851217473
99.9529810716777
99.888232723012
99.803331206666
99.7641900129909
99.89195464337
99.9067063381854
99.9125043384267
99.9427496875005
99.9081624777088
99.8411817880926
99.8914976170332
99.8379097211394
99.8419439489694
99.8227380958563
99.8986139151588
99.8540988490285
99.8592975622026
99.8104224371708
99.9191767270474
99.9887389102979
100.028073624292
99.8739724641533
99.8827030266919
99.9187051170707
99.9238151845957
99.866475422237
99.9200512238385
99.8601195815182
99.8476816493414
99.9735952081685
100.041779279397
99.9759356486529
99.9158724982495
99.9201873565929
99.9707654543108
99.8914221744474
99.9072338543271
99.9373330971151
99.9268675881817
99.858229365719
99.9410326076563
99.8880034575438
99.7912943756758
99.7996098973173
99.8923217637274
99.8180965263718
99.8955446509709
100.017418769717
99.919295502464
99.8630924182208
100.001362836487
99.9520140437647
99.8099422634204
99.8201770921654
99.8888342986045
99.838376623282
99.8784092194736
99.9246615272102
99.9636792717678
99.8700343392955
99.9732782856348
99.9312043690926
99.8432957063963
99.7749258306354
99.8080982523577
99.8487848619452
99.9723852784433
99.8870760161406
99.8532550049686
99.9011706951337
99.9132878532338
99.7526439512822
99.7827666650253
99.9149689978659
99.9242502356216
99.8872073763372
99.9474015085197
99.8822066333963
99.8106399550137
99.716462016686
99.6491268164716
99.6143396305483
99.7657222632457
99.8397982430294
99.8539909151998
99.7826529894459
99.8399717156614
99.8322837006717
99.816417137204
99.7923618260749
99.7912833503721
99.7606908827481
99.7305711698763
99.6395048647931
99.6853496442245
99.7571945752826
99.8013965417305
99.8304293261754
99.8339367144051
99.7820779416544
99.7652847746853
99.6706484636905
99.840921954808
99.9266377551784
99.9594414108878
99.9041635566005
99.7629341800631
99.6631515617726
99.75734589131
99.8186571543542
99.9575338766107
99.8915966889334
99.8680461498452
99.9136760212779
99.9670270660538
99.8943402616521
99.8664560416012
99.8868749562246
99.8339193806628
99.5878865337663
99.773379123058
99.7602424439887
99.7033573449401
99.6956385146927
99.8130778392916
99.7501138451716
99.4628238535823
99.2269067795274
99.3825358888891
99.4998518140514
99.6082415629045
99.5933626896895
99.6140586872482
99.6232130825069
99.6823706234822
99.6325673662803
99.6431729311403
99.563673404539
99.5624551978759
99.508299346091
99.4377881875899
99.3423722346157
99.5206129620009
99.4887680695426
99.382345298436
99.3661924525669
99.3681822186201
99.3670364182256
99.4817048972396
99.2554249562396
99.1573910398764
99.1249855929878
99.2008269175076
99.1946002994566
99.1809988826657
99.1169065091242
99.0866734250064
98.9369416124954
98.7829570777049
98.5516711627802
98.5043021421436
98.4761165968852
98.3324989332525
98.1618720500301
98.2443908478446
98.2054420448357
98.1177514559538
98.0350831724566
97.9718449130434
97.8447677079045
97.8486104636929
97.770806370642
97.5708908059589
97.2037130721811
97.1555779377754
97.0292992537394
96.9239626041782
96.8231575170335
96.6909943270048
96.5646159720613
96.5450649784324
96.351397263258
96.1690115548167
96.0321114251469
95.931940140745
95.7774747512639
95.5814925829668
95.2703520138698
95.0341645222693
94.921882377873
95.0220073169304
94.7564938715002
94.5494958441819
94.3573787606119
94.2475478281471
94.1173582379917
93.9420085669839
93.6892171721423
93.6194523183841
93.4930593150506
93.3275516752783
93.0935139820163
93.0416684621647
92.8603993601671
92.5881561650216
92.3141745506677
92.2303904915343
92.0305228220197
92.0209493430773
91.841299577459
91.5207113621135
91.1735801892497
91.0655817550496
91.0008699407147
90.8430301953826
90.5684674099661
90.4867511960017
90.2830355269345
90.1234477091271
89.9125792666347
89.6655109311306
89.4170633087173
89.3594251939029
89.1414866218901
88.9374005194717
88.6595906229012
88.4181122392831
88.2020703120284
88.144373777509
87.798418828159
87.4934146177205
87.310228945411
87.2552291645639
86.9555914430817
86.875488694948
86.7745902598004
86.4810489263628
86.0863882107072
85.9609819620069
85.762077614674
85.545425593678
85.3260248747468
85.2017169085829
84.9053379319628
84.7508200539027
84.6202311207141
84.3791270003815
84.101915381955
84.0444171803857
83.7576436288164
83.5458630041645
83.3335240618208
83.2222382021875
82.9875907144535
82.7474032479921
82.4751324734686
82.3445187194144
82.2222719551749
82.0653951436971
81.8378837722882
81.712781888872
81.3939806783766
81.2298082833025
81.0962273101241
80.9582306519001
80.6457303261784
80.477131389451
80.306327510577
80.2605104260901
79.9555584305268
79.7694980681371
79.5867666992444
79.4541086002286
79.2663525826541
79.0762063531867
78.8613125352553
78.8175997698099
78.6795705712559
78.6203356012413
78.3772192963576
78.1091566936721
77.9343855027066
77.8512316435543
77.6639567482398
77.5589692297566
77.305820108583
77.2231190489256
77.0491238133798
76.9292325348853
76.7669706023528
76.6492602892539
76.4471435397004
76.3357569985255
76.115322044937
75.9855444015005
75.9834225107433
76.0005122449992
75.7617649828725
75.7029990406213
75.4681924104884
75.3915373754195
75.2989793706397
75.1941242916853
75.0070952471705
74.8726313681953
74.6632843179109
74.5959549333422
74.6285505907937
74.6233728966587
74.3672134659617
74.2880016094215
74.1531343201922
74.1019733878482
74.0446611853968
73.9970556428821
73.9008606004459
73.8564519889933
73.6676061010661
73.6249723634333
73.5565794608998
73.490275527578
73.4162723208933
73.410846986948
73.2676476011583
73.3076473604964
73.2283934129598
73.2103239479352
73.1287561424674
73.0848974344778
73.0187698412953
73.0250062657464
72.9676523215612
72.9529400856069
72.8511060965579
72.877950726702
72.7499588702894
72.6859079496809
72.6914126928026
72.7729093717179
72.6799306600129
72.6360670122575
72.5737229803643
72.5787615643103
72.5247401228658
72.6223534023369
72.6382610192957
72.6416726931108
72.6254135805787
72.6438808038197
72.5623313911304
72.5370875542059
72.4504912712379
72.5174179006325
72.4973722431653
72.5197761698774
72.4846428158589
72.4723471217712
72.3846535732249
72.4335740003569
72.350113474357
72.4041382129221
72.425230661152
72.41155437399
72.2916084133739
72.339037239276
72.2592765890647
72.2602593426224
72.2116705012294
72.1970755049432
72.1483689155231
72.2298983363006
72.208708623684
72.1190092305133
72.0349213937859
72.1606687523991
72.1270819845054
72.1783090009767
72.1933299324454
72.1792219995711
72.1591578947895
72.2342068810026
72.1911342344113
72.2487755965267
72.201914452376
72.2337338227491
72.2124105611701
72.2794320932423
72.3102304109292
72.3960742657841
72.3161138635205
72.2751474628635
72.2464214605642
72.3282140489053
72.3064113280308
72.3314481210817
72.3814394770051
72.4928333557593
72.4646335408002
72.4634846341048
72.404575768334
72.4403981775699
72.4891049942835
72.5621469562464
72.4913177050792
72.5519016465667
72.5423995699189
72.654508618824
72.7078880998256
72.8103351276265
72.755195079346
72.8129927594135
72.7920679024155
72.9077026474365
72.9077779236291
73.0100256746508
73.1131609864215
73.2114338116448
73.1718999390844
73.1900925891254
73.2969037678361
73.4275336579978
73.4056955858279
73.483382384672
73.5123643237368
73.6482639585326
73.7468298162371
73.8477326994879
73.8557001779451
73.9108356948234
73.9066221878226
73.9970101664048
74.0547607315161
74.2116790725134
74.3291551372091
74.4758832634817
74.5170297769778
74.5797037553064
74.6738219931971
74.8490986329417
74.9306187183681
75.0609156161048
75.0962410024666
75.0943553568096
75.0337590136011
75.0908371443297
75.2293412121013
75.6085146398044
75.7048725565752
75.6539914932616
75.6581731608938
75.8090385702447
75.8612306953952
75.8879387547522
75.9461336716883
76.0785392535889
76.16332318705
76.4705324167267
76.7383789490097
77.0179912693851
77.0574808018822
76.863479394534
76.7553399805819
76.9317632416481
77.0339746282663
77.0897570688513
77.146517882121
77.2873523255599
77.4019339498684
77.5071375114575
77.5029730951082
77.552623716916
77.5485608131798
77.7676011106071
77.9696273575425
78.1229034346766
78.2223202725194
78.3437056074226
78.4232877358716
78.5959179304337
78.7218111194701
78.7760125987531
78.697278053604
78.7202549461788
78.7896335002249
78.9396666237386
79.0048880281596
79.1159757244227
79.145866969747
79.2910509729034
79.3468117812307
79.4331774098659
79.5744075461427
79.7111602546955
79.774624832371
79.8499988662284
79.8655882198762
80.0167801889612
80.1052140110781
80.2452589074775
80.3408304286494
80.4113974382254
80.3771920984589
80.462255733472
80.5539707970618
80.6062131321752
80.611060143899
80.7363990025768
80.7905018106533
80.828805492114
80.752821891504
80.7932771454515
80.8354479989177
80.9216175184989
80.9434520102785
81.0232093179908
80.9900859631548
80.9569831029569
80.9042603037668
80.8988161073266
80.8898526909576
80.8900658421037
80.829299195312
80.9102390374506
80.9561707016832
80.9430822984811
80.8516587267826
80.7877819740555
80.6894209878129
80.5684582685931
80.3599273408907
80.1981766308097
80.0732889820159
79.9491797573878
79.639234336179
79.3525336386135
79.0381301434727
78.7339845496558
78.4947422039072
78.3239682180769
78.0674084530926
77.9753118754435
77.9864977761947
77.9409679943534
77.8318049722403
77.8121747430669
77.8173478673713
77.9593654978928
78.1282209664004
78.2424454232846
78.317780590541
78.4413946520486
78.4138021022384
78.3546584705282
78.2574199435269
78.1494616606572
77.9168092262015
77.7805234344286
77.7827829441184
77.9170353467207
78.0090439359011
78.1171374770074
78.2635942866879
78.5447042092815
78.8525342236639
79.2561626158698
79.599113845035
79.9330922773867
80.2869238207257
80.6347490463168
80.8440243402446
81.1206915952338
81.3332194402643
81.5370875425607
81.6791143803421
81.8430714799531
81.9679619461511
82.1774862436539
82.3869713754776
82.5537084738946
82.7120917516861
82.8375431724843
82.931077403532
83.0181087985006
83.0003166888444
83.0178858115514
83.0316181562669
82.9812232011832
82.8926320265591
82.9908241146274
83.0896126051274
83.092508645688
83.0308075157524
83.1101469575973
83.2937050547079
83.5567566604887
83.7518426428353
83.9607630488469
84.1676091255263
84.3891126075257
84.5765394495264
84.7178196520149
84.8551378984796
85.0594993050777
85.2807056199564
85.458618682649
85.5415748156238
85.7052332884611
85.9400000952889
86.1685146552264
86.3111131160854
86.4274012364922
86.4765094534838
86.603489809564
86.6634562753842
86.7007778459351
86.7695979904159
86.8927455136253
86.9836618071564
87.0551805449795
87.0934617697551
87.1460718417759
87.1804086463728
87.2591726731955
87.373287255687
87.4148715346968
87.4023339045229
87.4853562476823
87.5021724672883
87.5459798743101
87.6543594001482
87.7725682815802
87.7762976703176
87.7016516157924
87.7677893512024
87.9655638195088
87.9921881011171
87.9448832134136
88.0115541407231
88.1247194363115
88.1634808408999
88.2121382666709
88.412494820341
88.7932288610287
89.0108879770582
89.0915635147921
89.2326111443218
89.4046326201962
89.4795364465285
89.5770949636054
89.687189495061
89.8055974308566
89.9304009481329
90.0665609231052
90.0444907875741
90.0157843318756
90.1109157814339
90.2612903382685
90.3230101045705
90.3621783123577
90.3749150908178
90.3719731423059
90.3618069334121
90.4267403584934
90.4568121084881
90.4784715540983
90.5099122405286
90.5180363436292
90.5434892369596
90.7193302177669
90.8072576154198
90.8103324603835
90.8019949898147
90.7954054439147
90.8355372891964
90.8513232468082
90.8209897803204
90.8455468919733
90.8875677366559
90.8919971734506
90.8354848489871
90.8395682159473
90.8721052048092
90.8462885021163
90.8554959219481
90.9102937025279
90.9759958574319
91.1045157638115
91.2296592694564
91.3306675949068
91.4290562782398
91.545037158853
91.6458522835046
91.7468314447057
91.855363331914
91.9538699260078
91.9742913112844
91.9882763392621
92.0398208463783
92.0875121571481
92.1205842249489
92.1452936156655
92.1446294012877
92.1315765272635
92.1223230063688
92.1278953462346
92.1769448148061
92.2704268662709
92.2927724419224
92.2874369055682
92.3243864666495
92.3503140180563
92.389955636171
92.4490285139636
92.4629907979327
92.473255865416
92.5188230703065
92.6208548206595
92.693516167763
92.7444426887831
92.7845472033215
92.8020829821137
92.8238878600225
92.886154466327
92.9274523722034
93.0237689343805
93.0850844903486
93.106580772487
93.1012025740795
93.1086363233925
93.1953481019896
93.1927032402651
93.2394102638492
93.3425127989564
93.3740285616793
93.4343044514472
93.5083794233778
93.528849140379
93.5193520395849
93.5880917878712
93.5981202809144
93.5516453295639
93.6079313196926
93.7159288343423
93.7581453474532
93.8103723304658
93.7958636891757
93.8839453187285
93.8971334961905
93.8303871296148
93.9452600421488
94.0603430568905
93.9619884720333
93.9404927940288
94.0688938608977
94.1361774000814
94.1332121653973
94.1555317726415
94.2554387024334
94.2824356948702
94.1801554977614
94.1520496262383
94.1965633845073
94.227143204881
94.2131788436725
94.268158043392
94.3353259445124
94.3625239322659
94.3452182944706
94.3582486909543
94.3945512066772
94.3676826764852
94.3426681142901
94.4220325257464
94.4944967908862
94.5100836781795
94.45015946278
94.4225511536233
94.4948017427017
94.4851336014166
94.6064786247999
94.7014507181526
94.6320642316917
94.5603513383629
94.5936888775681
94.6371905382403
94.6834010176125
94.7436578253699
94.7041759597408
94.6801640491192
94.7167188674838
94.6787303106641
94.7381597172604
94.7394483843128
94.7429364102634
94.7806851304879
94.8385909627413
94.8239276746596
94.7794465801941
94.8773407967162
94.9240573194711
94.8849718251296
94.8697608869317
94.880928473633
94.8960797821558
94.9899106119633
95.0879534232145
95.1299288395359
95.0898128815402
95.0633714692994
95.0852329738905
95.1700177573235
95.191484929342
95.134570320474
95.1238945518122
95.1031967301542
95.1469038743294
95.2465355909164
95.2887551539417
95.2158232708343
95.2574016005709
95.341904670448
95.3290640473128
95.326670456275
95.3685695216267
95.4207059300863
95.4444822092703
95.4251252911827
95.4528099108739
95.3934854819549
95.3651509964969
95.4967180522893
95.555742945531
95.489521593559
95.5071004590061
95.5600092518503
95.5905098984207
95.6217941986018
95.6212657761867
95.6358818273002
95.6698574674722
95.7098665506895
95.7926701483231
95.7756208608158
95.7111356470093
95.7660469542228
95.7834526118256
95.7557674006989
95.7729323058741
95.7824625083622
95.7432978277105
95.7500378592686
95.8288533662764
95.8548636807602
95.8156083934351
95.7786669740243
95.8368009907619
95.9735370517306
96.0687440786946
96.0366425186811
96.0275198284244
96.1064322136142
96.2184083529967
96.2107051245857
96.2147885850273
96.1779893203687
96.1471559577571
96.1526328248003
96.1323033845544
96.0484913120003
95.9860572085291
95.9279739356443
95.9014424069956
95.9149308446382
95.9144812954821
95.9467996056545
95.9911386133909
95.9458114195849
95.9790958772616
96.0053853583042
96.007153572017
96.0169367277934
96.0493470556647
96.0362501536161
95.895360973129
95.7372782455349
95.7820837201181
95.9286821434836
96.0623223856295
96.091256096784
96.1522248118535
96.1903580266335
96.1846321244083
96.1933737969545
96.1986137139416
96.238844142608
96.3201838408754
96.4021741245687
96.4430502748711
96.4021891976024
96.4178092379485
96.4035827917789
96.360320704068
96.5094101454073
96.640951190872
96.6380932831863
96.7890439036999
96.765444506755
96.7515010653377
96.8854944651765
97.1071582531646
97.2446969355934
97.3235269973668
97.3923152151776
97.4504831122451
97.5136943398477
97.5456224441978
97.518713507833
97.6356195717563
97.7016006997826
97.7805944497948
97.8109932316193
97.758640088312
97.8945388910092
98.1167175003547
98.1331969552232
98.0695716286154
97.8523204859828
97.9789133069817
98.1793492806062
98.30417571626
98.3351435967207
98.4961864493478
98.7197916534784
98.6483403361208
98.6823628192706
98.5837260387252
98.5646182019127
98.9182717531777
99.0731506238344
99.2318889251871
99.0544923213163
98.7327556591852
98.5378311058637
98.8088207165491
99.1155568681337
99.2259860478257
98.9679947702614
98.8280482012225
99.1638785060541
99.5690228938309
99.2851777510473
99.2162391858236
99.5610246439859
99.7554820057014
99.7297795618751
99.9203376578901
100.019248101374
100.166880809447
100.128210334862
100.334100891876
100.4295734647
100.213497072601
100.258667660563
100.475990246686
100.520317765273
100.410717006499
100.146837483529
100.306350919359
100.615955212639
101.356989627424
101.575684638303
101.888961949253
102.010199522654
101.823088959263
101.934769414407
101.697187426214
100.879087276812
100.604284815134
100.365362127007
100.172133010829
100.000082538192
99.7035221783452
99.557826372795
99.447858296635
99.2871931902114
99.3822437098688
99.082790581488
98.8377441400954
98.6932454628682
98.6776691280478
98.5599346586459
98.4437646148042
98.2307161571801
98.1196209277245
98.1826671893274
98.3834108431865
98.4249319306093
98.4028204761663
98.3570450930827
98.3823430052779
98.2686120414893
98.2286991227042
98.2984192330774
98.457050294694
98.4887725652167
98.5319460270939
98.6185306481405
98.6466385920811
98.3836200422061
98.3335202371739
98.4776697976703
98.3938289953421
98.4397021507941
98.6219591113303
98.574964779148
98.6734440758465
98.8309942309428
99.0072441034468
98.9099581690469
98.8871498938331
98.9563591903803
99.1129914035907
99.3682437224552
99.4155294588716
99.2882034696654
99.35315048784
99.4411705407268
99.699194031364
99.4825531296219
99.3139709931881
99.6691934769984
100.246383954908
100.385285273785
100.497085403515
100.767799435566
101.093915017146
101.187167947729
101.276201505275
101.169637217538
101.509420379784
101.74741476648
101.718222175566
101.492586211786
101.361845936175
101.384833480956
101.629936666503
101.686016841074
101.722855971042
101.514168683801
101.50158916139
101.202794302226
101.198240631535
101.143597336161
101.211709461093
101.025602241391
100.684991389363
100.555275163447
100.722633007689
100.283408150792
100.090509898231
100.487168822264
100.627802165268
100.524483387884
100.786168304394
100.44086443157
100.340431598018
100.615305412229
100.60395919597
100.578520715662
101.268573044458
101.334838331164
100.997302845108
100.733276165641
100.853690241397
100.701817222809
100.567341612824
100.357325508353
100.135201252083
99.9117009682767
100.004800403013
99.888051574621
99.5146819625673
99.2303476098511
99.037684983159
99.0813800416287
99.3233735708569
99.1871330431334
98.9531300141103
98.7912218081225
98.7020215738388
98.5174708642175
98.5149719194847
98.4531803337928
98.3268065809646
98.1661627250997
98.0749281428024
97.9316569961355
98.1169628316275
98.1033999976688
97.9181794022201
97.8522698057027
97.7925419523806
97.6385983195287
97.570154168153
97.5130501184485
97.6063840727755
97.6510846947548
97.6196758726985
97.5679113507915
97.5762416590449
97.4954829009673
97.363658988001
97.323473514205
97.4018344443625
97.2944729432516
97.1887448500107
97.138739600221
97.1368858834681
97.0960519781124
97.1070811820955
97.092099967009
97.1054519473416
97.0887990179103
97.0535249646225
96.9731590792966
96.9777826653389
96.9800642652874
97.058815372008
96.9934309762682
96.8645495671265
96.7757054472969
96.786068596979
96.7482112318651
96.7356531377887
96.6437778334724
96.6839448832643
96.7921609598172
96.8675029630973
96.7425502549919
96.6144402241508
96.5673814008581
96.6127631061596
96.5756813526612
96.5568398307203
96.5326327298161
96.4980548518066
96.348716940827
96.3264248412429
96.3715391245858
96.3625445908485
96.3297841632086
96.377390280523
96.3350808214843
96.2278531321899
96.1394989728288
96.1642154941195
96.1888729014456
96.126327570964
96.0517952694732
96.08218517162
96.0249752960699
95.9604472363805
95.9339741240057
95.9632727595104
95.9471141246757
95.9383717547908
95.8014773373145
95.7433510273118
95.7025169354253
95.6819223850609
95.6729116130012
95.6462563899408
95.5670074009587
95.5109192845186
95.423673529451
95.3675924745639
95.2859492006412
95.1729439794243
95.1367066628351
95.0605539748005
94.950316070575
94.9387929896453
94.81513818008
94.6988739139369
94.5464803344906
94.3864480187735
94.2129450616261
94.1325086812397
94.0116478317104
93.8751731946218
93.6412320614621
93.4781824450293
93.2490299740154
93.0573258217369
92.822378748136
92.5331803022872
92.2578844229564
92.0386231347022
91.7990284215569
91.5484072136586
91.2103266590109
91.0002396355688
90.7736632655359
90.5487949916527
90.2211406656743
89.9460951624391
89.623626774682
89.3279607851359
88.980514502222
88.653311213598
88.272185857051
87.9625439353727
87.520267722021
87.0075531144265
86.4683693343829
85.9260480183375
85.270248091132
84.7302344371754
84.0849635328361
83.350414945803
82.6353434095995
81.9020039642331
81.0405319351235
80.2582372924792
79.3235865401334
78.439255396203
77.6682292953751
76.9134074709318
76.3272769373911
75.7604314157422
75.0945890995195
74.409708914575
73.8287606423399
73.4877427407076
73.0566591058343
72.6873116074389
72.450628241105
72.1637134373559
71.7106385444566
71.3799327361316
71.0972983187346
70.6725642191737
70.1145846924322
69.3828035326016
68.7648237548519
68.6765067800611
68.1947448979097
67.5677348393092
67.1699059498167
66.9516736554578
66.5738571362634
66.2070584472048
65.8028535178791
65.4826713188301
65.4312669240518
65.1755691294572
64.56943411079
63.8693790894505
63.1583538932491
62.439819488095
61.5639240523595
60.7941823058192
59.9477675630334
59.004041181965
58.0972231792299
57.3103922911338
56.2755495321937
55.1684157944422
53.9836942178567
52.8741406917155
51.6929804794509
50.5109244521967
49.2340902868094
47.9925162813918
46.6764040120296
45.3938446823973
43.989524948422
42.6008325589403
41.0363653671857
39.433987686244
37.6582346839988
35.8449572670968
33.783060309101
31.6743942719433
29.5203262918278
27.279335738576
24.8228961705062
22.9599174819126
21.2581773349886
19.9591353731678
19.076411385184
18.6517417087555
18.3701180717922
18.0542862127862
17.8379452736719
20.1332648466268
21.6552787787373
22.9505165874895
24.2998670034431
25.7363749846461
27.6486817074253
29.1546522010104
30.5690275151042
32.232906804681
33.7700340550703
37.6408452488629
40.954021110374
41.8698042770909
43.0118442380187
45.5958551246377
47.2767084645858
48.4006723024834
49.8821702626997
51.548775482786
52.4938081387603
54.5931427313383
56.4577817138409
57.4815487069445
58.8799548738973
59.6906393640215
60.2345986141536
60.3784534252402
60.3717565671695
62.6978092993507
64.4113925782054
64.4415304479659
64.0519381655341
63.7404086242915
63.776854148127
63.9135781461057
63.4564335321697
62.6467453013397
62.3995242963018
62.5998417060651
62.7731303654526
62.7220609764358
62.6743343534036
62.7431177999085
62.5532243761511
62.2066749866168
61.8172825878417
61.4418082386246
61.0888964491051
60.2526036957481
59.2125285369162
58.4523992943406
58.2068078620985
57.7945025016952
57.1144613474581
56.6283531621839
56.7880601032126
56.2744099429555
55.2921174604607
54.2313750917598
53.3056440652613
52.5363123726623
51.6809045468855
50.5570773177601
49.3170678609082
48.0382991234941
46.7739274791586
45.8703744562992
44.9896135213889
43.9334732376373
42.8515362181509
41.8099275963946
40.6097642182935
39.2725450929197
37.9967497895253
36.6877330707374
35.3600759562344
34.1536809485978
32.7966580965065
31.3971866247789
30.1358693611176
29.1847150703872
28.5549534430708
28.4007105806974
28.6785119381434
28.984319166915
29.471140509544
30.3437800642755
31.1622420496102
32.3476945775025
33.406405694913
34.0847519415878
34.6722250047574
35.6608887085609
36.5975941038315
37.2093579392298
37.7166083810335
38.1847322864451
38.5335814463797
38.7168615070658
39.0604656620813
39.3348795426899
39.2881919689092
39.295095574374
39.3344742028461
39.3606960558352
39.8462598565307
40.6173061313721
41.077680078783
41.3166378815396
41.6064581043408
41.9997017498861
42.3941516336642
42.8562998334081
43.3760582986701
43.8926061913548
44.338745724396
44.5464201830632
44.5858699250651
44.8334947374414
45.2521117485195
45.7862180562971
46.4859601817991
47.4789859489023
48.616717330516
49.7018513389107
50.6075449471941
51.3171795715592
51.8333302673505
52.2611476108369
52.6661215571478
52.9718030880057
53.1616873745699
53.3661595458232
53.5133329363264
53.6279474552656
53.7634143918837
53.8851446370603
53.9835876555971
54.1203191309124
54.3160672126409
54.6286859717967
55.0822301664658
55.6602105032777
56.3397622918088
57.1486636218052
58.0542228586768
58.9892769083084
59.8592556404852
60.6596749657283
61.4116411832455
62.1020548361225
62.7086401386983
63.2374220335387
63.6417271952458
64.0119588881567
64.3731068892049
64.6669439549207
64.9448620747464
65.2895555518527
65.702183745165
66.1689728298946
66.6154504911513
67.042109659425
67.4532506651696
67.8143424924855
68.1184682768017
68.3726598748646
68.5786434039969
68.7541145707422
68.9244318133635
69.0768773727373
69.2239703115349
69.3853533955176
69.594901920517
69.8290750137964
70.0183335144137
70.1471970209117
70.1833824585817
70.1198401352636
70.028121220831
70.0287466062759
70.1634872764033
70.3855300935798
70.6325780463267
70.8512590413663
71.034050563561
71.2126748016939
71.3955054332167
71.5320705808412
71.6335013610125
71.7175568938625
71.7742991580163
71.81041716359
71.8137145214772
71.7875766692954
71.7178958518057
71.6113052577375
71.4609075051806
71.2853447777555
71.1820487183566
71.1446996767248
71.0928175791795
71.0086826070496
70.8782534088033
70.6819556918045
70.4020967571164
70.0751186723232
69.7186318515503
69.3567446188255
68.997494806723
68.6962938238229
68.3821820028892
67.9590387639673
67.3601541426207
66.5983167699241
65.9251777549968
65.5985677599
65.5481762699886
65.5658089409645
65.4674584066895
65.2048428525595
64.8324895503549
64.4067302250106
63.924520561711
63.4685123621796
63.1312889500425
62.8782168533013
62.6189717271269
62.3466040553916
62.0711220811538
61.7932529432011
61.5016159675027
61.2660805954004
61.0800583936689
60.95235329664
60.8703696540681
60.8207339710309
60.8430109987314
60.9340585988869
61.030564585717
61.1580663893794
61.3109509420302
61.4856687274286
61.635561276984
61.737331241077
61.8234580752652
61.8954975974839
61.8767405385829
61.7820530475521
61.6546778998191
61.504952926141
61.3116511879542
61.1194676608791
60.9063284266743
60.6908388645756
60.4962744595374
60.2905345277125
60.06998681276
59.8711893479968
59.7159105459675
59.6137919436088
59.5384354508352
59.4679969770369
59.3705806524863
59.2877638412425
59.2145160018954
59.1569819922067
59.0894860529346
58.9974902484073
58.8047675604961
58.4888459510933
58.0987427524047
57.6946195321423
57.3562860247354
57.1807280717889
57.2504887503435
57.6069190037332
58.1826983754584
58.8964605661676
59.6268349911302
60.2659207720097
60.7465680573472
61.0835331104258
61.2601694573914
61.3160423286039
61.1813764169714
60.8697146858309
60.4537572049442
60.0143208922196
59.5643835440691
59.1666718650558
58.8611486844373
58.75647256323
58.8810207107633
59.2234206856237
59.756109244692
60.4569248701254
61.2158171395402
61.907409525395
62.5059060061228
63.022625995752
63.4059195127606
63.6638781591382
63.7956729143346
63.8858381195419
63.9841594928137
64.109425514515
64.3017542785931
64.6018476066909
64.9894620484133
65.4054005695469
65.876323253996
66.4922963882114
67.140050659137
67.7581148280444
68.35064155785
68.9095975307618
69.3979475562417
69.8392098112642
70.222826609498
70.6236293184954
71.0510089752156
71.4202251310261
71.7210962891075
71.996973258393
72.2448887731633
72.4081855185479
72.4934449631503
72.5542809968224
72.612302407737
72.616425848296
72.568688282239
72.5044186692975
72.3465220826513
72.0776844290312
71.663654534923
71.0227103693199
70.0158974946653
68.5828461607716
67.1489797371113
66.6231810655
67.2834828144447
68.5541267489357
69.9143878824474
71.1225844223342
72.0950803272437
72.882272586996
73.4834148087864
73.941101084096
74.2992547309335
74.5851070276679
74.8049824546019
74.9306679311595
74.9956458810313
75.0279211720566
75.0257462175115
74.9939213159212
74.8923731183894
74.7590220305147
74.5419504523671
74.0309317087842
72.9919177575704
71.5671992584856
70.2214956690205
69.3532320866271
68.9360818823137
69.2096532679374
70.0568510629076
70.8077238675265
71.1498062178805
71.2800735565164
71.3147126474745
71.2526593918921
71.0752188412975
70.8026393980767
70.4881293423534
70.0976392828732
69.4779389658905
68.673514369462
67.8262083237086
67.0774660789363
66.4339782139781
65.7343299530163
64.98987833818
64.393073860149
63.9202750201114
63.4285795187774
62.8836834574655
62.4583607173033
62.3776266909923
62.8214267949406
63.55571433006
64.20282490073
64.6364611453231
65.0698156029712
65.4497375468645
65.6946448160581
65.8706084796872
66.0270420125194
66.1475688274997
66.2495458166785
66.3262695932658
66.3478840531604
66.3395286888034
66.3703954918139
66.3819719942192
66.3842921992746
66.3847971596884
66.3001875470542
66.1280092442695
65.9776103906971
65.7922418957455
65.5669833172389
65.3344691085669
65.1327132325788
64.818886831684
63.7270074702827
62.3556509625275
62.0810599400163
62.3690080507125
62.4860022138052
62.3873864406854
62.1729434810277
61.4967081188408
60.2844239728582
59.4436270578184
59.6829983581838
60.3933295688137
61.008694256188
61.384518284443
61.5642113643714
61.6910925552701
61.8340571128852
61.8681537000551
61.9148911571627
61.959814451456
61.9695569120023
61.927466060955
61.8563788959116
61.7453550704053
61.6447689765109
61.5080328421516
61.3593363827112
61.2333614320897
61.0311688277182
60.7880419721033
60.6457209845739
60.5364326437202
60.4462445950337
60.3603606341463
60.2884724975405
60.139440543512
59.9989789467436
59.8627884765937
59.6053771984979
59.1417346407946
58.5438382986937
57.7494941339547
56.9170712355531
56.1866335724216
55.6972107605638
55.4762347266492
55.4273685066049
55.2914629717885
55.04775861807
54.7319086105127
54.3832609556328
53.9855795568299
53.6665306659818
53.3737469058355
53.1742643571455
53.0029759470876
52.9177547636821
52.8611537689996
52.8534412400139
52.6441102147163
52.0998443415314
51.5123763172363
51.7816743837205
51.7589575939833
51.343424630402
50.8652952331656
50.154497769284
49.3401039855252
48.485625625212
47.3797180085323
45.9594924063391
44.1157268974917
