1798
3999.43349933624
650.420452594757
1
128
4
104.803134531959
104.839719336034
104.897949048407
104.813467889405
104.662450388568
104.756253192976
104.824161185509
104.806011879043
104.754439310001
104.642792420419
104.703985403957
104.761330673504
104.588079430667
104.666555666793
104.755134406914
104.651345923143
104.556774483754
104.550310442491
104.499156237894
104.476713701203
104.560438054889
104.623553203229
104.626094039215
104.658249479499
104.704882183708
104.691155922238
104.49236781136
104.440542019365
104.537006122314
104.333565670228
104.193628851355
104.342058555521
104.38722453988
104.44034455514
104.518527272714
104.367809499081
104.395765157178
104.527802528703
104.407112172032
104.216670780811
104.366056828746
104.683016725096
104.475002631771
104.181219034972
104.074366909231
104.196671594385
104.291720528282
104.390944051345
104.529245055609
104.584316055928
104.370561775537
104.180113005346
103.943795259849
103.699738348565
104.013155637194
104.392947298569
104.423726402959
104.166254349697
104.281404860577
104.449961397323
103.980126454137
104.174951773746
104.607036694254
104.006864610059
104.023256243455
104.321151765004
104.198272181808
104.307011977836
104.204804778433
103.608685403632
104.209539769714
104.063492435555
103.754808063934
103.835671586054
104.051171910717
104.431096171791
104.383338646939
103.712387889998
103.24697117572
103.729308341494
103.916995175315
104.053258201678
104.028285646293
104.074528695944
104.18963385097
103.956627102636
103.725728072584
103.854696326391
103.835591582252
103.662733468833
103.76468195616
104.064887691448
104.101172291294
104.33276060947
104.141174673158
103.647165180831
104.073474378515
103.790562826033
103.232129228151
103.744951312386
103.942146852885
104.090031499987
103.927926789405
104.003256575568
104.344464953358
103.78117051312
103.552422737376
103.780912644184
103.390265000812
103.489715297594
103.784806581421
103.897419599426
104.050438536178
104.088838372928
104.088150828565
104.087349161736
103.979894908113
103.678411671264
103.715782651532
103.891095372933
103.918964310818
103.927308053033
103.705076614474
103.756325714779
103.842560290341
103.58962639368
103.783739102805
103.680713629896
103.599142758282
103.75904845498
104.074197804471
103.977427362685
103.501142421645
103.46215462384
103.792612140049
103.864020486807
102.709334529023
102.76538283887
103.367216792714
103.576922869292
103.363016160746
103.130639535661
103.309190436618
103.19748723996
103.475068715427
103.512086576451
103.631195695839
103.499806599603
103.253683654056
103.432855178185
103.593561710688
103.74886136995
103.906877816474
103.579281120427
103.415673802864
103.309087756535
103.387195319052
103.477432671719
103.459017774425
103.273449368172
103.355800662281
103.451997228243
103.717194795739
103.947806565742
103.890745568456
103.620659798513
103.23006931373
103.118026211285
103.20909875325
103.283952490119
103.545990641012
103.568312219351
103.481136544706
102.952816418105
103.309066911038
103.121842822609
102.531964791271
102.548284059831
102.75857359111
102.867421463418
103.09377520382
103.12649894256
103.107562740297
102.8152889911
103.024284155391
103.346105998336
102.849380341424
102.271197617508
102.098871943758
102.304003832975
102.270758339151
102.052080365613
102.177545852101
102.234721449262
102.360967156952
102.285294684313
102.4201734969
102.244070112214
101.507175434638
101.432063736906
101.645105756358
101.739644656249
101.616170057997
101.222142791209
101.251874273848
101.24249641737
101.030840839674
100.949429854012
100.969050169716
100.783930120496
100.783865655524
100.682435314397
100.647691811999
100.379221221767
100.252283883078
100.177671445205
100.229924714351
100.224076444609
100.295390515218
100.005195831152
99.6261980531956
99.4947617324953
99.482996864814
99.2363065276302
99.1287743000308
98.9714340075238
98.8903614384289
98.8045860586903
98.7790635488894
98.7599648543746
98.6054587265485
98.1057109205176
98.003274712267
97.8280662276375
97.7311118988673
97.6388285836428
97.6483951442678
97.5289506458036
97.3745471321146
97.1062819315819
97.0909379492838
96.9538504714072
96.6591013435967
96.3667545238017
96.4123841321924
96.37943393436
96.2866050070908
96.0655054273007
95.9623943968768
95.8810517998641
95.7310157981379
95.5435412697284
95.5556673565731
95.2666896861985
95.0028129252199
94.7904026891111
94.6692948608985
94.5371013268488
94.4359732921325
94.1501816760133
94.0038648610937
93.9581338606424
93.9667433880234
93.8086248147654
93.5978122110699
93.2505932422955
93.1171287992883
92.9282600701849
92.9449672293985
92.796814817237
92.6545638431514
92.5291646071024
92.3919107357198
92.2261411813962
92.0675587514324
91.765566945489
91.6965387520438
91.5532126387724
91.392712109624
91.2569921702302
91.2225079233209
91.0378608912651
90.8188325829981
90.5168720538044
90.4703412141594
90.4057182439754
90.3379969897478
90.1199599143372
89.9465678115753
89.7074428395119
89.6137244066348
89.5012217712779
89.4061764740429
89.1850624850313
89.0729901457491
88.9410835265125
88.8506081155606
88.6323047602837
88.5237966558354
88.3119711386076
88.15051180002
87.9754481655956
87.9146216404554
87.813521526218
87.6911263650963
87.5780488671349
87.4578210127897
87.2973411570458
87.3180150330284
87.0811695594246
86.9070641188502
86.7869408283575
86.7297410173107
86.3876256042288
86.2759352891154
86.2272079406204
85.9738014405621
85.7269579179117
85.8401312905137
85.8849634256147
85.7809663265702
85.5132128964556
85.4213228476809
85.3336817322907
85.2532966004294
84.9728393497367
84.7642580398324
84.6403202839231
84.5684487927396
84.4204150314759
84.364861790735
84.2509641513995
84.2465898490733
84.1255956483409
83.9558981296857
83.660002590052
83.614343688777
83.6186823331356
83.6649196976638
83.5520160231877
83.5560794228243
83.647347952139
83.5688663056926
83.1733533880149
82.9536675506927
83.1329489709583
83.2808566924627
82.9610430987695
82.7175952624978
82.591595754325
82.597649399986
82.5890160588126
82.4344649464921
82.1488302138544
82.1618168962761
82.2563240111831
82.176548554851
81.6937795560454
81.9136115022754
82.1797886704133
81.8526113353125
81.813094720546
81.9307733352066
81.8619380695416
81.8928390213398
81.6721879736785
81.5125692573632
81.6060492936304
81.657026520802
81.2214374674482
81.0208842928543
81.0483141972502
81.1426830774481
81.1498744816039
81.3840334991739
81.4037137370588
81.3961583111424
81.209533869696
80.810949227392
80.6549939380147
80.9964964586032
80.8968301756893
80.6681871386336
80.6692050790286
80.7761289984995
80.5665207421774
80.3632777898713
80.2477393914124
80.3085622229396
80.3105452311758
80.4196961595541
80.5198109594107
80.6373267136822
80.6507152472285
80.6201485585732
80.4716037195628
80.4562274860804
80.4741798113309
80.5181242204545
80.3522413472165
80.3295449801883
80.3617028798124
80.3946485978706
80.4321244262801
80.5838880719128
80.6046079706281
80.6154124177797
80.5175643295611
80.4435266684811
80.4400241023706
80.6230546982748
80.7075827118241
80.8670625404687
80.890526434356
80.8432441288066
80.8086090893805
80.9527018061463
80.8204543345642
80.7100523805147
80.8910640337786
81.1072510126973
80.9218921263853
80.7654535797269
80.8278942463817
81.1686604433639
81.2250960457173
81.114946996483
81.0680935511569
81.1939111621769
81.118663793886
81.0834811846106
81.0806368888053
81.3356419214829
81.5812000432369
81.7885823338846
81.6993979196729
81.7639595043389
81.707153885122
81.6826019702384
81.8733469840019
81.9432230797653
81.8269627110358
81.8599466875602
81.9965825826723
82.2118910969506
82.0893466681028
82.0448497925084
82.2775972798639
82.7900639285535
82.7102088312935
82.5981224419015
82.659493930339
82.7717199290579
82.7824507992581
82.7353032184245
82.5625660580008
82.7856216087149
82.9104628408075
83.0032327343874
83.1744124395145
83.568288797832
83.7956429128053
83.8067431507409
83.6943989070837
83.8219081721748
83.731891301473
83.7492552865406
83.8308807954249
83.9006017688896
84.0738167341369
84.4274826247106
84.4107736624326
84.4841799859882
84.5666337117409
84.6684264787738
84.7134783023754
84.7296286527954
84.6213708286555
84.8656261881684
85.0437321395647
85.0123006846343
84.9944922954148
85.1487766363115
85.1583828894107
85.2937103974137
85.3212699939694
85.3995471703093
85.4216423421355
85.4888387356206
85.4961682476707
85.6259292306978
85.7649175001162
85.9707912012433
85.9978545526272
86.0606978149347
86.1391939076944
86.2403170042194
86.196328712804
86.226353796047
86.2134925757921
86.3360650106714
86.449836899252
86.6325883641747
86.612498282876
86.6004482549705
86.6504482919558
86.9109977291025
86.9769014465853
86.9483057983521
86.9502840146916
87.1040350727696
87.1718121143498
87.3630600774043
87.5217560917582
87.6439520629352
87.6276153973432
87.6917771158765
87.7259764897718
87.8152674023574
87.8674538631992
88.1040785413989
88.2158512754261
88.2511440597319
88.2510564627722
88.3109575253434
88.265381858441
88.4216660601043
88.5389151308501
88.642943970037
88.625040442181
88.70385482332
88.7266992329094
88.7756604993076
88.7956221907427
88.9198342663605
88.9586206498156
88.9492678445835
88.8755454199764
88.9808721724398
89.0032401862559
89.0774407166016
89.0671912774727
89.0204463781073
88.8794191087319
88.8166337259914
88.7176022178129
88.6995785260476
88.6005239919124
88.5433469220217
88.4270348420057
88.3074257827008
88.0998310685521
87.9797337721319
87.7729635817654
87.6156893761168
87.4199772203462
87.3414292993699
87.1596681303258
86.9401059937453
86.7939882812436
86.7802463740744
86.5838378804044
86.5187932880939
86.3704453390004
86.1904941186765
86.0600084499441
86.0145793971583
85.886442169587
85.7864377979946
85.5713878099268
85.3356940909043
85.1166069439451
85.0777790115465
84.9668135961099
84.9531144542711
84.9040584672787
84.9153862810001
84.9165006870433
85.0027547570272
85.0681161534319
85.1865941063104
85.2623902887607
85.4627109774153
85.5781723022486
85.7289730241318
85.8633737851939
85.9843867037958
86.0261834068245
86.1780619760607
86.2712046084745
86.395677002453
86.4531300485517
86.4567050225149
86.4254851088243
86.5306078264192
86.508251490124
86.5007608372487
86.490892425176
86.5046251577849
86.454254525189
86.4628024585315
86.3839642986013
86.3198555362699
86.2403163228379
86.2934204377984
86.3267930378238
86.3937476123798
86.4242763307837
86.5011794220513
86.5330563878727
86.6282398020631
86.6527851205135
86.7215707635672
86.8500414218079
86.9917376288528
86.9683804719371
87.0353662244917
87.103840742015
87.2720453197263
87.457140415904
87.5991965413442
87.6772998079241
87.9074035833563
88.0991922169799
88.2530624947517
88.3463131658614
88.5152956345506
88.5996632954128
88.6638134990592
88.6830655962479
88.8558271827855
88.9839388443047
89.1050080207396
89.1785409811413
89.2550621170182
89.3099563312574
89.4371669307308
89.5423877128193
89.673791282594
89.7624943969932
89.8651369131906
89.8948847828147
89.9248814826571
89.9243526470726
90.0695889881628
90.1759777536708
90.2857989443726
90.3523056060199
90.4326003659296
90.4453848968949
90.4940005934876
90.5515948972519
90.6699305448967
90.6865661427467
90.6627111412825
90.6606258602024
90.7805364084694
90.8568911619427
90.9175061958947
90.9438470023451
91.0123842770618
91.0329265121505
91.0778393301102
91.0957772247256
91.1639500398695
91.1527447809908
91.1973005393109
91.2385524768782
91.2351537831978
91.2492505262481
91.3568790875119
91.3850148044866
91.4386338201078
91.4524430082504
91.4934997251985
91.4867943635143
91.5416023884887
91.5670671619377
91.5666386776251
91.5589951072293
91.6386741542752
91.6812428643767
91.7532409488783
91.7821550780709
91.8011096216517
91.7758412002856
91.8212939448173
91.8740827801191
91.902962152564
91.860742617517
91.895607423749
91.9470693222024
92.0083278993269
91.9997507923731
92.0464580364501
92.0948684768084
92.1380361865166
92.1639482524389
92.2276392445299
92.1826933203275
92.1791308291905
92.1966672922162
92.2043447275365
92.1890089564987
92.2500645509471
92.2871478585793
92.3191970115901
92.3233489564991
92.3761759651843
92.4118600764895
92.4879766888891
92.4821525524256
92.4654197947701
92.4440138881496
92.465487910743
92.5071382519521
92.558770804409
92.5708511525983
92.623897482357
92.6193020806636
92.621951136362
92.6105002537267
92.6291123243228
92.6822868260285
92.7473221170564
92.7238528560323
92.710516363519
92.7400946791408
92.8205485078017
92.8739005705519
92.9705603729189
93.0126375363623
93.0247469845516
93.0653626491724
93.1645698181086
93.1697222772937
93.1963526256033
93.2399868919599
93.3126146438968
93.3174289611455
93.4237778975858
93.4816092055902
93.5189694536852
93.5462387432515
93.5503515280356
93.5605536208433
93.6780585241612
93.7006735579741
93.8062699119935
93.8232090919594
93.8442259543191
93.9161135004351
93.9486059332175
93.9300556325632
94.0397872341847
94.0750948584399
94.0786982049242
94.0373470984094
94.056337493213
94.0959708161372
94.213346506508
94.2472751508354
94.3003539405757
94.3133612898366
94.362597086556
94.3587769437191
94.3089851874486
94.3052568745546
94.3922717268097
94.4121051371505
94.4884110326971
94.5605160023168
94.6357573861599
94.6087701654393
94.5697681563084
94.5959892896662
94.7297205230846
94.604385827492
94.5679792785698
94.6476897357453
94.7047667273827
94.6861934092162
94.7729365635192
94.8193766653814
94.8155607027301
94.8210137284043
94.9040057660556
94.79535906253
94.6783332758804
94.7613857672479
94.8750902662538
94.8311104277782
94.8617883537549
94.9629360804288
95.0501090250723
94.9764536970527
94.9214493444784
94.8628556994571
94.9010990525697
94.9759294527292
95.0431082083419
95.0106536094823
95.0430192127335
95.0520954088352
95.0479021441078
95.0691238691126
95.1263982484493
95.1596275134613
95.2940046176068
95.2720770082152
95.1660220188236
95.1981932016234
95.2279878136552
95.179051054212
95.2565439866115
95.2290386817489
95.1438187682433
95.1479738943255
95.2437570036596
95.3364313810011
95.4201800064131
95.4728302737181
95.5107050560735
95.3152023487368
95.1849077124497
95.2932334935707
95.4039586532835
95.4107575209008
95.4641741237471
95.4588052899895
95.3926004936829
95.407824865728
95.4696406438693
95.4419655853103
95.4587578114127
95.5479016081431
95.6002870592898
95.5593985448418
95.5087251900171
95.567867851991
95.6879365516942
95.6328191334447
95.5509518219498
95.5331253849684
95.5988020689551
95.6512013152503
95.6658814048612
95.6740856183733
95.7670809208481
95.7558539500722
95.7226087459258
95.7014711678456
95.7007408011252
95.6321808635406
95.6510409166851
95.6913745872595
95.6591135306576
95.6970523390828
95.796100395234
95.7228427643309
95.679495717092
95.7518540270984
95.7413471021069
95.6592631266867
95.6369402011309
95.6566489210806
95.7325468597698
95.7158325713614
95.7407122142423
95.7636064397979
95.7367378211775
95.8149087793489
95.9478589432885
95.9326935776205
95.8738309215397
95.8605056540933
95.9567027542001
96.0718660440087
96.0953573234908
95.9495577614048
95.8380588548055
95.7488497286414
95.6740736939344
95.5770759406019
95.600344170975
95.7838059844038
95.9127012096696
95.9055354702538
95.915299890828
95.921929350115
95.9052496702468
95.8287146681687
95.8367996679196
95.7502299768425
95.6320475723398
95.5784858828855
95.6717274639096
95.7515286481802
95.6574366297796
95.4835606676543
95.4348509504562
95.4751765012576
95.5283050813104
95.5835839826935
95.6975544381426
95.6889976175484
95.6518538676631
95.6484363633347
95.66860198942
95.7043958783395
95.7954509602632
95.8186642197631
95.8757884326628
95.8146014115018
95.8270314490097
95.8896457801256
95.8303314393964
95.8225960125033
96.0082655380755
96.0560888365093
95.9984387690677
96.0295365839725
96.207067741081
96.3982259492628
96.4381492544886
96.3700758599388
96.4801740135512
96.6261406352976
96.7294678039248
96.5729976156464
96.4544561241557
96.4971749562418
96.6084573912337
96.7961132664474
96.841647293474
96.6654952103289
96.8297717518235
97.1419233408318
97.1215215623617
97.129895871862
97.2694068372685
97.2356267483251
97.1676395633066
97.2839760080306
97.5413942365549
97.4528947610023
97.3132288473632
97.4580848265808
97.7264523473908
97.7897627361591
97.7738653355222
97.7612895978044
97.7713335285347
97.6461730142445
97.6974629990957
97.9866708028773
98.3143847836466
98.1558212387766
97.967694248915
98.0314655387524
97.8920072752567
97.8295369282551
98.2452854953208
98.5477025304613
98.7578977252171
98.547516096449
98.2729694794148
98.3111232887035
98.5788485003647
98.4373185583608
98.3284324197464
98.6362596336308
98.9700207386206
98.8817330455065
99.0528658458469
99.1833130992859
99.1562505801103
99.4440760206197
99.7767268108444
99.626544640295
99.791406185647
99.8196952750307
99.5389977241472
99.4875146136977
99.7195007597282
99.6804388073845
99.6487782030589
99.9419023516865
100.231676132274
100.148670090396
99.8295961710583
99.4946196721872
99.4982784314977
99.4603016333941
99.2988439436684
99.0348997131296
99.1592569127814
98.8654264255469
98.3639791467097
98.0575544002536
98.0075904289126
98.1078530222796
98.2857229194972
98.2092392087348
97.7607657434235
97.6003443957396
97.6677452748491
97.6196054332765
97.5619761392054
97.6538677310871
97.5658488784957
97.2963816363605
97.1909617357036
97.1778746350937
97.3071109407049
97.4340504273497
97.5433390605607
97.6263330910996
97.5874079344621
97.4803620964825
97.5018783114166
97.5126270559208
97.6545186129568
97.5950347214116
97.485012561945
97.5268372003417
97.4254636567573
97.251498807074
97.4710549445678
97.6546921758728
97.8377753626714
97.944550438106
98.0646708748201
98.131972468098
98.0941060225355
97.9835348398128
97.9999112309494
97.9828528205373
97.9196581797922
98.1469651071295
98.4985446542792
98.6414925513246
98.8015878350804
98.7002600089544
98.7091180672543
98.8223776825275
99.0663673034707
99.2987063250676
99.4104787574702
99.3560237575341
99.1382514926514
99.4486384449193
100.238005778045
100.510984736713
100.458671998155
100.422930323318
100.262630280395
100.078208340204
100.418679941731
100.452229497762
100.020529070214
100.013552270614
100.346158974138
100.252932955173
100.370665429722
100.070297742209
99.8390407195509
99.7386556844988
99.9155008477033
99.9166616122197
99.8304087352743
99.719372256571
99.9093263423723
99.6717138742616
99.5209689038197
99.48784132924
99.4042383578864
99.438976728467
99.5182122079491
99.0109121562102
98.9099896530401
99.4112167100116
99.7388875377946
99.8011568249217
99.9836439864323
99.9461786271839
100.007990578135
100.216310085158
100.096054533717
99.7969868103087
99.6734722867215
99.393464817147
99.1100428868405
99.0975467602009
99.0208757324822
98.5207887825447
98.7373647770491
99.0263915490557
98.8539426876142
98.5348227986299
98.2137991596774
98.068856218422
98.1948554164307
98.2056452399782
98.3041356810924
98.2955419494525
98.4107048355241
98.4361820554161
98.1050274606908
97.8258229082678
97.7982590285003
97.8081205996057
97.9959383677459
97.7435156483371
97.5583788168029
97.5909268574521
97.4254543718365
97.385001121188
97.5050733065399
97.4666447590341
97.4827695052769
97.4199025986749
97.291054127326
97.2277277124452
97.3633486547067
97.4377398658759
97.4019328469117
97.3466324023029
97.2966874977429
97.1859977020945
97.2605135387013
97.2268926794785
97.1211914148027
96.9820350519324
97.0672426383551
97.1251453073029
97.0023657597271
96.915732679623
97.0459509261887
97.112576671248
97.0829171344091
97.1439313209351
97.122021707791
96.9039279593206
96.9150782930603
96.9201462848022
96.9313167605118
96.8712300486458
96.9146450133499
96.9383994985326
97.0459848425147
96.9553026221821
96.9169332113148
96.938856632816
97.0985011536319
96.9051696348889
96.681384650435
96.742497852442
96.7954740692597
96.8621837410191
96.9224990740121
96.9009525470298
96.9866275546847
96.8560161630871
96.7312173426775
96.7274397177757
96.6139060564501
96.6049991578511
96.6420323236116
96.7651605521859
96.7749493696366
96.7783117226423
96.7670488581649
96.7330715604105
96.6983468838742
96.6569257748077
96.6608299162765
96.726667473668
96.7649963535656
96.6038951245181
96.515282444932
96.5995615401304
96.7011556014077
96.5736534855629
96.3810349635499
96.3254565387013
96.3724670723269
96.4715803343041
96.4805028892984
96.4782327635441
96.3608872161122
96.4216263465455
96.3971004758502
96.5380860498599
96.2777902266733
96.1145418361401
95.910346681631
95.875652359633
96.0130847234331
95.9933874730614
95.9495900737499
95.8883937047149
95.7572721662966
95.6730820783134
95.7292481592385
95.5372516406924
95.4380599715496
95.11453723426
94.927916747996
94.8563744431806
94.9032268818575
94.86930672836
94.6699659430712
94.8010281089893
94.5672115612812
94.2381264338348
94.0445083352373
93.721695168106
93.8290572270123
93.822613018959
93.8272898391095
93.7487479830171
93.764425752432
93.3191521947445
92.9403343924922
92.3151079356363
92.0989198578166
91.9592432414072
91.8360028970457
91.6349896748196
91.2650096487913
91.0758891667182
90.6337393965722
90.0112809155427
89.758914145883
88.6802403184987
88.4741189538817
87.9732060018823
87.6565842110266
87.2911092580709
86.9472815636569
86.1382210401884
85.4565928715818
84.86151326075
84.4262161142128
84.1234520658883
83.4495503299558
83.1673368379123
82.5450060085148
81.9010910678178
81.4631106101483
81.1414908942949
80.6734808078218
80.1313330057461
79.7562151577062
79.4177611391554
79.1703155696453
78.6218786877359
77.6693019234268
77.5804459590765
77.5524971033744
77.0242342803715
76.5850755834127
76.5123349405796
76.4423365329322
76.2459863939607
76.0122132640001
75.4012244825966
75.0453865023951
75.1942713410625
75.1342440243879
74.8889203624011
74.6846503511721
74.5815948481953
74.2045589750701
74.2363725872949
74.2427062801365
73.8676651926797
73.5305933173075
73.6475149948516
73.4577252042551
73.2787851739379
72.9903255838681
72.8222718124724
72.6036328144898
72.3962011542896
72.1737599938871
71.9711243957192
71.7509240964263
71.5116977073728
71.3409688525086
71.2335714940155
71.0923524798693
70.9672320863785
70.8679740005078
70.6973070687048
70.5398779504086
70.4323288047465
70.2612103940021
69.6506450649712
69.4631301805297
69.6411575955403
69.3562990986234
68.8370753573336
68.7916167167958
68.7183991771431
68.7827491642858
68.7227513379711
68.0072657680979
67.4101849942884
68.4199696865505
68.9418021225817
69.3147119091821
69.4455937342088
69.7928582610327
70.2665491205742
70.5239641281072
70.8050065675828
70.8191149108304
70.8997879650878
72.219729777285
73.5463220176035
73.6430439160923
73.9593490214214
74.6497511857806
75.2488661287237
75.4403848730222
75.8911765167516
76.2013709000891
76.2518884445968
76.8450555329839
77.1903892602828
77.646275369669
78.067674263186
78.5738619025809
78.9250725675624
78.7552643226257
78.4341760215195
79.3760479593173
80.5332858988854
81.0090863019051
81.0089092397049
80.9567714100243
81.3327974104245
81.8738503512344
81.9431781063191
81.8351707641133
81.8427269807699
82.2434033630979
82.4860783351058
82.5680505374488
82.6309820091499
82.580459340386
82.4686482738523
82.1637177473105
81.5860951921395
81.3736040013141
81.2388357173858
81.0611362858002
80.4532843371824
80.1157559034296
79.9256007210692
79.616516203073
78.8080858107668
78.3166501855362
78.3184688909901
78.3890435459224
78.2765578526424
77.9903272954504
77.9392778474643
77.8648694079306
77.8594357670193
77.8300135126781
77.7230997778293
77.2946799171426
77.1685016362235
77.1710434602038
77.1389512786862
76.8450855991073
76.6211027692778
76.3394857491645
75.9826180680892
75.6374091927313
75.0059929601052
74.425096428931
73.9677543890351
73.6445285115522
73.2252640934979
72.6088034224386
72.0936546899427
71.5810560860879
71.0769556912337
70.657825695401
70.4211797153952
70.0863714447692
69.8794762564478
69.6739413323268
69.6800742005551
69.8708168241466
70.0727425034834
70.0421916145897
69.9619311830228
70.166148038467
70.4357668664932
70.6434405117637
70.7555427792246
70.9685022601402
71.0879267101823
71.2344715526487
71.5635096101675
71.9213035718327
72.177016992867
72.468110828644
72.7177462361812
72.8753513775883
73.1568086146075
73.5751141644086
73.9007116305646
74.0878175051402
74.313527129657
74.5555225885598
74.7463082532798
74.9221987515914
75.1156335320606
75.3301172066703
75.4836176837656
75.5184497962177
75.5807902354749
75.7806674857357
76.0483101255827
76.2154663939374
76.3111167114217
76.3746184803079
76.4375705409338
76.4474072031807
76.4405095484134
76.4252166207603
76.382125307166
76.323648376119
76.282933199214
76.2397196230743
76.2148879331408
76.2234254876348
76.2280461013243
76.207574047557
76.164914887486
76.1195357998867
76.1324190497174
76.2230199928994
76.3872840992303
76.6190491408372
76.8477786706537
77.0442642775597
77.261757264564
77.4799637768223
77.6678891806462
77.8654793380347
78.0581803959884
78.1992815459195
78.3209165467388
78.4384950055519
78.5588882220978
78.6663602882269
78.769199954834
78.8395450160287
78.8988943165927
79.0013533069494
79.1087047684927
79.1670771511744
79.2071246682641
79.2577034879907
79.3172485872594
79.3639728457839
79.384485994042
79.392397600576
79.3999074806564
79.4058808750454
79.3848270130821
79.3502430366864
79.3360090332298
79.3095848767836
79.2587584446513
79.212263422941
79.1791528122081
79.1494559506789
79.1515639042612
79.195063886332
79.2635854491349
79.3569588799339
79.4427504679234
79.5136983304312
79.5930217428358
79.7131626714277
79.8643080319713
79.9751413756997
80.0784174069798
80.2144874574615
80.3534457529408
80.5152020543346
80.6697358993157
80.8206442669004
81.0124047027712
81.2055514045823
81.3909929126969
81.5949757610567
81.7967781279189
81.9989176434758
82.2018473828655
82.3845106264172
82.5584525396014
82.6987970019763
82.7966863980214
82.8750233447953
82.8997664961676
82.8777778632613
82.8351011014519
82.7464504203278
82.6180044310924
82.4990037775077
82.3984973834487
82.2772416567587
82.1425545575102
82.0186677700075
81.89371902451
81.7384110432162
81.5664287879476
81.3906741536382
81.1899567740467
80.9908300299278
80.803258116423
80.5866112179121
80.3584916465488
80.1255873955016
79.8523937821347
79.5497653738101
79.2288682590301
78.8429281283542
78.3810939497438
77.881839293225
77.3871329680527
76.8900167635245
76.3656048149398
75.78923026439
75.188020936472
74.6162448101227
74.0867974315857
73.5968342221903
73.1663699086814
72.8472131883897
72.5860597931623
72.3368345498773
72.1118897569966
71.8874422391154
71.6482804375863
71.4052025325623
71.1361723449068
70.8368529816235
70.5678937475706
70.3323474147967
70.1029582935784
69.8815652340111
69.6717536944255
69.4832284651983
69.3113407456917
69.1194470092429
68.913414559884
68.7259217694936
68.5264781521764
68.2906493062097
67.9903599510925
67.6169943125104
67.2155255364354
66.8087509173868
66.3690950644495
65.9043727103658
65.436812689688
64.947719967765
64.4252449312758
63.9248894996011
63.4483980297985
62.9812143111675
62.5788964429724
62.2235139843145
61.8671356357122
61.5333023364261
61.239776737267
61.0053245825118
60.8247128830377
60.7270116827715
60.6909034656107
60.7269754000639
60.8669442994311
61.0619146570572
61.3060166719131
61.6356373036369
62.0462457026709
62.5019248678154
63.020841370898
63.6006898121653
64.1802081743702
64.7797838144338
65.4265146537355
66.0719859600916
66.667677096973
67.2042356169893
67.6648871801996
68.0683232144385
68.3822228341676
68.6139193674803
68.8286356823889
69.0432405999725
69.2385019914075
69.4468720367466
69.6813692044391
69.9153704518065
70.1452820488265
70.3642878367188
70.5244063508669
70.6546120714469
70.7597419224476
70.8319888304729
70.8838009942558
70.9619519898189
71.1064263235224
71.3186763033786
71.5723761703942
71.8793566163822
72.2377440671076
72.6048472576227
72.9921223288297
73.4229355576159
73.8208844124297
74.2192788852935
74.6337985063116
75.0302764566279
75.4024412247951
75.7375344612839
76.0443625944812
76.3691215693076
76.6610242343421
76.8814017795004
77.0928466537269
77.273230360521
77.3441696679489
77.3671921075612
77.3227212273657
77.2030255885637
77.0898595817714
76.9678028198178
76.840345727561
76.8071328980352
76.8544682256564
76.9166117631042
76.9888599627028
77.0933406175761
77.1857568864281
77.3117456243635
77.5069420937581
77.7541110378907
78.0293571253891
78.3642142618704
78.6880153520944
78.9445825267358
79.2252112498979
79.5116461577185
79.7061777449023
79.8763754343757
80.021668357018
80.151054898277
80.3240715970838
80.4903091754832
80.5759403228885
80.6454859151127
80.710595341321
80.7377389082899
80.7100996705147
80.6736007374754
80.573751543605
80.3807770350071
80.170716021165
79.9836055248509
79.7672233882209
79.596638079264
79.4924140166949
79.3976034214587
79.3191700050308
79.2400035685173
79.1026577757174
78.9982860075185
78.9677092956696
78.9460921327825
78.8382661762497
78.7373966574683
78.6637606301536
78.6073536772931
78.6042556002236
78.6153547277151
78.6410086596567
78.7184265242307
78.8006510392066
78.8789236012158
78.9033194878745
78.8830554755267
78.8581793820741
78.8312142483175
78.7609933462533
78.6760385873146
78.5718010027442
78.4355335279167
78.2486894446096
78.1147327093258
78.0435001226551
77.9711598785798
77.9587760559743
78.0236521427408
78.0158690665392
78.0096043777818
77.9921404891347
77.9093346260756
77.8653765544991
77.8212834720058
77.6616034126236
77.5241568534017
77.4172110393353
77.2730351929893
77.1091893469916
77.0270422566071
76.9630906274175
76.8785467253114
76.8342450020366
76.7779418830554
76.6487517779454
76.6132047764736
76.5866577750237
76.4730366789431
76.3376302284727
76.2549367722419
76.1676605633082
76.0490101939776
75.9503523576192
75.8650883956021
75.7738806273724
75.7455694869192
75.6639238711808
75.5094035288641
75.3749895691974
75.2761088592956
75.1899629713006
75.1448222092578
75.0147366548805
74.8271870513076
74.6652060792394
74.5199804687905
74.3152987205066
74.1057444254377
73.9138122805725
73.7617183469939
73.5742320864809
73.4079063737815
73.2537620015387
73.1364281342932
73.0684118877616
72.9788553129231
72.8211785418722
72.6863388359356
72.4988349395687
72.3203948435644
72.1918202174589
72.0085149870313
71.8053484077784
71.7365885984945
71.627061241169
71.5325820477841
71.5442785667231
71.5177372697296
71.4380177833567
71.365434909927
71.1728272983164
70.9722049607124
70.7879032956855
70.6817861558785
70.480909147974
70.2567828148823
70.0265539097446
69.8170333391449
69.7041948386427
69.6747693616918
69.4885747788492
69.6025572860077
69.8173937352089
69.4810611237675
69.413127565265
69.481347129739
69.4044783602276
69.2606633307252
69.2759072387326
69.2527539053449
69.1355865477844
