1798
3999.43349933624
650.420452594757
1
128
4
98.9870938935824
98.9909361079581
99.1336337838449
99.0764061580633
99.0026019965448
98.9863594742054
99.0409118289246
99.135267988457
99.137087830231
99.0339961209874
99.0422700972161
99.0787797497356
99.1363909055422
99.1057406489391
99.1101462264132
99.1368605285818
99.1111887956939
99.1084176385203
99.1235266195315
99.0125033345702
99.0650201756329
99.1683357538956
99.1142110193318
99.0166245395203
99.0733898433954
99.1206214679576
99.1105523119307
99.0936057319529
99.1169258148655
99.110874254343
99.1243679313179
99.0167753370114
99.0276665302889
99.1025915255776
99.1313295149168
99.0941389801614
99.1230189538724
99.1257476964131
99.1523116885123
99.1552962034171
99.1176078906089
99.1422953893444
99.1965635443281
99.1680577573133
99.1472059618284
99.0621350736417
98.9921704159011
98.9525568623859
99.0521250477853
99.1221095050589
99.1847071808599
99.2788522797549
99.2777504511293
99.1105101259561
99.0101739691678
98.9497493338741
99.0690388878172
99.2055027877444
99.1433429211465
99.0026335052599
99.074204431709
99.1193612291257
99.2371391836725
99.2363050484622
99.0611975917179
99.0659842873877
99.2023957632015
99.1622691731622
99.1843693926073
99.2765396715849
99.2337971495468
99.1476883629797
99.0909316684303
98.9756008651639
98.9706900735715
99.1099341547276
99.3033862555392
99.4741188952303
99.3967644999137
98.9446629500482
98.7900295697524
98.9911208035953
99.1696964123381
99.2464776492007
99.3975745537269
99.3712906901183
99.1876581775671
99.0439036039584
98.9637547500118
98.9314324302532
99.138595439738
99.2530184018548
99.1496263272716
99.1188178385116
99.2050788867347
99.134650025406
99.1021163533307
99.155510165022
99.1030324428744
99.0154308535495
99.1103748556464
99.1925186399961
99.2937030070035
99.3320874567888
99.2977521496356
99.2478318818009
99.1726404227046
98.9825646019122
98.9869694589554
98.993754593443
99.0283922502284
99.0950091645564
99.1726042643972
99.2057323240853
99.2212957888774
99.1990706905734
99.2234479031367
99.2051662162001
99.1950793082221
99.1597061818843
99.1372231004308
99.102634845766
99.1424957796433
99.1469934441475
99.1823869527008
99.069168066714
98.9903052042858
99.085325982088
99.2744191554587
99.2264300651455
99.2011438058519
99.332700596175
99.3686241601986
99.2288354027113
99.231914861644
99.2088940947972
99.0511337865722
98.7811357289902
98.7754344118447
98.9490912724433
99.2055746353947
99.1852268102151
99.0943481351457
98.9551537134453
98.8436269269538
98.8754222842409
98.9687967363175
98.9815566122982
98.9990849409864
98.9057965958687
98.7818433046669
98.8566772201831
99.1279766206294
99.1251439406811
98.9766925698993
98.833708068155
98.7977145241526
98.7749155876763
98.8857551985432
98.8851069068616
98.7004577295715
98.6151750347981
98.7075079334346
98.7549131070936
98.8815822008794
98.9277867548518
98.7551508545439
98.5356693120153
98.4278762190651
98.3505505137509
98.4071726123912
98.5268048500368
98.6249334789271
98.4511721007004
98.2372801475032
98.1222605993463
97.8595828979155
97.518605357222
97.4100890180323
97.3451952872512
97.3963940280962
97.5753978542414
97.6235694972515
97.3427080982454
97.2026032399777
97.2420558757794
97.1953081621475
96.7919202586291
96.1859776333883
95.9949974040809
95.9159059995687
95.7613953816941
95.7606122410636
95.704910514953
95.5434115200468
95.443806541092
95.3569684027731
95.2195017282501
94.9303560991702
94.2753348521892
94.2516418338516
94.5607645541783
94.4656057527909
93.7246312242044
93.5777841826397
93.5335423137786
93.037054827654
92.6167063366321
92.5515858988426
92.5339064795651
92.597944097928
92.5005079689567
92.0245308048891
91.2093146008968
90.8870209559926
91.0080705268422
90.9588777540612
90.9731074853801
90.8076625721031
90.5820558450531
90.5243228775062
90.1000084645703
89.7395990383219
89.5586887033614
89.434401315018
89.1007881200766
88.799899888022
88.7298859691544
88.4053671928249
88.1506256579198
88.1439339214092
87.7022417838411
87.3513861553468
87.1802572394265
87.0891388100046
86.8873631639928
86.4246439503684
85.9388580294223
85.7284197273447
85.551961105458
85.5537287769269
85.3370404753055
85.0646270707953
84.7604867499532
84.4327547860492
84.076940751363
83.9958242400021
83.7276522949473
83.2833416792227
82.985454711354
82.8419089610483
82.7132272872873
82.5062411072757
81.9392364505853
81.7381931064273
81.6258691355494
81.1968419789298
81.1335759480809
81.2300466268244
80.8743343075147
80.299328554946
79.8729520987837
79.886437722351
79.6136989534477
79.2810875013014
78.6381639058505
78.4779810456945
78.8274205383546
78.7450111078663
78.1383848044228
77.877679040319
77.7443353049958
77.5554058258512
77.4204537542381
77.2486249063651
76.7835971338712
76.5503200995396
76.2891481948442
75.7839048949182
75.4684673681285
75.5252716833049
75.4673701779933
75.2246805826532
74.9171954432297
74.7883045807209
74.5444732747326
74.3810015452735
74.1935521762649
73.9597373583731
73.685977353547
73.6239049840884
73.4740338304554
73.2596114728204
72.8285751206867
72.51478662202
72.3115322792453
72.2301005870204
71.9335198974813
71.7698145845921
71.5686834515609
71.3877326854318
71.1817533541138
71.0075028791198
70.7609917113202
70.6425598659069
70.4271419062034
70.3043191705645
70.1393339707321
69.8885111539033
69.6586795733648
69.5330548594259
69.3918053511249
69.2949283526723
69.0585486078668
68.8662208815689
68.5855552447742
68.4814824884348
68.3725907591268
68.2447699700718
68.0559553816837
67.925819284854
67.7382362792516
67.6072771564738
67.4827725200671
67.3767176709163
67.1484972651952
66.9354287360439
66.7262829841153
66.6938193885633
66.5115784656523
66.3947375949839
66.2820034615706
66.2441025585338
66.0871888673509
65.9819287640129
65.841626987846
65.7682097247346
65.5538304450224
65.4977893511136
65.4411541668213
65.4400004499488
65.310978110657
65.1729511714625
65.0022853079265
64.9967430708143
64.9714413168088
64.9815225914773
64.8953111793438
64.8291551539434
64.6455801151223
64.5429471667062
64.5001334180898
64.5346032096273
64.4844903548754
64.3906410918254
64.2657116357764
64.2709463872754
64.2212702096836
64.2081109007679
64.0960330955759
64.0756378244032
64.0013793268643
63.919616254278
63.868169774714
63.8894768934785
63.7700050913642
63.7570865627202
63.748104438505
63.7884345704867
63.6628629628828
63.6216798107022
63.4996243923709
63.4965090631652
63.4533208007565
63.3308493933451
63.1968085576111
63.2448640673062
63.1946897550961
63.2578907682589
63.2200632000274
63.1602940558784
63.0345474062214
62.9987460848598
62.9434395875501
63.1001602982906
63.0214349540124
62.9531518681747
62.9862663870175
63.0675863588075
62.9940402616123
62.9812481214797
62.942636945767
62.9710974736897
62.910007758876
63.0046115065524
63.0149793441727
63.0328525860544
62.9797165496057
62.978174135545
63.0684851609604
63.1189408476022
63.0991973768629
63.2004942475455
63.1185215887864
63.1547733895873
63.2411386813158
63.3574371617607
63.3490741872108
63.4539284529138
63.5497449027255
63.6610325027666
63.6574755052058
63.711079982939
63.7316296530011
63.8688873300234
63.96349722642
64.0607753415581
64.0063376349298
64.1034736161381
64.2072691929977
64.2770897935403
64.3461177880635
64.56606996285
64.6042310773462
64.6371406984313
64.6748084327997
64.8082428726416
64.9213872645883
65.0444257878157
65.1430970073723
65.3396031900764
65.4536543056462
65.6096504331697
65.7124505502166
65.7726482341932
65.8751979508341
66.0944023651759
66.2095837152935
66.3254897364084
66.3878117556554
66.6400352431937
66.8104276392959
66.9042020298647
67.0853585674569
67.2570366437199
67.3046511407985
67.4804679698027
67.6312519122068
67.779748090945
67.901679576273
68.1116895529942
68.3541116282295
68.5912634877946
68.7127735887218
68.883582755724
69.0781823880137
69.2608952154671
69.2654261374297
69.4019479330952
69.5543695234394
69.7819902794152
70.0318255084185
70.2005020276175
70.2731010547037
70.4413507211017
70.605605039551
70.8422420138675
70.9789753255754
71.1135151435193
71.2747109613451
71.5259501256647
71.6431185402795
71.8451789508741
72.0259528239213
72.2037405660385
72.2978421717512
72.38300914947
72.535359612343
72.794599725088
72.8775593360333
72.9657471234595
73.073554873436
73.2429127934162
73.4559783041968
73.6318103011195
73.6671088756706
73.8266701049624
74.0346044851384
74.216632427944
74.3564290517161
74.4897621851602
74.6239330132791
74.8025597881839
74.9574997722703
75.1598935062138
75.2575464179536
75.3585968636752
75.4513018689438
75.6278178595128
75.8062564105774
75.9840326699575
76.060296769026
76.2234379337934
76.4241498433904
76.5528937994346
76.710676619061
76.9112307590535
77.0914850578956
77.2777082771388
77.4062767801068
77.5204050143767
77.6671572889613
77.8893496757277
78.1192763287671
78.3560694791187
78.5193897599502
78.5992317238053
78.7117198862569
78.9092731785786
79.0301769303921
79.1567487732312
79.3004831222327
79.494087824733
79.6593869185829
79.8290471681764
79.9861973247141
80.08343118809
80.1566879248203
80.373327087629
80.5402441144275
80.6086838198583
80.6719616094752
80.7836552112884
80.8547132267877
80.9552427005222
81.0947184957905
81.1961094136162
81.2541831185974
81.2819423279484
81.2487024418285
81.2554132218454
81.2299898858203
81.2010514009638
81.1039194779927
80.9991910865613
80.9315227038765
80.8273835306017
80.6794693174748
80.5029772765428
80.2690042804372
80.0474714242134
79.889317380582
79.7206627538525
79.4341218411286
79.1822272135361
79.0304800760291
78.881051970251
78.6007525488061
78.3818856504824
78.2551149103607
78.0984494658182
77.9320731875799
77.7786622073783
77.5975673623465
77.495213543278
77.3473617318191
77.2249238102043
77.0081175070797
76.7522554167333
76.5612857097382
76.4068749787773
76.2180312718946
76.1350261412413
76.1091234860451
76.17199916442
76.1879340198127
76.2515063634648
76.3922025585534
76.5613242747242
76.7085983269796
76.9788578916564
77.278349061749
77.5655635471749
77.8587884799126
78.0838599132008
78.232258417975
78.4357724124739
78.6806409207213
78.7996968376786
78.8714328237618
79.0430297194489
79.2206766209179
79.355330701006
79.3988386369922
79.3936244191969
79.4045421641425
79.4537876330946
79.5523594281096
79.5648232668923
79.4887984335402
79.4893121075603
79.4987870606111
79.4251578506348
79.4053022242235
79.483794607505
79.5501459581737
79.6658813955044
79.7584758028075
79.8303871637268
79.9852734233179
80.2267254735483
80.4260237858519
80.5984995333461
80.7287572950669
80.8932070758824
81.0657378041582
81.2514815085161
81.4824271734207
81.7351240116977
82.0116697117602
82.2948646805845
82.5032013583407
82.8040453763643
83.1663444377435
83.4064614437595
83.5404073919997
83.7221533971955
83.9504442181255
84.1973171607239
84.375120034317
84.4873439779481
84.6478510334114
84.8262542488262
84.9912753719281
85.149735966157
85.3059566902596
85.3989448442643
85.5352988555965
85.779997653155
85.9476324391549
86.0568095256044
86.1846629742038
86.2645749946397
86.3681078463116
86.6040405615499
86.7679166673598
86.7865535012466
86.8839594769832
87.0285469391949
87.1555249629861
87.2545962972774
87.3448908693595
87.395349293571
87.4720343980479
87.548337454393
87.6708747740852
87.7985812226942
87.9096791941433
87.9980363995195
88.0460109718633
88.1256823285954
88.2566833710565
88.312885467446
88.324495021997
88.3731437380898
88.4792681185695
88.5828057060965
88.5994165307468
88.6184129581375
88.7048986939834
88.7776090230663
88.8748081172388
88.9467066580537
88.9855475552776
89.0414072345514
89.0718861749066
89.1053369999056
89.2290001729329
89.3164918422134
89.3338340448306
89.3494426514501
89.4073188944212
89.4842546493357
89.5980998359354
89.6637083514394
89.7430277075642
89.8339483150743
89.8733617480772
89.9019417242304
89.9448173047059
89.9982803586277
90.0793307205014
90.1585622277535
90.1887600483841
90.2567447791517
90.320677717088
90.356307480086
90.3851334152676
90.4310668022187
90.5000966554295
90.5122075497248
90.6040454708585
90.6743934478413
90.6902090029203
90.7302672856061
90.7974412842701
90.8219755616807
90.8521509993797
90.9229630266079
90.9963390499253
91.0442531495607
91.1241809249553
91.148475941505
91.1637419840952
91.2182043477882
91.2847522465038
91.3607318708217
91.3791101210391
91.4046331450383
91.4539314592661
91.4724185981439
91.5414842209484
91.6112106670607
91.6701858092129
91.7483761228469
91.8073643394779
91.8557441807664
91.9417706686865
92.0272400297931
92.1436660867961
92.2451018449533
92.2882761190485
92.3266204361883
92.415225178985
92.4562332428591
92.5215779908292
92.5842871348736
92.6687794234798
92.7667179283717
92.7903524814072
92.8035935319765
92.9213885686076
93.0574353132351
93.1454143667256
93.1592740925582
93.2344000748561
93.2629301598319
93.3501200962426
93.4728488369936
93.4947646662507
93.5484080755019
93.6295536870439
93.664216382201
93.7270825290318
93.8687049400571
93.9397736074344
93.874170603985
93.9545687251832
94.0364248504255
94.1036382612033
94.1643112840876
94.2075235977614
94.1797565276496
94.2021399451127
94.196038424408
94.3634985334902
94.5053636206313
94.5885952893656
94.5771524242034
94.6117913038428
94.6289215668261
94.5451666854396
94.5703152394329
94.713807766147
94.7295704193171
94.7903006867088
94.8458130197804
94.8811802701121
94.89995707874
94.9196740056333
94.9069731222437
94.99553546583
95.0239543743402
95.0382631652704
94.9962766687571
95.0617859118926
95.1944094215647
95.2084621948364
95.1602541192729
95.2172153131242
95.2171937036735
95.2385019714889
95.2868397381502
95.349902250047
95.3223257538887
95.336430203407
95.3108466761911
95.3349399821115
95.4684163175164
95.5280533727321
95.4368018184558
95.4391892193154
95.580569929654
95.6942164307917
95.6548454864604
95.6117413646458
95.6083976377963
95.716176776083
95.8063584354531
95.7169010943157
95.662598819934
95.7884944441504
95.8522918119837
95.876953429948
95.8394615951552
95.8440176691175
95.8535713186445
95.8512608740011
95.9046492049808
95.9951797191727
96.0452404540808
96.1110187283576
96.1617065704226
96.1905869656946
96.1663123554847
96.1963047761195
96.1224938625619
96.1195855150917
96.2167259192568
96.2754887265769
96.2805237776485
96.312982528011
96.309994040772
96.2640934365347
96.2653288800778
96.3414840394063
96.3977673639146
96.487912779224
96.480973537724
96.4910409607088
96.5433393516642
96.5945595744194
96.5118447470159
96.4762321109982
96.4845729309976
96.5370280003597
96.5904711303663
96.6092521035743
96.5513683781749
96.5875236053646
96.6108846024509
96.6078398377731
96.5355759805888
96.5922044621546
96.6286227161679
96.5836328934818
96.6132261140431
96.6587072669086
96.6195670166685
96.6725201315815
96.701156027525
96.7692210940848
96.7753845168091
96.6988560978178
96.6022290992729
96.5915935729529
96.6355714622571
96.6115500920467
96.5989180029962
96.7375487637238
96.806075978103
96.7110953964904
96.6749639730264
96.7829598036785
96.8212702188107
96.843445200872
96.8561621468616
96.9768776875614
97.0280942448609
97.0423711449638
97.054768842211
97.0602929286927
96.9924086501862
96.8163612722856
96.6475652550834
96.6771784402335
96.7967267598848
96.8374806732919
96.7744470123896
96.7775798155853
96.767450920151
96.7796484219507
96.840336061301
96.8880495314389
96.8061179413473
96.7744221717562
96.7890883674348
96.7854894009009
96.7382229075156
96.6832961458414
96.6688135403919
96.6887136067342
96.6737973977293
96.7437448559864
96.8125241828939
96.8556825803672
96.7929401443212
96.7717536038506
96.8237599636717
96.875401544768
96.9066077059239
96.9373042929837
96.9469947707494
96.9729044293429
96.9784041179568
97.0382570465894
97.0467541557129
97.0438029116604
97.0868279728302
97.1935843507508
97.2615497291977
97.350653507659
97.4243382246846
97.4828151150453
97.4798878916445
97.5517701848226
97.6126339170792
97.7574498877981
97.6838763122621
97.6266336075061
97.7824404588873
98.0148768704009
98.0767693548279
98.1915119772665
98.153149356567
98.1432614775125
98.1133000792408
98.0571619535507
98.1392807406534
98.4626501993231
98.4911243365548
98.4795081341995
98.3455099773942
98.1858603102586
98.165852996782
98.3872542917577
98.6770337814413
98.8589105368767
98.7379005709741
98.6130165692943
98.6267898257182
98.832842347348
98.9213285736599
99.0079865749428
99.1453390777855
99.3809185224779
99.3644587557834
99.1741080807821
99.0429409635501
99.1475301113349
99.119230641959
99.3153803311383
99.4512389256541
99.5809557986114
99.5097716348917
99.4990931958564
99.81190844033
100.048594548147
99.9236624389876
99.91368099882
100.018634658286
100.167826317191
100.009657231734
100.215372868333
100.544052318817
100.508441318476
100.419730157219
100.521334208889
100.380825342913
100.429467432337
100.455891568164
100.706234635963
101.066580554458
101.038834115821
101.002805071037
101.755216243894
102.085883503629
102.628560716025
102.436560869865
101.47641800927
100.736498911793
100.720503027298
100.636803225289
100.685357118405
100.41382043353
100.059503586063
99.7507889212668
99.5105638534343
99.4154230203803
99.4985170548662
99.3603327906441
99.183181388812
98.9709570123141
98.8015514489703
98.5815112613925
98.523390035121
98.5688330485241
98.6676480004639
98.4651901781166
98.1992440128519
98.1601426389676
98.3126899215886
98.4541980828163
98.6277177597645
98.6201626377708
98.509200308458
98.3272647377021
98.434870971231
98.6649582872861
98.9080100465934
98.9413197621511
98.9010966241957
98.9675917343112
98.9389978869312
98.8045587359375
98.9243267912988
98.8438226356777
98.8128272472773
98.8395161773296
98.9266805369449
98.97681381448
99.1775749218512
99.4139480964355
99.4017839237704
99.3531808998235
99.5323821865199
99.4821479885782
99.592436204691
99.7026066439558
99.7818201819806
99.7960186413965
99.7851068542507
99.8583550787316
100.156194699734
100.252380980692
100.455024807417
100.630852984372
100.755619604055
101.013223952153
101.137067427966
101.123912822591
101.432939237801
101.524848105155
101.733677680912
102.122882361641
102.523637576959
102.339074375609
102.262356097428
102.326602667724
102.233298654354
101.789981304345
101.714021543882
101.700907162769
101.916840074086
101.918436824235
101.786050642229
101.576598755159
101.602471193896
101.583008184041
101.616924074202
101.427757444676
101.43462344188
101.304784405369
101.151157872263
101.038406311908
101.146707885943
101.225060870131
101.373928942712
101.474078066535
101.467157674691
101.454142065125
101.6330853354
101.558698511131
101.739915030069
101.991130265842
101.933459346427
101.562333628921
101.359333667744
101.376487173719
101.694035554386
101.645251348479
101.548998782331
101.441629236047
101.235115258735
100.873591943554
100.819614805369
100.5572370821
100.262298250385
100.260781627677
100.359715900444
100.252232809575
100.171212993324
100.023464116825
100.147201248397
100.131297413419
99.8847154136227
99.5928297074358
99.3752847915542
99.4042548795577
99.5593844254534
99.4327575590576
99.2554379995419
99.2404344605886
99.2140564876549
99.1263400042552
99.1618127263536
99.2713747525791
99.2297270882321
98.9956238626598
98.9619436497754
98.89470590859
98.9196081113205
98.9644337825973
98.9863316306404
98.9897015159385
98.8773009635726
98.7955967815872
98.8209605424584
98.8172663812013
98.828061019487
98.7562282534895
98.7094953968175
98.6113760749317
98.5913019444391
98.6517401413997
98.7118779494811
98.638967541897
98.563664708017
98.5491851737862
98.5348713228147
98.5568353831821
98.6243593694189
98.5805231644065
98.4642710715978
98.3419808381296
98.4115614591367
98.5303411563883
98.5643888953281
98.4712097122787
98.3273936018782
98.2849822147531
98.2913656235556
98.2095270752657
98.2180451965255
98.2853929950333
98.3129455811136
98.3066808624011
98.157652539925
98.0867304853139
98.1242996449854
98.1007416042971
98.0762552886885
98.0684001257377
98.0657658623925
98.0128870047794
97.9401632688249
97.9264206562752
97.8565274447477
97.8598040727054
97.8498691585738
97.8018100243561
97.8043651371267
97.8099305355477
97.7813441632264
97.7022942010921
97.6982476060943
97.7171146940279
97.6581952090517
97.5982653202446
97.5603277973568
97.4689231769951
97.4109781361575
97.4116079795193
97.4387825683831
97.3790261394323
97.2096838646172
97.2035427696734
97.2262608890975
97.1715899165214
97.0387848056951
96.9492410657407
96.9104950787548
96.919582783163
96.853931324068
96.756069584379
96.6125555331373
96.3991271637279
96.3017075075381
96.1514407726057
96.1239010658051
96.0521639082833
95.8442157988105
95.6618709133552
95.5370280242688
95.3333566674625
95.2441139070833
95.0009130403091
94.6479703416382
94.4264219729772
94.2972453580476
94.1387684124833
93.906339074634
93.6854588203228
93.4570763328382
93.2978163889268
93.1123279495581
92.6525751029278
92.4604858768581
92.230346413457
92.0266617078171
91.77615201827
91.4831926542239
91.1592055609986
90.8599185428132
90.3248866254283
89.6829791379694
89.2283060596562
88.8203417361942
88.3966673399998
87.8589226971234
87.2850538914838
86.6750473964381
86.1182277345476
85.5871503076518
84.5667207282163
83.9359213005068
83.1419468878726
82.2861542208912
81.6730411855383
80.8259015552356
79.9546025817022
79.1311182172888
78.0473822846476
77.0023256823317
76.4667538545927
75.6686405068161
74.8336984954446
73.8474080226225
73.0367445971896
72.3275213911398
71.4074091283094
70.6868040361492
70.1075621916792
69.3302833897388
68.4812675296492
67.8574111165242
67.2419560615761
66.4664642433203
65.4928093922286
64.6566966416547
64.9015006723294
64.7092113588182
63.9835122543627
63.642716770385
63.5352285554052
63.2149865489799
62.7899377102201
62.2595792640142
61.7271161309508
61.7896486208844
61.9909425051998
61.7818805668714
61.4809298643781
61.2951653847201
61.1310067403767
61.0256965481734
61.1571575126482
61.0298877307905
60.6236033443828
60.606783569431
60.7573807583899
60.544272878543
60.2197701483303
59.9709264357138
59.7351983595641
59.4936225545104
59.2202047175971
58.9294898380201
58.6293793048673
58.3542156993475
58.1174094987972
57.9813594021438
57.8762199498309
57.7438227898751
57.5659519119467
57.3799306614707
57.1761372945848
56.9859568357157
56.720935862746
56.2257360318278
55.6536785814756
55.6917417950523
55.6313330339212
55.0315298492383
54.5590771611876
54.4547407513434
54.2296138941041
53.9625862385599
53.3621011981927
52.2913313751279
53.033479417462
54.1836454106795
54.3971969931708
54.5383282316791
54.7804061995852
55.2289191844642
55.6673145495875
55.9708856641795
56.3491938074496
56.718359866049
58.5239885016184
60.5602593150997
61.0973228901937
61.378719813104
62.5486621546325
63.5003853945286
63.9066845265668
64.5000774321052
65.2094575888151
65.6304763456515
66.5360408934873
67.588788685858
68.0938369711826
68.8122620093723
69.4793457898109
69.9208717621795
70.0455254811935
69.888589336422
71.3281747064683
73.0465611757991
73.4889243885144
73.4419692918883
73.4641715188002
73.8991693600318
74.6566883522885
74.9750149741264
74.7948786679703
74.9296303160068
75.4301389268731
75.7158734872041
75.7377536172969
75.591630486021
75.4412488422867
75.1769686388582
74.6894320389349
74.1474384544211
73.6565413899492
73.4801203016044
73.0374456572539
72.1903642798788
71.4191020431983
71.0337031725286
70.5636807175453
69.6471881180183
68.8774229679737
69.0414453570633
69.2305891707043
68.9431496910906
68.6374420229707
68.4181014587966
68.442671813618
68.452676183682
68.3432723767226
68.1768000958429
67.8645697009939
67.5436646842135
67.7305139938226
67.7258337069542
67.2710554844485
66.8347119169741
66.4547839135131
65.9026090542269
65.2094727138804
64.5380698703012
63.6625700813747
62.9216188547547
62.5157101039846
61.7885326783843
60.8793562723858
59.9816490881586
59.1611236697082
58.3642626154723
57.6687383394001
57.2317067530129
56.8725552835577
56.5224486084535
56.459969883818
56.4680469325187
56.6389348769835
56.9976395980443
57.0508064840299
56.9590184983424
57.1884091718669
57.6332039129198
57.9410574350371
58.2153893306861
58.5616725620673
58.911518275211
59.2290957742661
59.7840374432028
60.4585289931879
60.8733846274726
61.3051627877235
61.7865242043786
62.1160606359104
62.5652851661785
63.2445667494362
63.7384289621215
64.0510763937664
64.3676417356251
64.7201989221209
65.0263241671275
65.3131826953353
65.6123105718667
65.9163344895105
66.1975666251579
66.3821131146529
66.5384369145018
66.8770931969683
67.2355523867994
67.4504172925874
67.5515593421411
67.6331581293754
67.6982589302499
67.7135327884562
67.7156666348063
67.7009589435995
67.6426678743597
67.5880819834672
67.5916608619472
67.5979080239048
67.588506789134
67.6371017207189
67.710789831838
67.7795619277012
67.8558267954432
67.942259568891
68.0777249920163
68.2962426799259
68.5814344497336
68.9086607207637
69.2428949056296
69.5631579322611
69.8679733940742
70.1670870109862
70.4451324784443
70.7212675184061
70.9494977961283
71.1228473084115
71.2906215655744
71.4556394635268
71.6028434050413
71.7388480596464
71.8445454084561
71.9422763579473
72.0602297453986
72.1852496163683
72.293379091544
72.3704818194994
72.4122074687538
72.448964336307
72.4928760226498
72.5236990613697
72.5482757516325
72.5584617292552
72.5329958794208
72.4923029379332
72.4535930838281
72.4269430470015
72.3860525871058
72.3407764860037
72.3144760822886
72.2938352244876
72.2558069975239
72.2405402429541
72.2720463790343
72.3184901946086
72.3667743319681
72.4508776925536
72.5589009787222
72.679094839222
72.7970328370285
72.9216294575815
73.0571561381724
73.2217230838131
73.394418140356
73.5669557525814
73.7611489508156
73.9819317333291
74.2105079054388
74.4551330481788
74.7094435677804
74.9806247505335
75.2643414498455
75.5509725839392
75.8464971310608
76.1434377338966
76.4098365927496
76.6581516297086
76.8870656402564
77.0479030099734
77.148921248573
77.2062723763563
77.1917731939026
77.1182071506674
76.9891462409645
76.8071856218292
76.6127456788276
76.4197303854047
76.2053065156533
75.9810118004318
75.7579845732602
75.5241747975686
75.2628256320855
74.9730957918686
74.6618131299992
74.361323410049
74.0372026737936
73.69974990361
73.3737352561677
73.0343708309033
72.6670357478353
72.3085630365216
71.928148186395
71.4798964338374
70.948476294339
70.3625392395357
69.7162299187973
69.014751076445
68.2890238735342
67.5499330224279
66.7618403947151
65.946972338157
65.1147003535723
64.2870070443768
63.4829287472829
62.7629590965499
62.1506729877286
61.6773735458578
61.3110049474239
61.0066294661481
60.7293113414393
60.428454819173
60.0855857711332
59.7204600616068
59.3459950077263
58.9810241142821
58.5937841820052
58.2095626061083
57.8733497540401
57.5479673860288
57.227627838459
56.9652477176757
56.7204529338282
56.4812715132048
56.2448388761316
55.9906227068821
55.6752081129348
55.3242150207811
54.9396811092048
54.5019545111131
54.0055234581787
53.4748577876185
52.8918288721243
52.2912820556524
51.6645989748128
51.0147064847281
50.3453705559617
49.6926053582193
49.046453882243
48.4455634816901
47.915926068196
47.4202699095207
46.906098213689
46.4243824092398
46.0158354875571
45.6677410559828
45.4145120330848
45.2928965576235
45.2671069053273
45.4020222935926
45.6620915737823
46.0020682996945
46.4587747776643
47.028670042654
47.6599647385964
48.3881406162869
49.2263166799569
50.145313899618
51.1060736963334
52.10613952046
53.1295334121129
54.142618844632
55.081515259214
55.9268549638185
56.6300532638012
57.2076816844568
57.6783373632761
58.055421069095
58.3461026443987
58.6112946457222
58.8674112245747
59.1326139050169
59.4495694814256
59.8290819178989
60.1511719894022
60.4027013744552
60.6424095999202
60.8320785305593
60.9565652748971
61.0955565791278
61.2632996140014
61.4400900960714
61.6781848276926
62.0346784116895
62.4854825038853
63.0428649992622
63.6696154088429
64.3013746496961
64.8823551926659
65.4429717207701
66.0600079868536
66.6837623608543
67.2579330085581
67.7879715536687
68.2912964107493
68.7954931815748
69.2288207329065
69.6019980993462
69.9554621090093
70.2988066517753
70.5768529884069
70.7523926233865
70.8186716157005
70.7518461367215
70.5828610118842
70.3815658021224
70.1495059722677
69.9368205532958
69.7935896523514
69.7195017272383
69.7071438560351
69.7829448587012
69.9071925895775
70.0799075505909
70.2666775828754
70.4998057303046
70.7535375000188
71.0775031873682
71.4949239488949
71.9302545566862
72.3362911300706
72.7181144558717
73.0244193925811
73.2694390868604
73.4981865027708
73.74643859054
73.9369983657921
74.0822003501874
74.1993240400944
74.28047773047
74.3319818910772
74.3761443829152
74.3990267004888
74.3099586537638
74.1257383079378
73.935903809187
73.669042473191
73.3441995821978
73.0134552206136
72.6973385617376
72.3704064275293
72.0782239102399
71.8160137432147
71.6229544294721
71.4377080856867
71.2423687173348
71.0673186376756
70.9176214798016
70.7447228797985
70.5717942983815
70.4246417292106
70.3138125911886
70.1848677032565
70.0225393944597
69.8892152487718
69.8580917640613
69.872036112568
69.9077639241878
69.9868527971368
70.0246850051327
69.951032470332
69.9038327855086
69.8206059203487
69.6851265834939
69.530638124166
69.3193577905698
69.0303816806382
68.7204671124922
68.4115984114689
68.1326275935024
67.9172422576655
67.7779166429373
67.6480149062028
67.5229916889205
67.3936653847847
67.330295551511
67.2693774311651
67.1486316769882
66.9742547197981
66.7689466851159
66.5596317436619
66.3407860953259
66.0852566259127
65.8430473542775
65.6004955461763
65.4332654880402
65.2719463322889
65.0626586589158
64.8602980181469
64.685899903161
64.5063438588662
64.3532316815735
64.1561390871778
63.9685045554373
63.7916327192344
63.6130478073493
63.3778033334926
63.1819031622388
63.0141371487292
62.8337971999179
62.596811931292
62.3705005224047
62.1710172312989
62.0054167584949
61.7999467113325
61.5895218990188
61.405384450333
61.1814184929725
60.9098961507868
60.7060399236387
60.4716598608465
60.1944874118558
59.894162428855
59.6165076432045
59.3052515074006
58.988573661992
58.7353163708003
58.5250637979465
58.248850456274
58.0551900063354
57.8664282537132
57.6761319251047
57.4956035495783
57.2903576283254
57.0327018799944
56.7766772274582
56.518145858376
56.3103011410309
56.0630423502377
55.8696134281212
55.7075630387042
55.5737153361336
55.4480009091962
55.3619330168986
55.1853852030928
54.9766655549632
54.7703754122492
54.5191866057719
54.2306515096259
54.0003249529011
53.7100772404473
53.4147745834973
53.1069590604154
52.9054225138231
52.6975260256846
52.4571154773544
52.1524137346665
52.4655654095992
52.5901354655001
52.2487352511561
52.0556120542088
52.0064956388601
51.9145776297356
51.8248232724776
51.6951734760981
51.5380895789724
51.416220562699
