1798
3999.43349933624
650.420452594757
1
128
4
99.5889862047508
99.6085736364283
99.5565632860112
99.5180015966348
99.5466108696887
99.6321819463818
99.5696907021903
99.5752255871383
99.5772310040555
99.6509832484498
99.6349230808522
99.6423631004297
99.6993380116108
99.6986651023372
99.6557972849357
99.6649574266518
99.6647254842318
99.6248807897141
99.5491481912925
99.6337214534448
99.6458702256391
99.5823209563885
99.6001574544898
99.717333800987
99.7482754479897
99.719606186561
99.7146859984148
99.684763378869
99.5832245752729
99.5977178989293
99.605609754149
99.5887833218283
99.4970896127001
99.6169531540281
99.743169954371
99.7231865926768
99.6903358963139
99.7783135135994
99.7418979436755
99.6055574211788
99.579622854216
99.6242641927818
99.6761305596903
99.7936671393333
99.6728059041641
99.6435587540118
99.6396130755868
99.6587940853138
99.7933986436686
99.9754252683857
99.9939348272616
99.9003308235136
99.7256619562984
99.6326795841424
99.5588091226064
99.6974126561731
99.76465165494
99.7722780826172
99.7274802522169
99.7770026014739
99.8022103630122
99.7943912333161
99.7155648525302
99.7214759875532
99.7205620938059
99.7272865898656
99.7889124077644
99.9322110112421
99.8154515852688
99.7734877419399
99.7398745333057
99.7719060727282
99.8551279996792
99.8192576687639
99.7679524029246
99.9007168020443
100.051178623492
100.112092190366
99.8707220653632
99.6821551205745
99.5522459224362
99.676677237265
99.8801335629814
99.8693302250882
99.7864861437654
99.8648424994364
99.8249281791546
99.734671865801
99.7302216843623
99.740799756805
99.5838540460833
99.5875705470359
99.722484184168
99.8483695860425
99.8745424237721
99.8067200183806
99.6786368178286
99.6863179781842
99.6018117116172
99.5474884392635
99.5516612092
99.6926736213764
99.8127015707041
99.823883936145
99.7724104675263
99.795580149934
99.6636310435603
99.6072108191048
99.5199403443115
99.3902931939704
99.3365919666
99.4577174472215
99.6516199295242
99.7506940544803
99.6860896358547
99.7074982068825
99.6254965818428
99.5719573503644
99.589261624529
99.6663174635187
99.6964172819164
99.7353857613461
99.7697308953433
99.7376699433039
99.5861863146224
99.4908168843953
99.6106053592862
99.815833793863
99.7622837085507
99.6048314128172
99.5500036996227
99.8570812728732
100.093476356523
99.9555054405746
99.7101619495488
99.6639876937588
99.580131363234
99.4631141270221
99.434392211126
99.5214067767433
99.6922540291457
99.7309153347388
99.4629958041448
99.3932022577867
99.3190495293682
99.3121794740592
99.3166312430433
99.3540104666143
99.2910326310321
99.3643368695992
99.3314039568131
99.3816968469423
99.5512532159268
99.5538016568523
99.3191549627706
99.2452495005935
99.1937528508978
99.1922396321057
99.2228955293532
99.3211936043266
99.2184649957683
99.1632584368439
99.1066244589141
99.1295020855665
99.309197270625
99.3219380711807
99.1405380706918
99.0802914087093
98.8877523192753
98.7553755291656
98.8189821380461
99.0496745636431
99.0779588585703
98.9254543240041
98.5683310816268
98.4940920600604
98.3719174957214
98.0721806997133
97.876726110977
97.9018812511649
97.9214427269532
98.0167749848937
98.0354546337866
97.9465111105464
97.8152260664062
97.7976617464684
97.6209165497469
97.3289811424611
96.9418324472977
96.5310819680746
96.3605283811249
96.3835650106545
96.3050425751669
96.2126184000366
96.0926466917854
96.0373936912037
95.9470512977844
95.8108781116546
95.5507252361337
95.2014074630725
94.8307999275558
94.7541196629712
94.6187423005708
94.3602072942646
93.9713772859933
93.7739821496299
93.695384482612
93.5404029964285
93.2631825484251
93.1262511174659
92.7535015773623
92.4439248475545
92.2473862223479
92.0795982757998
91.7275245704959
91.4618926213744
91.187354884499
90.8828051867121
90.6566524625064
90.5085294437157
90.1563302962637
89.7635660327512
89.3317267380097
89.0804162442494
88.7959013041004
88.4500703777071
88.097711534969
87.8470712840873
87.6138141146052
87.527711555141
87.200168735406
86.7928422577633
86.3591052586018
85.9928798722091
85.5634640725369
85.2250556062044
84.9605530937672
84.7440165866058
84.3064248266103
84.0074664679699
83.6265208598863
83.3498432614007
82.9350357458218
82.4263026545979
82.115094503037
81.8920536788174
81.5942950638092
81.2415144246644
80.7301942016928
80.4204371798172
80.08909223077
79.8057243374867
79.4034943420827
79.0347048546732
78.5511789141332
78.266784533236
77.9350771799745
77.5930573437669
77.146581852375
76.7237297774127
76.3023123309139
76.0598678208766
75.7168153233427
75.3186244136295
74.9004416902562
74.5528551889729
74.1174474953924
73.7853879060335
73.4774169979216
73.1084247831787
72.6923209621657
72.4860023676057
72.188188853646
71.7928488336147
71.3374395736961
71.0700991011398
70.6622228519165
70.2795419620284
69.7789433092201
69.4427792137222
69.157338138109
68.8665513780685
68.4628450357469
68.1572862311485
67.7288563542239
67.3656131400197
67.0147672179018
66.8081854846005
66.5374104859054
66.178667523932
65.7752351780772
65.558234454588
65.2310515006016
64.8714872853088
64.4497937577604
64.0968332885924
63.6540019785945
63.4223731905077
63.1714958109428
62.9953533382677
62.6246873058015
62.2102945881611
61.7993359324592
61.5820343638857
61.3028806818508
61.067972343011
60.7609551210062
60.494448184979
60.2439765307426
60.0400985288389
59.667625584748
59.3871550448948
59.0136962767793
58.7733325090558
58.4662029773697
58.222068152824
57.8902420706662
57.6294902675848
57.3942318997669
57.1346996044578
56.748366737732
56.4897617274286
56.1874116303282
56.0619986697009
55.8649861008896
55.63569619852
55.3066969259348
55.1737730138829
54.9880716159785
54.8013934077082
54.6134812061143
54.4305613377891
54.1439686535296
53.903307442594
53.6023597195497
53.4349465620495
53.1246910285112
52.8793232102213
52.6007214010892
52.481633477275
52.3323420418716
52.2440811868567
52.0637315132886
51.9424323447763
51.7616379939665
51.6855423379361
51.4646884155698
51.2394290784735
51.0896269001431
51.0252563312016
50.8994939470075
50.724417646775
50.4810977250938
50.3736363690017
50.1556413634704
50.0796240505503
49.9792414687442
49.926292596459
49.805292958652
49.7519947164874
49.5431846610772
49.3970119373135
49.3569084117662
49.3490199521793
49.142976906752
49.1213233748127
49.0137477213346
48.8672165188164
48.7264516359918
48.6919559698934
48.5133565656434
48.3955053624575
48.3026575613578
48.3338756203147
48.2807106264596
48.2618802069801
48.1279174916869
48.0706158136025
47.9610841327312
47.9171666587163
47.8112909006614
47.7322571539005
47.7415384120938
47.9037669641956
47.7741938033912
47.6427488256921
47.5273774543981
47.4866342510046
47.3730482465966
47.4558512786707
47.4826416195976
47.4681126439354
47.3187339045346
47.3083666256399
47.3520312035868
47.3768940487538
47.3057443085329
47.3200041589977
47.2113381156634
47.2968622872881
47.3612931564233
47.3835619080684
47.2922660774979
47.3607992327956
47.3817001476201
47.3963563213976
47.380151829551
47.4996321512699
47.4834097989075
47.5357229311588
47.4709807442223
47.5284031734326
47.5732212518613
47.6587992249525
47.7027272663168
47.8436811030725
47.8335013173689
47.8485062490421
47.9340204553542
48.1037435812725
48.1191807456933
48.2677087714029
48.3138136558833
48.4013439681233
48.3977843551601
48.5006569128103
48.6514914801672
48.9021331197172
48.9571764260812
48.9825941761573
49.0193671926524
49.191540257864
49.333464524363
49.5806957403
49.656851428732
49.8139487176651
50.0093149889168
50.1813168534112
50.2508123605705
50.4544244094475
50.577122473589
50.778077091366
50.8768397604719
51.0670981660884
51.2172524619847
51.3592320093969
51.47996312989
51.7008994529679
51.8342546484425
52.0577224756555
52.3117260008553
52.5942956517615
52.7034113924532
52.8905541921619
53.1155001205967
53.3813377676282
53.4948257750302
53.6996268975264
53.8710909055364
54.0853270194465
54.2808243123195
54.5991429415049
54.8373263296404
55.0275069499291
55.1951551709442
55.4295601980497
55.6546542077768
55.9497758928607
56.1375627730773
56.3984258843133
56.6228429952541
56.8563484200148
57.0768256858867
57.3478871872082
57.5843067906716
57.842329756136
58.0538153220629
58.3400787385364
58.5592668251049
58.7811276585561
59.0302197833318
59.3273917256062
59.5019652124322
59.8113753399663
60.0917060257696
60.3412864483984
60.4735958747536
60.7726810875606
61.0807296378198
61.3677713517907
61.627857235054
61.8667974618663
62.0349425107828
62.2838425308885
62.5521670673434
62.832540922015
63.069996704532
63.3456129598027
63.5708966492856
63.8258671251978
64.04579148553
64.3405620551085
64.6200930151233
64.9353810589577
65.1817194762335
65.3972271275087
65.623972685308
65.9237654383533
66.1619259285492
66.4523439836069
66.6391841869614
66.9359679727349
67.1730504026141
67.4557396074295
67.6846584705166
67.9495829565543
68.2261019708166
68.5031436604506
68.6679751889538
68.8789202327497
69.1256175193515
69.408534841925
69.6796864869839
69.9867954600356
70.1952286571483
70.4257473849057
70.6111753621101
70.7976920776421
70.9625778571251
71.1921565077205
71.4106513419732
71.6704246878042
71.8990229446799
72.0956872866566
72.188643316836
72.3163632457938
72.4625165956437
72.6184550839445
72.7052950567469
72.7807973515583
72.8640082634975
73.0128601791928
73.0046309473176
72.9845117645884
73.0258429733238
73.0501108912521
72.968482011846
72.9209831349932
72.8735256199139
72.8441694094939
72.7785039210342
72.7145890193998
72.5501494840071
72.4215225327277
72.3416322041911
72.1940721387859
72.0099986068302
71.8928247066066
71.7424280273843
71.559228199628
71.2594724565688
71.0345298850255
70.7962559659449
70.532285540097
70.2145447873213
70.0259065994534
69.7969806924266
69.5243363602446
69.2253806974419
69.0466184655788
68.9148037896527
68.8059931079179
68.7661305694941
68.7767617608556
68.7642468934557
68.8745142851774
68.9901512799949
69.1087937864569
69.2275516701157
69.4327168843252
69.5880443482018
69.7649482544547
69.9246968282705
70.1329684543488
70.2576944368315
70.3594506946226
70.4202106582634
70.5210410953197
70.5965916957054
70.7024198119999
70.7381050410725
70.723192307847
70.7133639082419
70.7489978791224
70.7511371432448
70.8089464268034
70.7751591596559
70.7707159207507
70.8169503271156
70.8866039149832
70.9206974064099
70.9791195145154
71.0945313813621
71.3226565325975
71.5420275796654
71.7828967033642
71.9598099974775
72.1373692525484
72.3233692028574
72.508101261608
72.6394141816146
72.8765145363163
73.0966121793908
73.2552833182006
73.4367217332456
73.6187102912157
73.7739935478595
73.9797263673117
74.1727012364657
74.3529032535534
74.518036457539
74.753871730743
75.0280586208843
75.2619492020767
75.4099377571324
75.6136758750701
75.7618191033598
75.9251376342661
76.0740897010452
76.2451108219549
76.4145788355039
76.6309972718877
76.7732983142304
76.9178810762811
77.096737422115
77.2856673561403
77.400572570322
77.5486185524464
77.7393947893067
77.9633749399801
78.1054674594001
78.2473549488311
78.3688541103748
78.507429115831
78.6833534681945
78.8770891308491
78.9913753910041
79.1019672334538
79.2347467994353
79.4352357820604
79.5764247170839
79.6754441950512
79.7739878208098
79.920358302173
80.0195603383463
80.0852444782527
80.1823856226145
80.3528855915725
80.4961807648455
80.5872901612832
80.6205237805542
80.6991427342904
80.7727566449746
80.8488543674681
80.963276412502
81.0534381145765
81.0989664443247
81.1857628826447
81.2446577710502
81.3295713747195
81.4196963633767
81.5531340293598
81.6488918635591
81.6631979676313
81.6593711818909
81.6861262090224
81.787328602272
81.8941781882558
81.9392879604977
81.9732321537752
81.9773095499331
82.0494459281815
82.1505560791676
82.2277194812669
82.2918602685319
82.39964422825
82.4715703611704
82.5252780944483
82.5517942802336
82.5717693697842
82.6149692918067
82.6815941390259
82.7754978887579
82.9042677117706
82.9654211851035
83.0138579589482
83.0425931839184
83.0796497603284
83.1586928350016
83.2634410825456
83.3328649890146
83.4155168475718
83.4577221614168
83.5170365979897
83.608297406221
83.7022458090919
83.7675792683634
83.8467969640692
83.8850489590985
83.9915946192941
84.1164381378048
84.2330168434616
84.3327901098815
84.3756174590666
84.4450077114107
84.5967468332747
84.6726912118017
84.7161677353711
84.7847542300584
84.9074334480484
85.01378781119
85.0871748479825
85.1620482780655
85.2503472017953
85.3679995846087
85.4874779305467
85.6252591033062
85.7583446313718
85.8701687610661
86.0154704857061
86.114950015001
86.2485598409027
86.4302857321762
86.5671501260086
86.6736791194917
86.7832329300252
86.8616074776083
86.9886562640666
87.1154631972026
87.2304759061874
87.3563952626576
87.4951960741754
87.6298210600878
87.7366327262971
87.8779024149777
87.9811295335866
88.0803557878955
88.2971341201932
88.4189655919034
88.4048236303341
88.4672819864306
88.6514584275872
88.7636967331766
88.756873240204
88.888644722784
89.1032241937967
89.1972527512996
89.3091215413094
89.3648521120454
89.3733694388441
89.4955944769866
89.6937749048315
89.7810023305229
89.874724124497
89.9292872513814
90.0074369170617
90.1222948972344
90.2079241027798
90.2876382110993
90.337437318983
90.3623120203117
90.4119645637344
90.5100401690986
90.5780873430572
90.6277264413036
90.7310904239529
90.8515788040168
90.8062953949955
90.8100214364293
91.0110564831109
91.0918292746163
91.0684308289912
91.1560331309855
91.2247864299813
91.3183393044902
91.4070982813793
91.462366718638
91.4912578922939
91.5777978158388
91.6542437051956
91.6983119071251
91.7410509114369
91.7319068468868
91.794619695772
91.9432295787937
92.0409822182195
92.028546813747
92.0278079295049
92.0994567840419
92.1293055727229
92.1834350761355
92.2688805770875
92.2926397614279
92.3774622167613
92.4519389199093
92.4734695726875
92.5366100059869
92.6117776620622
92.6405820040033
92.649721158587
92.6869730000768
92.8214292997378
92.8970757592042
92.8978276314201
92.8814053685967
92.9315563055012
93.0941263521571
93.1852940311893
93.1584570911473
93.1991465025041
93.3300454310368
93.4627719328181
93.5149402859386
93.4778717793439
93.4749545236312
93.6661465506072
93.7740239796203
93.7649638432905
93.8264215695393
93.8672207492135
93.9018894427496
93.9510115906281
94.0209054326502
94.1263011553729
94.2516567427526
94.2591962494898
94.2791730159286
94.280368392198
94.2628740516681
94.3271872589499
94.4198196693751
94.4902108761954
94.5652373618626
94.591205907874
94.6442562826914
94.7043804775738
94.8137739724706
94.8052836927614
94.7347829330178
94.7850425725181
94.8439113768384
94.91114003899
94.9644303874005
94.9832396645484
95.0521500358929
95.081166307718
95.0714266945414
95.0789052544537
95.1675359106311
95.2492501058025
95.2287878431885
95.1459816747708
95.1574788961383
95.2346240770157
95.2376955204316
95.205355922349
95.2358482815878
95.3139520925445
95.4053141248941
95.4391476857916
95.473154111547
95.5284613945473
95.6030086968837
95.6401023896459
95.6886519889086
95.6946879144881
95.7490831869536
95.7852469970445
95.8537802995476
95.9513816039225
95.9528990174571
95.9029338788979
95.8608925956789
95.7508629232201
95.6797542787056
95.6768292679038
95.6715205317694
95.6030891250317
95.5220480162864
95.3436174722519
95.1347196355539
95.0380300711745
95.0962259892154
95.3362815578743
95.5250472124148
95.6045395138234
95.7460313561061
95.7926947854808
95.7802164992565
95.7578353906993
95.7807030366973
95.8753033787675
95.9767578051932
96.0506817013814
96.1749034924498
96.1879839909444
96.1698428425213
96.178152956955
96.1721844397241
96.1817787047198
96.2224444222506
96.2640656342184
96.363571102642
96.4022414651212
96.3509232199538
96.3852459194542
96.56253080439
96.6519973775751
96.6639892632004
96.6199552990117
96.7200078876194
96.8945586737635
96.9129257918069
96.8481297753979
96.9885411841126
97.3327795128119
97.6065985015489
97.5660964643538
97.4715264030961
97.4679593361067
97.6107743935544
97.8174167527716
97.9707903831662
98.1232436162374
98.1033380024458
98.0737822472604
98.1788384433847
98.2274185508891
98.2583013828032
98.2407723461066
98.4393442281417
98.5799889989282
98.6534396594163
98.7775491026798
98.7996250395354
98.7719134208269
98.7043138722597
98.7616646369177
98.990190647807
99.1870401482914
99.1043294070786
98.9515044099842
99.2939316549914
99.6041395283368
99.6173581071761
99.6672069963056
99.6792311020511
99.7305276316483
99.7443206284165
99.6829172771592
99.8708295443505
100.03707022437
100.104951846609
100.078412463578
99.9654004968368
100.083217272531
100.762510936614
100.849297172329
100.572496413804
100.559044592587
100.603942151851
101.017225968951
101.281190639716
100.994147593383
101.040852331817
101.097589747999
101.343155398622
101.388166430445
101.603905902534
101.97557346692
102.152141075539
102.397550676935
102.606367606141
102.575828883919
102.610657947985
102.906350935411
103.174260965053
103.227739628658
103.485056084488
103.016273792646
102.249982774376
101.639807516742
101.488816210914
101.337582676802
101.200923955175
100.991276784334
100.584857345744
100.097863047881
99.9230935412185
99.768949215515
99.5176744718504
99.3142084448829
99.2349630476962
99.0306666620851
98.9805462511199
98.8757825346911
98.8412728283805
98.8676500531402
98.7934248955465
98.7459290582841
98.7116256214635
98.6459648787014
98.6705035408724
98.7154083397568
98.8376342574394
98.9225698341208
98.9291205937799
98.8660081411445
98.883524858646
98.79588790188
98.9428680906554
99.0969735235513
99.1696240306917
99.2084406729132
99.1393693197358
98.9579580089998
98.9345790350457
98.814386293894
98.9426635952107
99.315562010536
99.5254352318343
99.4833136375544
99.5095851401493
99.633101133434
99.6888606635787
99.8794600985912
100.034776865637
99.9177078515483
99.9637080519868
100.111343329519
100.442470304674
100.349218480189
100.494677731346
100.794799205259
100.886780221111
101.275350629577
101.923052751549
102.19168246907
102.313314678625
102.341773405906
102.517054301334
102.726438091475
102.991296164569
102.827134063227
102.998859742093
103.467685116991
103.62989285107
103.614851273187
103.801466086045
103.369715834396
102.960430632561
103.12176813577
103.400633972477
103.192599581805
103.22783955645
103.20117796113
102.742005229624
102.198352431874
102.342016196582
102.642330656127
102.650946337325
102.169566154814
101.576023187099
101.509844736752
101.889739478503
101.934425587667
102.092716923151
102.104276685949
101.932413331879
101.851944400076
101.986640118182
102.110425367364
102.566715489835
102.811362937123
103.071474735807
103.217736389574
103.163892203146
102.896720253357
102.760172147962
102.46058655916
101.906483735265
101.701977402095
101.675702032419
101.290336227643
101.080776446147
100.962068716453
100.790554532395
100.606430259067
100.526490761283
100.200013098701
100.316930097032
100.482857298652
100.425046406464
100.277443055748
100.068091225737
99.8811179009353
99.8029687753681
99.6433074175394
99.5088546459826
99.449727852936
99.4593824682488
99.4538364616111
99.3662767579373
99.2927851656406
99.2671759853006
99.1868209358119
99.2085954133359
99.0710591339163
98.8977652953987
98.7588006337715
98.7509157669143
98.7311364164632
98.623324701942
98.5835518989784
98.8015903530819
98.687533409868
98.4972669487467
98.5402000159794
98.5413257070589
98.417184736304
98.3920874429435
98.4123480682067
98.4223444978992
98.2389633394078
98.1738400688269
98.1684455552502
98.1223872399085
98.0567248889719
98.0514755166697
98.119649332926
98.1655618501535
98.1568471503517
98.1707196175354
98.0681569537378
98.0146248842891
97.9462248252064
97.8433266581143
97.7647750299662
97.8608946986221
97.8980053752894
97.8683077912148
97.8386759193255
97.78900433353
97.7367881549095
97.8056861056904
97.8683679406112
97.8558616669723
97.6638243600741
97.605385178122
97.5478664383153
97.5026193058677
97.5084113709055
97.5476884537893
97.6151447615844
97.6452117371965
97.4746536119368
97.380798485563
97.384547144258
97.3859786565697
97.3095084689815
97.3214085878713
97.3294134492129
97.2951839403376
97.2210474025377
97.115640702956
97.0344933359478
97.0485869665423
97.0252535234346
97.0083256332439
96.9779103343033
96.9545668752355
96.8835059658303
96.824938931405
96.7589268835507
96.6945754780305
96.5428880682507
96.4674084052596
96.3861919968593
96.3498486420085
96.2647970186194
96.1406445969195
96.0871888660336
96.1110919298186
96.0383138646746
95.9643049337871
95.8488215768257
95.7848128751133
95.6700799731741
95.5589362638774
95.4875083218204
95.4781411837796
95.4332541370192
95.3195862805926
95.1635201972207
95.1196305422317
95.0471492381386
94.9142764891105
94.7009418828341
94.5395711742273
94.3272935506541
94.0550191778101
93.7579107648749
93.5085482239294
93.2324586614842
93.0160215854768
92.6758578025808
92.2625033542619
91.9706901194932
91.789301617219
91.6169661402509
91.4868132262093
91.3597197391867
91.3410954652443
91.2415143960706
91.1003098137551
91.038527003926
90.9904915290923
90.8383124271884
90.6930164319554
90.5134322566093
90.326839501784
90.073176300814
89.9068626618583
89.5714685914877
89.1041383002811
88.6766401885979
88.1115245140532
87.5766860427964
87.078593444914
86.3802995202651
85.711847209156
85.0717907195698
84.20648347161
83.2411791144552
82.5237436715017
81.7128933690858
80.9332614590465
80.0122231332178
79.214539766284
78.3786332933793
77.4796714590374
76.7472366697204
76.1002922541251
75.2668609669149
74.4353218149383
73.7590140028283
73.1313289095654
72.376835436983
71.416751264018
70.4028446030848
70.182723663905
69.5366660700688
68.4922935291349
67.6606647442468
67.037415288112
66.1654602353835
65.2287628182177
64.2241788804123
63.1675022691068
62.4845360695231
61.907448878717
60.9837158322304
59.9849222198988
59.051808697859
58.2302231725871
57.3636616060262
56.6976767192406
55.8886486626624
54.9366662017636
54.2959895241842
53.9048459105342
53.2191562158669
52.5968641794416
52.0748910106167
51.6967031517001
51.2956437374462
50.9931551862773
50.7772853699441
50.6516275417538
50.5197305916013
50.5071150228415
50.5614604115806
50.6889267623596
50.787665151048
50.9748646215941
51.1534737464501
51.4182220795626
51.7311768572371
52.0518837929829
52.0453757004162
52.196035196281
53.422107015188
54.155325007751
54.1380525292167
54.7799479909214
55.8659642863735
56.5649801237353
57.2708717270124
57.3084408131692
56.6840553468457
59.4150658955933
61.6947387928028
62.5928163877408
63.4556339875432
64.1640120172366
65.2276315484272
66.0036958867629
66.5658032673
67.2819647390939
67.8636241716619
69.6392807645271
71.4620307014318
71.8027326642843
71.9775856732614
72.926103477484
73.5289549937634
73.723457480367
74.0453451106694
74.4771926069151
74.5392241461228
74.9754522924861
75.4830395191287
75.5830595227722
75.944683703042
76.1923356881618
76.3931441418809
76.4328364094029
76.2677366315323
77.2370976244836
78.1296968214214
78.1543061421553
77.9703112387154
77.8557856123072
77.9754900431692
78.2049626962304
78.0791814837771
77.6555929857563
77.5229318952147
77.5312064739936
77.3841267589134
76.9981724235874
76.4953245857426
76.0206101153658
75.4361222778533
74.7086683997604
73.9450253773467
73.1724317295869
72.6425243326988
71.8939869240343
70.9271000204411
69.9568282227351
69.3097864553571
68.562642938982
67.5518707503804
66.584999498737
66.3897748741248
66.0165949238564
65.3822038651218
64.7194927112274
64.163982931103
63.8113569404977
63.3814579250683
62.7984604150804
62.1685625686269
61.3684256456691
60.5105668188645
60.0564180348678
59.4555105985496
58.5402152601484
57.6967078886227
57.0040483280519
56.1927593391395
55.3750516768817
54.6748287283111
53.8315640523201
53.2985226522854
53.0267357564489
52.5353090959817
51.9944437061252
51.5883797961546
51.3345066775796
51.1054832691927
50.9739017180103
51.0625940157305
51.0218800305288
50.9369015137614
51.0977183349804
51.188179665509
51.5204202019166
51.9179331450524
52.0151852749656
52.0755745974658
52.5505019579408
53.115743856617
53.4225439962365
53.6982701841861
53.9999950881652
54.2459594373951
54.3929563862702
54.7935120493008
55.2446088439916
55.4218554656986
55.6331105200059
55.8810176087234
55.9815615189975
56.3167989042899
56.8569697591634
57.1801466253645
57.3570007375472
57.541644631009
57.7580407296202
57.9272232642277
58.0743367390624
58.211160628639
58.3451561660278
58.5024616876248
58.6239311011878
58.8419076442343
59.3151723306627
59.7709096799568
60.1432972985156
60.4531720089432
60.7497305743821
61.0674507043642
61.3590696021629
61.5828198397846
61.7807042852384
61.974074738899
62.1513561132015
62.3711538194761
62.5656141870684
62.722401503165
62.9275364241606
63.1038060914957
63.2645041656879
63.4260997435026
63.5712307572829
63.7295780296007
63.8950421491945
64.0600510274239
64.2223424648767
64.3793735782008
64.5272454235696
64.6459518398418
64.7231963975268
64.7977070994094
64.8703373001647
64.8862285787174
64.9153134300312
64.959330110164
64.9732798408706
64.9700197434859
64.92629055376
64.8384734084382
64.7236048853133
64.566260616804
64.3890939457863
64.1935694623102
63.9962517276475
63.8291189824168
63.7369360640983
63.7003233373972
63.700660913981
63.7114195299565
63.7299872371824
63.7641649124942
63.8120093138575
63.8328086424523
63.8131765830277
63.7838130171539
63.7305586395217
63.6661643763098
63.5961052999785
63.5059548733453
63.4127686152669
63.3561474715817
63.3246775685455
63.2995999085834
63.3127529236169
63.3860565458197
63.5125741552644
63.6628072973054
63.8586465618504
64.0728111655569
64.2864174122187
64.5115033626198
64.7112422842649
64.886349729726
65.0346198380348
65.1009903052241
65.1270294509017
65.1161596695994
65.065970410457
64.9967229827878
64.8839182198395
64.7155136674529
64.5338011355653
64.3520466179704
64.1172202943822
63.8610298535707
63.6397669247631
63.4679569880186
63.330751052259
63.2143356089604
63.1081489540635
62.9841729135188
62.8296705196012
62.6133948417109
62.3209115260572
61.9412014716379
61.4482189517962
60.8151660052311
60.0862453758158
59.2891990301882
58.4688677540442
57.6495374226597
56.8642609606485
56.15154069652
55.5393206827317
55.0338108472269
54.6289041093101
54.3068497762115
54.0673894691882
53.8968061172685
53.7506730516446
53.5868070361316
53.3886231979697
53.1600031473244
52.9037538679302
52.6015011587253
52.2823923903654
51.9580197129623
51.6296032968378
51.2707457607378
50.8444477598798
50.3653420984636
49.8216741555544
49.156996220661
48.3523862634117
47.417169893192
46.3775340512877
45.2459742618641
44.0822811045181
42.9826814089411
42.0141594260169
41.2169838633504
40.6349221208909
40.2348181247081
39.9039738693656
39.5399656361579
39.0250041595533
38.2715527109773
37.3091951631362
36.187352885464
34.9732459423234
33.7352341586426
32.5594782847239
31.5094220289086
30.6303956481442
29.9080706697226
29.3134396042267
28.7766951533812
28.2164626526431
27.5680671310428
26.8306348816344
26.0208997099452
25.2149606435906
24.396773916527
23.6181015769745
22.9059594547928
22.271368924183
21.7660920178922
21.4079658766282
21.1269598974711
20.9483840310619
20.8706875362884
20.802775587688
20.7225984728456
20.6454180427982
20.4906993455703
20.2640901509606
20.0054394949585
19.7810245209862
19.5863472598583
19.4878108313455
19.5298646598155
19.7439079173205
20.0806455489942
20.5146337650802
20.9747008918779
21.4267649422115
21.8667942302368
22.3158443824344
22.8106216945625
23.4335704779573
24.1918597832642
25.1064954101944
26.1840542051556
27.424160325662
28.7398635530982
29.999545042542
31.1223556902012
32.1098665502244
32.8943494508344
33.5118614776044
34.0441592747286
34.4999032823352
34.8142979346585
35.0081575856325
35.074733435675
35.0530390380385
35.1253612047047
35.4891437772735
36.1507974248586
37.05343690462
37.9779938907696
38.7471778650158
39.2948819191507
39.7810815859091
40.4006195587566
41.2707606793444
42.3796989996213
43.730456907391
45.1354945431486
46.4062938499653
47.5527995423679
48.5918742609094
49.4865221215217
50.277594542819
50.9395822867381
51.486415079243
51.916982961557
52.2712897220576
52.5536221580955
52.771928613457
52.9549527537991
53.0722067926356
53.0590823952486
52.9731730794199
52.8236608399452
52.6321312015813
52.4510288121015
52.3869072938665
52.4701482028521
52.7331306075052
53.1589185530566
53.7402962888451
54.3612141526434
54.9673584597751
55.4852459721677
55.894938121877
56.1945659445244
56.4226945162734
56.5768690709787
56.7200157873842
56.8869319822635
57.0840782027955
57.2812611686612
57.5094805702756
57.7690602250567
58.0176084133019
58.1800884348686
58.2589997007542
58.1900685470878
57.9767944904312
57.5854909804116
57.0853921160699
56.5299355644025
55.9258455097737
55.3214711262495
54.8570706265625
54.5331871892009
54.4400201873365
54.5859146955832
54.9648288237632
55.5515719285614
56.2125596786434
56.8132522337734
57.3385006292826
57.7237642175986
57.9961330157886
58.1356673579602
58.1818626116823
58.232949557183
58.2647861147771
58.2576998771194
58.2494808104303
58.16052736085
57.9984323148926
57.6851285074539
57.2064077746032
56.4739085532877
55.5012616694735
54.3215758167576
53.0304246795084
51.7218001359986
50.6108900564515
49.8958892521421
49.6728682676638
49.945507499449
50.595533674238
51.3764296556726
52.1616196355432
52.7946643338125
53.2459668612149
53.5212559734937
53.6598648190418
53.6506075222698
53.5590139000211
53.3122370832756
52.9746048605245
52.4957314041026
51.7595101365471
50.7188549136161
49.430002485827
47.9935362707056
46.6242708738817
45.4906154295961
44.7490568339898
44.4184401642455
44.5674666645733
45.0275256966128
45.6996219576619
46.4533856263437
47.2003396914323
47.8246047901742
48.3667983889915
48.7774088112679
49.1037292497377
49.3847081730802
49.5991490188741
49.6994122931579
49.7784089839582
49.8049576261336
49.7805727668229
49.6707008291991
49.5579976149194
49.4669551311275
49.3198554814208
49.1211105655531
48.9715621476353
48.7585757529028
48.5234903002686
48.2949932819448
48.1020882963358
47.821137519671
47.5490663811352
47.3225978304312
47.1011814707403
46.8057599841127
46.5994260169654
46.3924500669781
46.1558903671304
45.822007858582
45.4487850193176
45.0341795383561
44.6201839007648
44.2906401838452
44.0596613743992
43.7531968105573
43.562794594887
43.4563604395208
43.359095349071
43.2752056754942
43.2478537365164
43.1418889314597
43.0772426591984
42.9707504287256
42.8710533763112
42.713243041989
42.5599773588345
42.3346454765434
42.1692962422359
41.9781914047576
41.8058719903007
41.5900367684007
41.3269757819355
40.9605157616277
41.116384415245
41.0632255062036
40.7428930138578
40.4908182900217
40.316218052655
40.1297212319578
39.9695367224838
39.7290780538208
39.5044875614199
39.2864107802839
