1798
3999.43349933624
650.420452594757
1
128
4
95.8125339094535
95.7813437340565
95.8031743589483
95.8537935176558
95.7626805942627
95.6796781051397
95.6540712100294
95.7205402033184
95.7554691250592
95.8066684538118
95.7693870566106
95.6884160527336
95.6691985687723
95.7388399016882
95.7929734663309
95.7688619510378
95.7058735869837
95.656082471865
95.6711383051346
95.6571450398863
95.6310214102047
95.6494350944999
95.6708922178398
95.7626488921205
95.7991121398525
95.7748664810281
95.7712867207279
95.7225329064856
95.681578952218
95.6240604811125
95.582654754346
95.6455169923009
95.7087659495275
95.7517811495452
95.7419287014695
95.7520056110444
95.7382799151785
95.7203876374749
95.7489379408477
95.7161058599812
95.7136076832667
95.8439079506026
95.8538250240361
95.772405764062
95.6631669293341
95.6493112595322
95.6951597191724
95.743057076169
95.810590676918
95.9941416310231
96.0876068467261
95.9196824214079
95.7062424501841
95.5781189582513
95.5271001873708
95.5796885808574
95.7367303026332
95.7247450908157
95.5577317686444
95.6767926595274
95.7923653677906
95.6639145914374
95.597651389974
95.6733633341863
95.7139220217863
95.8035132473806
95.8924697378329
95.8879370337171
95.864082324862
95.8926238973859
95.8204479440607
95.8033794073974
95.7482126449124
95.7802011461733
95.8609699896831
96.0407029028929
96.0234640057623
95.856993400587
95.7407368002962
95.5662803028536
95.5032468345589
95.5750685245295
95.7386460435058
95.9025851856816
95.9877703521729
95.994079564842
95.9218912218395
95.7173680073369
95.6647184357033
95.6131738119069
95.5226885759613
95.6490729776098
95.8241285243642
95.9532579320897
95.98329900166
95.9116066110457
95.6906736065577
95.5537883102204
95.5028693740487
95.5145148727771
95.6632902861896
95.8550394498236
95.9684716896545
95.9665852125051
95.8947657849733
95.8473087945642
95.7226125130697
95.6187763859306
95.6418864871317
95.5812456905929
95.6223049025022
95.7112211025706
95.7463200470187
95.787060212334
95.8330197285831
95.9223289587809
95.9100257864814
95.8617240601741
95.7845293212848
95.8043471258124
95.7673601532225
95.7387085327368
95.8378953674267
95.8654317301017
95.7746510392821
95.7510502515979
95.7367366707249
95.8163656938129
95.8380550475631
95.9271102045004
96.1470727428804
96.2139569352985
96.0923371699854
95.9326000429663
95.8751406586919
95.8600118983639
95.635882469339
95.5744701970482
95.6263285954408
95.8264297202305
95.9841477269212
95.7356821599393
95.5334444340159
95.4954042340095
95.4563565973584
95.7625975200025
95.9221764826463
95.6966191657623
95.6595874533865
95.7363292602222
95.7648946444017
95.9001616158962
96.0503480871111
95.8767946793766
95.7596323361533
95.8355183878482
95.8300343711301
95.7534819437511
95.8235466775139
95.9497160470284
95.8503177346838
95.9239146475158
95.9891448859065
95.9714480966634
95.9703449433502
95.9727233958411
95.8773023692995
95.6587107043485
95.541555435361
95.7089384881157
95.8712539119876
96.0737276976126
96.2604041465776
96.1800051527797
95.8627358311538
95.7121210422365
95.5541764634711
95.4359666597183
95.4189065015539
95.507712592383
95.6569732186635
95.7699231808335
95.8710211561571
95.9518798193808
96.0513884404916
96.1398022994742
96.0886313028093
95.8741279038187
95.4963990789059
95.354831831897
95.3274142344717
95.3042366589062
95.3764928736236
95.5884457573766
95.6984149593906
95.8105592345311
95.8529631962137
95.7792504290707
95.516010532406
95.3499138211534
95.3144278993848
95.2714147499823
95.1508647529671
95.1558907604085
95.143356112812
95.146493425741
95.2336661022315
95.1257135069949
95.0351369465267
95.0698434138045
94.9282924425791
94.7818865657067
94.759621152694
94.7570348698139
94.851931486863
94.898436716437
94.773316763271
94.7012365387075
94.7301724644517
94.8739045188424
94.707074969194
94.3187216791964
94.3097284715279
94.3748600146035
94.3239534079806
94.4004464898223
94.3949123337225
94.3851823787348
94.4061201066408
94.4835886222537
94.5247222982659
94.3607091989953
94.097687208186
93.9759115695708
93.8703131546996
93.8593504789964
93.8153924773327
93.8497042581446
93.8845877078917
93.9186676776159
93.8145425630316
93.7933173007951
93.8412818024113
93.780149064205
93.5825004482087
93.5408881507596
93.6448503260439
93.6273637890952
93.551666868612
93.50510772097
93.4070483780059
93.4174231914684
93.4104018037415
93.2895199146748
93.2624417487579
93.2227211503021
93.1601910532888
93.0968293906772
92.9817746173411
92.9758387132065
93.069311769592
93.0919924795853
92.9875177095351
93.010781606807
92.9912171438704
92.9767244020794
92.8660531877863
92.7150654735632
92.6231595113182
92.5694502703114
92.5364265646633
92.5079550081104
92.4966717518158
92.45070115246
92.2961571035345
92.1394003184081
92.1752789256974
92.295369953991
92.201812893077
92.1466237252565
92.0637099296618
92.0038892231656
91.8343211942662
91.8016717655016
91.8831160837264
91.8135948569796
91.6727091177284
91.5394155489781
91.3923144411026
91.4297408667705
91.434288300473
91.4036092471923
91.4316258890156
91.3709703525861
91.1708318818541
91.0900183337719
90.9850057414457
90.8757834913914
90.8776694211465
90.8216105505721
90.7377406868804
90.6434029323218
90.468185841257
90.3765730874056
90.2759341051245
90.1903846985259
90.1289079786746
90.1213822896375
90.1187999648738
89.9625472186622
89.7698946257089
89.6669006553599
89.5498979102063
89.4543145728725
89.3480240585592
89.290634111491
89.2222353359588
89.0907929742901
89.0725544511906
89.0945213461482
88.9401798221657
88.9035367578304
88.8747950334642
88.7900633089745
88.7038632225685
88.5944584565257
88.4869405725792
88.5724898222515
88.603100194943
88.488372654192
88.3721663464948
88.3742769957197
88.394422562672
88.3727151821942
88.3316974563409
88.3590348902872
88.4257555568352
88.5034375170378
88.4373370319511
88.4171702899666
88.4250389809661
88.431315234694
88.4732947556599
88.5843102074204
88.5760230694798
88.5727984613914
88.5858263135515
88.5227756943991
88.537375143807
88.5764499682116
88.7053400655838
88.805153269365
88.7281347624636
88.6542796093762
88.7038296102976
88.7076949065244
88.6774420236076
88.693905552199
88.7195074723883
88.8031217800524
88.8099048834134
88.777431416668
88.8322926537067
88.9134100806228
88.8631886077636
88.887702676748
88.8927341300005
88.8419772088303
88.8570084779997
88.9456047458557
88.8916415085298
88.8835533817829
88.9259754987303
89.04044206332
89.1056330069811
89.2100245502327
89.2520856569089
89.1502792147197
89.1732223456501
89.3380607997155
89.2878421259049
89.2385889312427
89.3490489468677
89.4867110568694
89.5399452076865
89.5207047730709
89.4962566962212
89.5813498838683
89.6140232403692
89.62116499347
89.7117412693313
89.8066678653805
89.8167754939016
89.7504800988409
89.7808793484022
89.9515571295018
89.994364152809
89.9475524835043
89.914528161104
89.9441430175647
90.0503604147131
90.1414567187478
90.0856839593188
89.9734504057263
89.9443347648597
89.9804808269026
90.0223503847068
90.1376147087751
90.2164451835059
90.210425322642
90.2343516373666
90.354792668624
90.4102651097314
90.4368356228437
90.4717829381416
90.5211584011014
90.5832206087311
90.6464930015241
90.6678877244898
90.7747364403693
90.8870183179497
90.9242367896132
90.913882616196
90.9123758192558
91.0092941568661
91.0966549237668
91.1102972890582
91.2067369122501
91.2475519884829
91.2412095238002
91.2987163653775
91.3572364727005
91.3761787438076
91.4601718905814
91.5737396967618
91.6422146525529
91.6597296663829
91.7398473444587
91.8082678491851
91.7883088552806
91.6943509498104
91.6562172350885
91.7717807377939
91.9219967411511
91.9747489037364
92.0280311429999
92.0929116719643
92.0727702333827
92.0418688956603
92.1169368784836
92.2505607410587
92.2993795003261
92.3040632024679
92.3719150039315
92.4763844966161
92.550630866211
92.4759885055131
92.4647575443867
92.503437451582
92.5890943928574
92.690544041706
92.7362290241627
92.7108169393372
92.7330835964347
92.7530209220156
92.8591324546391
92.9039622248596
92.8788559261692
92.8961764687462
92.9292020010814
92.9828110832043
93.0362564300703
93.0607540088772
93.0679936904148
93.1086688576303
93.1320531142277
93.0867726440741
93.0823137223754
93.1705172240149
93.2132117548348
93.1736396379137
93.2944225478022
93.3944115459145
93.3819845104515
93.3464575449789
93.3938039485074
93.4501734611176
93.4511572496829
93.4563029632387
93.5343615213978
93.5661180128396
93.5337079795278
93.5605798575417
93.5498772238111
93.6322142574998
93.6817162185088
93.6023865473077
93.6338048000831
93.779500702809
93.8593630488345
93.8210302868567
93.7975662683447
93.8346592215127
93.8033138476558
93.8132592251587
93.9065087255239
93.8891342589546
93.909403131722
93.9549347890286
93.940833517444
93.9492765509567
94.0648471601131
94.1358643155863
94.1481081640687
94.1949135871362
94.1975651928994
94.1247851042048
94.1545127739893
94.2186725527008
94.224971174563
94.1888169341775
94.1646613965166
94.1396670621084
94.117290560471
94.1952316349967
94.2970620026732
94.345650205564
94.3412702024912
94.3209282227502
94.3027987139859
94.2865825342062
94.3377214369158
94.4233764335744
94.4359637074795
94.4312656035175
94.4611506611291
94.4709896331981
94.4529817860119
94.4352858520181
94.5040398505586
94.5359371680298
94.5034695032914
94.4967911554562
94.561935983351
94.5879135412318
94.5578253326488
94.634142963416
94.6877351891943
94.6754322406401
94.6179834008773
94.5775475034015
94.6370846413645
94.6273426156484
94.6185389743389
94.6836626763951
94.7317803966668
94.7212960051886
94.7101300422464
94.6768589616029
94.6818341842776
94.7249652216677
94.7685370843287
94.7626464901547
94.7677904163113
94.7775753758203
94.7931858619822
94.7983538356063
94.8086249138561
94.8704721316522
94.9228026910417
94.8873968785381
94.8717835589475
94.8256549195945
94.8115927418959
94.9180076712676
94.9794095162015
94.9478811941122
94.9231175813777
94.9774710772003
95.0047958495488
94.9735146586426
95.0054135053421
95.0592934207238
95.1268238369664
95.0876356033915
94.98910422235
94.9295779203646
94.9305638212164
94.9908401199267
95.0726959432862
95.0333126887042
95.0675359015852
95.1026316417402
95.0379486002845
95.0324405590435
95.0655814382309
95.1118769619722
95.1104711993197
95.1231774775164
95.117501359081
95.0600420192994
95.0485992342315
95.0620826733851
95.0688036586351
95.1369782346211
95.1862426445872
95.1368589667612
95.1222728871352
95.1712666076149
95.1547534675163
95.1115471646177
95.122611662526
95.1652915498591
95.1664896650436
95.1699573368202
95.1764179271238
95.1767287374269
95.2098529153549
95.2199011422114
95.2145206405669
95.2045603249349
95.1879281796742
95.2732350757529
95.3377240498126
95.3503083252171
95.3176362336979
95.2673594714243
95.2437021654701
95.2433917729745
95.2384932416554
95.2525101293791
95.2875913724176
95.2644996530989
95.2642669905208
95.2882238364663
95.2295906296551
95.1844338103924
95.2475510871245
95.2684526781019
95.2323470743391
95.2036938253627
95.1805706362327
95.1316368781733
95.1072862277443
95.127842704089
95.150884771399
95.1495511865607
95.114145450112
95.0803156576873
95.1037098790289
95.0943811720517
94.9946404488547
94.935398145505
94.9803830693404
94.9560758570228
94.9245919874682
94.9598317890746
95.0252620576789
95.0307228519892
94.9821617311922
94.9809421529973
95.0025363771197
94.9924558657593
95.0147124195479
95.0352984859302
95.0383669437515
95.0364745193115
95.0406173662014
95.0296909235441
94.9538310952228
94.9246077897591
94.9899121697121
95.0473645256401
95.0168970707171
94.9224445292951
94.8563401615975
94.8218668930646
94.8369632430571
94.8703631953755
94.7948612305815
94.7341183794203
94.7171993679327
94.7910759073249
94.9497105399617
95.0509125801316
95.1003057098849
95.138753280093
95.1546713397662
95.1299126458196
95.195182850119
95.2469715085994
95.2730424797531
95.3022089194956
95.2790936729246
95.2564600207877
95.3123750882706
95.4108103169227
95.4341673079603
95.4205715941701
95.4519373817517
95.4539162330892
95.4253109953889
95.4703058364883
95.4648282594715
95.4023235567426
95.4013700062507
95.4428897661997
95.5094671911
95.60121927378
95.6199082876809
95.6140486305262
95.61187236983
95.6010187048404
95.5786182693032
95.5732846061785
95.6046252051536
95.6105971098422
95.5952683920187
95.6273481599386
95.638114682846
95.5671464113368
95.5498804689866
95.5717641706807
95.5680503520025
95.5603021436695
95.590962802818
95.6234792930978
95.6390023448162
95.6445674637751
95.6826279408927
95.7187489778943
95.7355008800439
95.7493311761488
95.7669132223949
95.7722457290843
95.748544366139
95.742054469515
95.8117078969017
95.8975765479655
95.8784596712962
95.8402377438394
95.8216708057203
95.8197918064904
95.8659955000176
95.8914076612246
95.9038775605962
95.986233053013
95.9953642114939
95.9453847126469
95.9443564460725
95.9446048082593
95.9642036525748
96.002154323322
96.0148388378791
96.0026470071908
95.9770327718986
95.9814341306141
96.0564947496965
96.0929783661743
96.0541378936961
96.0828086565457
96.0833762580629
96.0516665208811
96.0470007026705
96.1175230716662
96.1855988296662
96.1861525509174
96.1468422762335
96.1598751707657
96.2611519894431
96.291453267518
96.2464483040761
96.2619012311733
96.293377921214
96.2667813680741
96.2170086084837
96.2350895982939
96.1610539089356
96.1637184156986
96.2269120580255
96.2228948518199
96.2155621677292
96.2786172217662
96.3684499808983
96.3281658397927
96.2459738993503
96.2445867313736
96.2612270885784
96.2446394195857
96.2546760826802
96.2677299694898
96.2802684896362
96.2680530822993
96.3154503530686
96.2873609342992
96.2315703738126
96.3120169185598
96.4403169267561
96.4025733174631
96.3331326245948
96.2937889261357
96.211286571044
96.2357288974579
96.3972703103005
96.384685006692
96.2770278377646
96.195258592501
96.1496617264979
96.1690137607078
96.1774360722507
96.1054074845424
96.0123940316029
95.9980035611839
96.0424003987487
96.0534780996471
96.0945543821131
96.012259574101
95.944818540103
96.06561389743
96.06170568557
96.0226359493094
96.0163210664735
95.9676176125215
96.0313129902654
96.1208845997344
96.1096126584353
96.1278627728317
96.1438246575637
96.1253676561381
96.066452205128
96.0483433828686
96.112068203422
96.0830821114421
96.0589996987935
96.0638413528725
95.9413732569061
95.8613829540758
95.953531140574
95.9785657883556
95.9340784979874
95.8376246252968
95.807820938304
95.7368371211035
95.6005232363447
95.5552136776948
95.5718154646749
95.5319685604016
95.4963488460038
95.5150868470717
95.5445331720573
95.5257442412388
95.539479643668
95.5771768151116
95.4320233701539
95.2089258281683
95.1264948290742
94.9722627825298
94.6433031193785
94.3840494590659
94.1439636943051
93.8131971548592
93.6738296655877
93.8062035825455
94.0270098359972
94.206478585342
94.424680695584
94.7215357214045
95.0135727157866
95.2893144931138
95.4963921338471
95.623309949508
95.7799649256668
95.9573090302788
96.0153224076307
96.023960758701
96.1866257854535
96.2985295992273
96.2774008889652
96.2078029131125
96.1510619683765
96.114544014142
96.0483346259605
95.9425412859658
95.8634716616746
95.8915596600107
95.971395865333
96.0745043047307
96.197622443092
96.3198435208558
96.3326838270126
96.2099406473484
96.1337500502931
96.0935636191834
96.0692577576764
96.1739926420846
96.1848088205282
96.0919653215415
96.0749618622433
96.0309345282031
95.9819025106384
96.0019056272212
95.9810546436441
95.9961863191228
96.0452843409394
96.1419161379445
96.1816336502687
96.1432121719076
96.1546098439167
96.1865386890498
96.2384821635117
96.2705947889948
96.2787159152958
96.319966157971
96.3102607806323
96.2309510066111
96.1972562226566
96.3217918260693
96.4266481494973
96.4474966780244
96.3974772207827
96.3507804543037
96.4678317527848
96.5437825274757
96.5127402582265
96.5516582016971
96.5897145239205
96.6436531651309
96.6329424338707
96.6240145584683
96.7386160560422
96.7697925967849
96.8550458550006
96.9520088467155
97.000167660617
97.05687901141
97.1683994735743
97.3814249355184
97.1973738878181
97.1931783543456
97.1940653937214
97.1629104040306
97.2110661431092
97.2389518181947
97.3432979939427
97.3978648883283
97.5017944895852
97.4538907777638
97.5105202741578
97.7879185021068
97.8240424868647
97.8219026946911
97.6145061020863
97.5058908457098
97.7634214123306
98.0570927207675
97.9509778299638
97.8683882299129
97.8992190175711
97.7961673260914
97.66791717499
98.0455178956104
98.073112090962
97.9206543413127
98.1650943016494
98.3873445953494
98.4361348660065
98.342853591169
98.3064617406428
98.3155413288553
98.1867702070697
98.2363331341414
98.5528017201274
98.6615741390116
98.6776057477896
98.6193177412131
98.6162735856559
98.8857042546669
98.9919475820283
98.8486188884052
98.666951493978
98.837173112681
99.1288385878421
99.2220208916765
99.2073938044607
99.5181234411981
99.4507534166708
99.446617419933
100.068363406095
99.8712892677985
99.2352416511745
99.34987870806
99.1376757890644
99.0495159333925
98.7753204626951
98.4736774821231
98.2141908876896
97.9800381999451
97.8012834504362
97.8574126573612
97.8576949350178
97.9150959470465
97.9414537480883
97.6906610656909
97.3150964576138
97.3072779999553
97.4523182652035
97.4837859915069
97.4365442247153
97.3891710834009
97.2373790263884
97.2674951563196
97.3241976151284
97.2511488529106
97.3227343933658
97.5059670301226
97.4179515204295
97.4493844144245
97.4552009220757
97.3646876389109
97.2362883424411
97.19680974654
97.1983853667912
97.2316607236996
97.1599501832743
97.1131189202261
97.2484026843336
97.2907117624212
97.2832689511929
97.3941855214032
97.4294260708344
97.6364243501495
97.5904274958232
97.390654800857
97.4041017760138
97.3866534833437
97.4507611847313
97.4581605470124
97.2938253607333
97.3457699299218
97.4337421167741
97.4699996595548
97.5756475097153
97.7775732429333
97.7668536247493
98.1004766203984
98.2058560970896
97.749967171024
97.8629611251539
98.4376597224836
98.4121403551351
98.3399910185524
98.521258981846
98.7097171531323
98.7435608907294
98.7745275452435
99.0751097179495
99.2239017391826
99.10837124637
99.1950083415725
98.9758976200324
98.9461211532932
98.8590485693
98.655302155561
98.5755900049184
98.5993664585499
98.7563541863114
98.5973577348751
98.4854670882419
99.0874383262546
99.2517768450366
98.9193029125476
98.7162912682191
98.3321450274736
98.1136280556308
98.261073472108
98.4603576700866
98.4049849015358
98.3540464414264
98.2091349482176
98.2700109717476
98.3945967444488
98.3835594147115
98.500613125582
98.5835086281403
98.7384405674585
98.9360718393276
99.1164369013405
98.9748104151477
98.7425336556424
98.5888067380538
98.5063208347909
98.5989744615379
98.7936486189914
98.8169792448134
98.478495467971
98.3137322012198
98.4552261720933
98.3412851640353
98.253073924752
98.1101250332862
97.9853724621489
97.9888650338841
98.1082395140092
97.9844484208918
97.885269686314
97.8083370562941
97.7810089439099
97.7964819987265
97.7291614761714
97.7451474893714
97.7941463430269
97.7051806503415
97.7340948042013
97.7408684754826
97.6292454469901
97.6025643686039
97.7585865911362
97.8179335737254
97.7011270794545
97.6142478727439
97.5485389374794
97.5080683489074
97.5994551274361
97.5856823740525
97.5112510054113
97.4819036427743
97.5787205471652
97.6156453794713
97.5784082704588
97.6075334995636
97.5955763815423
97.6209256616393
97.603335538139
97.47423817853
97.3995923565955
97.4124380625269
97.4554482820613
97.3846298118921
97.4047972834133
97.4837630496906
97.4881569858487
97.5629758234018
97.5622343647262
97.4778270920283
97.4298818095217
97.4128704977839
97.472314643102
97.491071120614
97.4990735427897
97.4694313603449
97.4665088246746
97.495408832778
97.5017645688338
97.496265565515
97.4980465634076
97.5081717565446
97.5296760576439
97.5184758673043
97.4520679492871
97.4215081871979
97.5095988994695
97.5694878059906
97.5826668641411
97.6398405533575
97.5887528580251
97.4799773877187
97.3920995892678
97.3414317211027
97.3979839036792
97.4315706835439
97.4645506689242
97.5154256750315
97.5198740741727
97.5153203818435
97.5196502351042
97.5222882454008
97.5597649955031
97.5374591622529
97.5265445807768
97.5888322710938
97.6114004477174
97.5760664706383
97.5461571011677
97.4921983879114
97.4186142627731
97.4330739805429
97.4746479082629
97.4818350279782
97.4816415936033
97.4860799026623
97.4876564309378
97.5151830066509
97.5302295417415
97.5365067144598
97.5339555228185
97.4061214968819
97.2963242367426
97.0309763410991
96.1528984679189
94.4133465517473
93.1303252567298
93.8690839727457
95.1872679040676
96.0214248200781
96.6151588359004
96.8939120005246
96.9938696218885
97.0223444035244
97.0183105978095
97.0911149937903
97.1509882049759
97.1725576028068
97.256078352375
97.3241761654304
97.3160455456479
97.1890093163673
97.1158521894552
97.0490333674425
96.9788304959482
96.9851817307539
97.0796866998636
97.1855913492211
97.2911852776474
97.2757800594693
97.1877635609361
97.0722135194216
96.9555367452198
96.9052873568216
96.9140942132243
96.9792990308776
97.0656732075266
97.0638146542886
97.0624128981773
96.9210091017214
96.7091825992118
96.5464256634691
96.3834493195823
96.362122994141
96.3542091993818
96.3580427670995
96.3763447613958
96.3400552074949
96.0581661913699
95.8707792921148
95.7823915101817
95.6989197108688
95.6600831683497
95.6652603846311
95.5995418298179
95.4747012747508
95.3726141090164
95.306708001523
95.1838687961793
95.0049641882035
94.9435875663323
95.0064873332772
94.9941334666105
94.9244600670581
94.8412520530669
94.6291438952288
94.2128276464132
93.7792157578698
93.2621240083525
92.9396750600169
92.7687426815199
92.5087987287316
92.2312915111966
92.0198888420429
91.914656834692
92.1164592742618
92.3780957067877
92.6174801310007
92.8421571569197
93.1065132983164
93.2739033102521
93.3987194625418
93.5419089083129
93.6630460903598
93.7132286358419
93.8335310459305
93.967844118809
94.034076919205
94.1095024063483
94.2435554168712
94.3865948784395
94.4766179499251
94.5365126563255
94.6104838850656
94.7321705201732
94.8078318091722
94.8507353291065
94.927093755057
94.996313413992
95.056839478833
95.1374802329692
95.237544887876
95.3511099607963
95.4533230058391
95.5061088924969
95.5419535544445
95.6068768388552
95.6999075619166
95.7306124527005
95.6746212831535
95.7098116010535
95.9429015405235
96.1417119947376
96.2734816757825
96.3240885369931
96.2707452706699
96.2149296216749
96.247561467884
96.1936644282181
96.2751620825366
96.4101440532863
96.578368643421
96.6991586764642
96.7808607615656
96.7535194842021
96.6843765449048
96.5633911283415
96.5498648501145
96.5151186198473
96.5035167572091
96.6206688757464
96.6784087787348
96.6984120795977
96.6974907492761
96.7251537650127
96.6348437040638
96.4411047057951
96.3431826853479
96.2523268415576
96.2486236782614
96.2968808618895
96.2517435394569
96.1308941035388
95.9164889119498
95.7614941957985
95.7807646563164
95.7080924699749
95.6019633706319
95.5909442580957
95.5998465847679
95.5291272016687
95.4251297458496
95.2544824114626
95.1202196972672
95.0091001303262
94.9423948651858
94.9098385833542
94.8578728993425
94.8102516591655
94.6955875464395
94.5016629567452
94.3031830426934
94.0663657722815
93.9116833508725
93.7731758376607
93.6028401128821
93.4523391241224
93.3695144501658
93.156368023809
92.8332451143671
92.3645059000809
91.9828628534217
91.4643228876203
90.6343087461037
89.6266744277177
88.5076721190359
87.4314453169946
86.5551949918806
85.728323033057
84.9914394323958
84.32799809124
83.3582950827708
82.1801234624799
81.3276181657946
81.0912442585103
81.4169300823254
81.4532998570514
81.0551836176174
80.3395423339813
79.6103319965291
78.7993802411193
77.7422613463632
76.9220284244548
76.2024773800067
75.4471544717552
74.6325376315387
73.7694788261936
72.9488609875945
72.0608480535052
71.1600681934431
70.3724575145692
69.4248777009323
68.4112831749337
67.4626619968172
66.3127549200206
65.1841623246901
64.0041885997621
62.5259139994764
60.7680172533632
59.1462473595923
57.5698688714615
56.0342129473
54.6295488795639
53.4657472542673
52.5757820362103
51.9616762310109
51.8633179466665
51.9888013479584
52.1381883150009
52.3618403507774
52.5442028259252
52.6398983409975
52.8732167827722
53.1702382031146
53.3963550359534
53.5811541565162
53.7901334470563
54.0413436723142
54.3231813565897
54.6263223075637
54.9384457215141
55.2486875028476
55.5696794463994
55.8710766963561
56.2372353621299
56.6424409418485
57.0070631915144
57.3689220451283
57.7507431565531
58.1224340658623
58.5289706864002
58.9478049329021
59.369405857317
59.7918172700576
60.2192282686225
60.6707349805347
61.1321211877778
61.5504126593463
61.9639325798548
62.3897488900361
62.8246862226297
63.2601428841464
63.7047540585008
64.1235965262415
64.5310308460278
64.9403758893112
65.3926610601146
65.8333134973441
66.2674975494697
66.6906660935707
67.1053031680913
67.5057193576261
67.9230485992005
68.3281839852402
68.7074421711365
69.0854791155842
69.4756080388284
69.842692711167
70.2215257484256
70.5825908195958
70.9044042094084
71.2559854398031
71.6234871864248
71.9523320644228
72.2800708680217
72.604582277443
72.927418515237
73.2365097411247
73.5102242001668
73.7875396518198
74.078662156471
74.3599946136791
74.6395699339061
74.9141270469423
75.1723059966925
75.4284260828084
75.6872981261734
75.9386791072811
76.1753135218048
76.4041377665081
76.6148735600292
76.783041570107
76.9720173217412
77.1737109703605
77.3444254139036
77.491022871827
77.5999903470283
77.6455979296971
77.6591330821952
77.6213552031085
77.5404072539894
77.3764034684986
77.1264176931573
76.817948304882
76.4379772681863
75.9686009617854
75.4412991047188
74.8854240900196
74.3067466398484
73.7444573212381
73.2851834735935
72.9525675993652
72.8073008276968
72.8889600986263
73.2177600531796
73.7465818401035
74.3761519962216
74.9925657318707
75.4600043905846
75.737284159457
75.8857365140782
75.8872923085258
75.7205199941487
75.4404624830257
75.0566553228225
74.5934268995192
74.0733988801926
73.5079263504904
72.9036095149436
72.2714529473802
71.6795001772863
71.135702634622
70.6047946763214
70.0417176469288
69.4883626434437
68.9457868483393
68.3805953249515
67.7912752929552
67.2133638954928
66.6833498984416
66.2211984040839
65.8597769441468
65.6689766578024
65.6405718136769
65.6741442070226
65.6099935705124
65.345356640666
64.8853204255247
64.334898829996
63.8591881569413
63.7193323271503
63.8904775862518
64.194061339021
64.53596318525
64.8731341714365
65.12505930398
65.2760870057458
65.3151320396287
65.2727900820985
65.1491755587601
64.9452951936625
64.6704920494682
64.3692827726821
64.0702802003544
63.8659593765637
63.7473248789614
63.8144626437797
64.0735076719488
64.4699110506105
64.979608422144
65.5769721502655
66.2083524428545
66.8878921324705
67.6375112687664
68.4118264782346
69.2101178215374
70.042266286198
70.862802517845
71.6599886460457
72.427859202641
73.1671998701406
73.8705786148846
74.5358678299503
75.166427657586
75.7676298366237
76.3292104720898
76.8865875224511
77.3163866059621
77.5165803410882
77.8709593410673
78.481463596873
79.0433889812279
79.5261909708065
79.9412896997579
80.3521162249103
80.7501064444349
81.1308954974925
81.4919522800483
81.8232065008944
82.1136653802156
82.3856850231639
82.6542378228921
82.9341212324832
83.1933979635458
83.4427961799251
83.6712021759929
83.8836470361253
84.0753800571125
84.2848422962528
84.4601772389496
84.6045914902226
84.7454625433247
84.8331005283277
84.8488330703678
84.8257332140121
84.8886189053455
85.1090460611035
85.321440219804
85.489073720653
85.6573267701257
85.8394925697723
85.9794203829963
86.0696802683309
86.1598221096411
86.161715841439
86.0822907041465
86.175591607266
86.4181009293987
86.6626441435603
86.8554487522985
87.0179331625242
87.1720441100015
87.3215588583918
87.4164638679968
87.5011186326503
87.6033298339779
87.7155667844224
87.843124498452
87.9605751142491
88.0344692314644
88.1146822714003
88.1907940072095
88.251868948433
88.3160156703798
88.3740801801066
88.4225683271313
88.4895568986025
88.5609126531992
88.659024615918
88.7332963923786
88.7888850477576
88.8437898846667
88.9077350210094
88.964809479333
89.0215926047295
89.083421672823
89.1450421121375
89.2044416242693
89.2926591250099
89.3516694135826
89.4019864031389
89.4376929933529
89.4612767758098
89.4976360738901
89.5559678508989
89.5906680310799
89.6488615586716
89.7020611254217
89.7414838651908
89.7675432143309
89.8038219055033
89.8641995611146
89.9321749597062
89.9783348542111
90.0124831432702
90.0480303615292
90.085360894497
90.1130114684205
90.1361111887172
90.1357156760515
90.1720235038389
90.1953008050325
90.2283597649606
90.245365207167
90.2580925074745
90.2623862414155
90.2670877099031
90.2715678450225
90.2771723884364
90.2740658540843
90.3039516999679
90.3393421037038
90.377914348146
90.3831637090642
90.34787907193
90.3124923022916
90.2974027167904
90.3153931357439
90.3001745408348
90.2298564820615
90.1326313935586
90.0048835276616
89.8681142505779
89.6791542407539
89.2931103886601
88.693992270774
87.5551795752918
84.54108609176
77.8879067555473
69.1602938579179
65.5935623978453
70.5757787275546
78.0707103515694
83.0550613300796
85.6574815017975
86.9832169016822
87.4714717663337
87.6620906113939
88.0938978550383
88.4528745301116
88.6554681720542
88.7696106203062
88.8025258724096
88.8104109323195
88.8586435361225
88.8441640648398
88.8091023920177
88.7834414720077
88.7718873876099
88.7129549704978
88.6100923347537
88.5256731163344
88.4272708090176
88.347121616496
88.2728656312215
88.0763969972725
87.8831495597417
87.7400331185122
87.5616441265773
87.3304872229582
87.1353521201023
86.9345040800976
86.7065335849606
86.4572157309931
86.2739897250826
86.1375829760171
85.991581210804
85.7918657329917
85.6916669233421
85.7106010634387
85.7471814383675
85.7796877294568
85.8608708673035
85.9697315171367
86.0641168996057
86.1863506538982
86.3442898515661
86.4185078385246
86.5377489247247
86.6760145761853
86.7492353008655
86.8413667179998
86.9392471643884
86.9754110589103
87.021529953482
87.0827577770642
87.1101061866111
86.9902989314125
86.8625215196251
86.9296676923159
87.0658745578891
87.1246626172462
87.1114902900588
87.1161191635988
87.136288229991
87.1009771068395
87.0713521588327
87.0617876299915
87.0273389042509
86.9584254417505
86.9946899408167
86.9876288000633
86.9350331451092
86.8213254766736
86.7264185461706
86.7052626059811
86.6593671962449
86.498744365599
86.3323056779726
86.1650180387541
85.991446015906
85.7721641610192
85.4887522096618
85.1423961432716
84.9715586244167
84.604507380684
83.7235776159432
82.1666852699731
80.0963323040919
78.3317897977251
78.0875241734333
79.4615568408424
81.1920665013235
82.1320192294434
