1798
3999.43349933624
650.420452594757
1
128
4
95.6306046188521
95.7514043009271
95.6529461444504
95.6677347058768
95.6990612553157
95.7086350267351
95.6824060437216
95.6517644374197
95.6062812008884
95.6410097645318
95.6767084000508
95.6419437738532
95.6023463552279
95.5427024972119
95.5467888756017
95.6915396011505
95.689433802243
95.7003321353285
95.7210837159404
95.7708625049684
95.7527469638991
95.794698473245
95.7886795532247
95.6880434126701
95.6001488011614
95.5795424484342
95.6339579406998
95.6874953888421
95.6272916445595
95.6167813658722
95.6669250150729
95.6412437202
95.6256183991404
95.6380045875148
95.6224952758743
95.6647562328126
95.7218369195818
95.7064375420025
95.6204076557773
95.6155943627726
95.5928983593219
95.616004042208
95.8100865836141
95.8896114399209
95.7567071037601
95.6227720247236
95.6467370140325
95.6829223974114
95.7301854017395
95.6908838459186
95.721433875552
95.7767828329711
95.6450739138824
95.5125604595898
95.610499334449
95.7120854117363
95.7503965936928
95.8072649768512
95.7816814570701
95.7349275688107
95.6929176012073
95.7554146771071
95.6650966960303
95.623206679408
95.6351929084429
95.7081543533409
95.7066900043074
95.7367343618313
95.7268263371024
95.7305270730128
95.7154582647514
95.7431198323596
95.7632589850782
95.7564165083743
95.7375440324407
95.7205725389824
95.6044370760768
95.6730155623924
95.747433910577
95.654214828626
95.7346294019763
95.9098523628738
95.891300169504
95.8408266208832
95.7810552052256
95.6706978496128
95.5772578765899
95.7147653914801
95.8223078857982
95.7568511006704
95.7726824057899
95.8564200713141
95.8982362322964
95.8611952703082
95.8631658195524
95.8576338189755
95.8184855621337
95.7731800829487
95.7247935749026
95.7551224100368
95.8203497023407
95.8366084952945
95.7887312270975
95.78915949029
95.8210599803205
95.8157353601531
95.8161385432803
95.7755178256173
95.8680834068297
95.9722855590255
95.8756806101138
95.8579051176306
95.8652257559406
95.8261906156047
95.8085931243607
95.8547609502376
95.8141774234427
95.7780704314069
95.795986053113
95.7528757897828
95.7754042321186
95.8090140128714
95.7975649016626
95.6951917783384
95.6069946200691
95.791490634041
95.9655045268859
95.8680318402908
95.6962166814933
95.6041140924978
95.667751092104
95.8224535975167
95.8646747733413
95.8683206925362
95.9056175865406
95.7861916831195
95.7629010491449
95.7688550942306
95.780946041163
95.8214384078508
95.8758100564495
95.9226284351444
95.8431076642736
95.8397562239614
95.8516921755155
95.9074037823815
95.9120347723955
95.8943337861349
95.9886751681324
95.9074217612453
95.7394568645023
95.7474587928316
95.7831384383542
95.9389948450113
95.9284465591578
95.7965982478385
95.8483889380413
95.9373916861137
96.0271280837688
95.9565988897459
95.8009899736539
95.8265136955489
95.8818235866717
95.8863099651736
95.897621971819
95.8242699294312
95.7496484514267
95.7773921805959
95.881043966446
95.9056966730732
95.95674438669
95.9838886295668
95.8074579109949
95.7298107541381
95.7822019043528
95.5752683308419
95.6776711501297
95.8983557151152
95.8778611049493
95.8401573606353
95.8421395622986
95.8551682837381
95.7804336491441
95.6740483043265
95.6290237304955
95.6573729884425
95.7515062177814
95.8135528055564
95.6551658165942
95.4868279493982
95.5683147176983
95.5199096502163
95.4356171765146
95.4968776439706
95.3888275762684
95.3316609447571
95.3895064297734
95.3526604257098
95.1893060934059
95.1355487366122
95.1147429784089
95.1489932889966
95.1258397549755
95.1140773441394
95.1759696424813
95.0600862285508
94.8372713498198
94.709205276571
94.6861271959827
94.7715791036193
94.8114371493446
94.7409190063395
94.561382377674
94.5402431426243
94.5937407185766
94.4733025031426
94.3227890034155
94.4447316545324
94.3907386091892
94.3665123319665
94.4250466387487
94.3087909358888
94.1232896781139
94.0261637515588
93.9718513373086
94.0456866074419
94.0538783880205
93.8596746363453
93.6974632961922
93.7174931473752
93.6693740932125
93.6334247501836
93.5482936960827
93.5272783784189
93.5079829361502
93.5327192095254
93.5101143168243
93.4566276154373
93.2982656499471
93.1192627792327
93.1062288917666
93.1303967437185
93.0403318470612
93.1037241476135
93.0335109312857
92.9151450178397
92.8893633733966
92.746574848774
92.5794814093266
92.6251756347976
92.6959714706651
92.6223169768268
92.5122751097035
92.46174246116
92.4310642339652
92.3728449913987
92.2553105268938
92.261489530106
92.342193109523
92.370242641412
92.3304537889679
92.1409470314393
92.0110421187665
91.9639880641515
91.9989655342462
92.063598441267
91.9215277250054
91.8413719473524
91.7977826426716
91.6901903066108
91.6260379149736
91.583921102277
91.5138814168198
91.5281714425295
91.4456529244988
91.3225948919976
91.1449739836815
91.0885643742585
91.2379128093023
91.2015788153227
91.0620315870171
90.9910877492915
90.9572146225911
90.917613276134
90.7825348076749
90.6395561046725
90.5260864103657
90.4930176044299
90.3980113863418
90.2722314171972
90.095250112854
89.9740219078886
89.9524615572286
89.9349774997077
89.8565113792805
89.8169686039492
89.6786382159284
89.5166395318354
89.4304400967312
89.4704403899746
89.3644355549536
89.0910963554965
88.9858650556762
88.9714666023232
88.8898127103071
88.7959696192035
88.6314526658221
88.4016970092439
88.3351251057195
88.3017075588733
88.2032716924804
88.0855214321175
87.9415640201316
87.9487217553866
87.8992950180964
87.6415513685262
87.4599905172616
87.503579946966
87.4154278690793
87.2754965872718
87.1380824050693
87.0015179867475
86.8873281836851
86.9433070680181
86.9982475102058
86.9019985160763
86.6889610197432
86.6277993241278
86.647779614256
86.5908094680695
86.5636700824714
86.5700215052054
86.4385627327253
86.4229849166616
86.5011393565526
86.6310275577927
86.6858334002537
86.5787960203979
86.4251598499151
86.4204874459163
86.5728376609649
86.685959996782
86.7182982494164
86.7419646400196
86.7430585536995
86.7698782692439
86.6986425933626
86.7571512913038
86.8414761366643
86.8828485050863
86.8944621919287
86.9635066700409
86.9223049435231
86.8898747973257
86.9978806159916
87.0744016492592
87.0801609569417
87.1114203958621
87.0464920309738
86.9566758684107
86.9454574170011
87.0813812080478
87.1783061962157
87.1227676344038
87.0838076515275
87.1317454437594
87.1223089012744
87.0724406129059
87.1238580296965
87.2349053646523
87.3018832564887
87.2878850553626
87.2996417639998
87.370116710975
87.3928496224129
87.4167454662488
87.4027683350414
87.4236386346482
87.5278186346052
87.6498631231752
87.6461629890133
87.647567689411
87.7447283338358
87.7557501742027
87.7201594477768
87.8417075761362
88.0250080386668
88.0605576796344
88.0264502104781
88.0327648479925
88.1023118863621
88.1922917966762
88.2255222187704
88.2715567955293
88.2621448297252
88.3009367961951
88.4134016991374
88.3952110241186
88.378347533529
88.4338026492813
88.4856678855173
88.5587248898631
88.4884632003558
88.3969917244033
88.4382513840395
88.4670562617106
88.4859849080651
88.459193678747
88.4665123979409
88.6701959937033
88.7539462506826
88.7021043472056
88.7744777929028
88.8998636150006
88.9536236758692
89.0310262822493
89.0338503600661
89.106305301215
89.2200373300012
89.2985346039887
89.4265827373536
89.526073575506
89.5023183434673
89.5162273281301
89.635401266064
89.6814795114156
89.6712057912381
89.7747961794771
89.9462300229133
90.0562865232662
90.0476237985617
90.0614759724935
90.1288746494414
90.1176672607116
90.2149774562466
90.4197951829602
90.4864960676549
90.4615278905009
90.5011577232507
90.5938062658421
90.6213575805682
90.6605726421253
90.6206718895647
90.7146704844257
90.7853835267778
90.8309260648393
90.8841793233941
90.9923432976215
91.039211963672
91.1364480688974
91.2006009690458
91.1852186777405
91.2158944613444
91.2820392975809
91.3233897678873
91.4146909254994
91.5914408558275
91.5854000914692
91.5137270144593
91.570217114306
91.6171300710061
91.7222100536032
91.754100441976
91.7467362459168
91.8312215410116
91.8919253774679
91.9242991300686
91.9293218315719
91.9682670233149
92.0453242729869
92.0622456303163
92.0687001753945
92.2493839681449
92.3549426613799
92.2929507877396
92.2722381752913
92.3017161933497
92.3830007392747
92.3970770136956
92.3620866068173
92.3687841775365
92.4443206849844
92.5336765177328
92.6239562253775
92.6783155823507
92.7106200463335
92.708100984908
92.7249195347323
92.7862089356813
92.780592967289
92.7986096755854
92.88482385466
92.9155093740541
92.9314359934026
93.0062364947439
93.0148904213993
92.9788833272453
93.0656572620906
93.1230180304664
93.0406850979769
93.0557893158266
93.1429085707539
93.1815552316744
93.206781261813
93.2182992736864
93.2681065792673
93.3075922690482
93.3672691219967
93.4124516036721
93.5023937370114
93.5172381677653
93.461640458832
93.4464976167959
93.5095241763241
93.5390577765934
93.542556896681
93.5741264514686
93.6271439927539
93.6562378595479
93.7067483163337
93.7209934514929
93.7020492095454
93.7084239130268
93.8257224420031
93.8421418910077
93.7565141350671
93.7147334582664
93.7353600855925
93.8210250144553
93.847636512769
93.8696930933049
93.9306827059103
93.9617512102904
93.9441481415516
93.9970188129458
94.0620271054247
94.0596279396821
94.0169198942822
93.9815289971332
94.0212100225353
94.1064642425997
94.1732456773156
94.1680772410612
94.1543799095364
94.1708569196486
94.2062383665072
94.152210357474
94.1099494126734
94.1785969923952
94.2119425945545
94.2240451256046
94.2705984717202
94.3297934945875
94.3181225974436
94.3052211739366
94.2759863607656
94.2935438316895
94.3292627426635
94.375890624338
94.4000434516464
94.3481677030442
94.3562197351652
94.4261028550908
94.5139937426073
94.5383703337911
94.4674909981862
94.4939962387526
94.5373992032956
94.5048535497739
94.4532660736952
94.4174454547327
94.4590764684306
94.5427304928973
94.5901072231347
94.5654459271871
94.5665106744405
94.6397279108863
94.652397035916
94.5980940624406
94.5800816328976
94.6323639057615
94.7154174591022
94.7188413160242
94.731156442537
94.8069485550554
94.8097313546204
94.7810024090653
94.8226034399562
94.8375248121108
94.7850680141727
94.7450031574153
94.7883872695167
94.8444582414067
94.8635705684467
94.8198743549666
94.8134897574368
94.8919395364004
94.8822443666348
94.8723187471226
94.8953043503416
94.8631104809491
94.8774101037866
94.9228792245003
94.8950788457505
94.9347381853555
94.9961492221221
94.9757339834935
94.9030543290535
94.8451817597153
94.8709781533582
94.9322804393661
94.9115320021127
94.8972418955581
94.9896018904232
94.9893287611167
94.969196582999
95.0500527051423
95.0389579929528
94.9782832196273
94.9966572523865
95.0445058325951
95.0142849812676
95.0484675714014
95.1575338105435
95.1595713561078
95.1162822545256
95.0948800550381
95.0879909911839
95.1102711740945
95.1236894832253
95.084010877536
95.0374712396268
95.0436648836943
95.0626109422944
95.0805219568011
95.0865847531633
95.0537099611397
95.0379300485824
95.1119205141792
95.1230416912576
95.0430461597252
95.0376777735483
95.0458867858347
95.0321055757665
95.0316330996309
95.0388070188469
95.015401246518
94.9476805903386
94.9441044339874
94.9573270900983
94.9057377716153
94.9203344043653
94.8738314528431
94.77334255163
94.7923568625676
94.7894549732133
94.751653978337
94.8118599738785
94.848027478927
94.8517356202173
94.8409300824462
94.8425048622558
94.8513098725152
94.9038427355006
94.9170572593788
94.9388859846531
94.9738383155497
94.9644458018248
94.9008476978944
94.8713516709554
94.8520533345642
94.830759663678
94.8570814643475
94.8758908283686
94.8383715660078
94.7628333594622
94.7477575445983
94.7606543694626
94.7065695720974
94.6509265362569
94.6610767905207
94.6760352076448
94.7077420311633
94.8274517151475
94.9292911740859
95.0075864271181
95.0412048998531
95.0449685759018
95.0554219063263
95.1008147130673
95.1487804810363
95.1579842519525
95.1729094142654
95.2164547550525
95.2572781087978
95.307540310608
95.3034053804309
95.3152843538707
95.356175915245
95.3649985482238
95.3265082080825
95.3583921426289
95.387806600752
95.381491649468
95.382086601187
95.3586236968677
95.3263297254605
95.3896612683668
95.4541010492343
95.4490876853347
95.457645505815
95.5300398397801
95.5952605314922
95.5871589078987
95.5535563460522
95.5064112503489
95.5028648401496
95.5227007372019
95.470875534939
95.4531345032887
95.4643614020765
95.4279945444239
95.4192816936934
95.4525773410906
95.4561497822268
95.4794338198525
95.5383993895827
95.555642008148
95.5079814588963
95.4707302919804
95.5130494094385
95.5781039273695
95.6086379511981
95.6187527133835
95.6502481014258
95.6860830148474
95.653642570205
95.5838363590657
95.6182634223455
95.614071982004
95.6275740611206
95.6781789991205
95.7224579649813
95.7950762106301
95.8084876226629
95.824152717225
95.8035328627812
95.7833261247059
95.8585724886584
95.9267552970269
95.974148458757
95.9335277244294
95.9112983787526
95.9845767155451
96.0229040714374
95.9679736266597
96.0144357627967
95.9976133481812
96.0011018628017
95.9917373970049
95.9951098783418
96.07980586875
96.0459557564088
95.9865083965894
96.054103354578
96.1277889537522
96.055665962099
96.0655368136005
96.1087053059873
96.1729402507738
96.2106368360142
96.1233387403211
96.0866895325393
96.14889989125
96.1520639606858
96.1364323714727
96.1248812256413
96.1929588419999
96.2200277356404
96.1951186437442
96.1234073635819
96.1251620550887
96.2678604914084
96.2988124208306
96.33083793802
96.3350072469174
96.2849751091056
96.2811744015359
96.2468865234218
96.175068830708
96.1600980782757
96.2402635390984
96.257194980341
96.2089401088681
96.3239108889425
96.3597263833758
96.2848354785769
96.263982139919
96.2765570371485
96.3052261612313
96.2800718898487
96.2529691569697
96.1950686466958
96.195390477998
96.2389680646534
96.2231016170462
96.1712288563162
96.1917106162247
96.1996628714983
96.0903449528874
95.9663690745549
95.9606220901178
95.9806900657491
95.9931422773417
95.9813589734012
96.0006671159724
95.9583238158392
95.8988923908443
95.9702133726184
95.9714949424182
96.0300151918042
96.0896872112217
96.0366081809654
96.0568288293152
96.1306860197619
96.0827691928927
95.995837655696
95.9430466898354
95.922983776993
96.0020492404703
96.0871691031111
96.1074690029177
96.0292154290407
95.9491780088197
95.930706866312
95.9239530396174
95.8976766957775
95.9234899857204
95.9243484591408
95.8375033863628
95.8035668796494
95.7874417206131
95.704228253762
95.5711101673331
95.4255769691819
95.407823224932
95.5079595715975
95.5510295576624
95.5003446287163
95.4837855681737
95.5851889831714
95.5661362983382
95.4484915402951
95.4140551166068
95.3687238010376
95.2184469372345
95.0039535815257
94.7190824699532
94.4460320877904
94.1129088695298
93.776720221487
93.7008762690395
93.8089498659683
93.9971457964358
94.1791038428466
94.3362611047525
94.5708641783205
94.791694608909
95.0225500229119
95.2562034785872
95.4269412550676
95.5297813539104
95.5821521734706
95.7302849536424
95.9198311858767
96.0431805333277
96.1146117208541
96.1788595925188
96.228611447511
96.2311607372942
96.2443416255563
96.2628847497494
96.1992568874064
96.0475428227268
96.0179794604751
96.0356037529386
96.0764560086449
96.0905740818173
96.0156927477735
96.0342144733258
96.0987872244698
96.1108527890587
96.1315409728214
96.165603380829
96.1668742031769
96.1094329116446
96.061323772215
96.0412852091465
95.9829263003983
95.8775024241317
95.786536807141
95.8271386441053
95.9381273035454
95.9542486991632
96.0131101154384
96.0527135243776
96.00294154727
96.0300682465016
96.0805074470754
96.1257673641035
96.1772568646259
96.0692034140087
96.0438709750271
96.0760287879105
96.0952916460098
96.1581407055909
96.2216895591443
96.1574268672036
96.1535496054016
96.2371158946345
96.2240257939097
96.1762985530968
96.2229622305715
96.3183156461556
96.4747482953142
96.5300487910847
96.4608256075754
96.5132808267768
96.5828847999551
96.677753125763
96.7648009210606
96.7585222207236
96.7745455090407
96.8942186482787
96.8963204457455
96.86940024145
96.9748147806529
97.0321167537644
97.0525920469888
97.0311074830212
97.1629242848078
97.2997125816898
97.0785846760553
97.0844209129302
97.2360046198121
97.2585224308317
97.2799925097751
97.4304795994431
97.4130106875598
97.4221107631477
97.6779010654104
97.6930122573125
97.7175893195764
97.7346169960319
97.8375789310381
97.7365682137729
97.705184124488
97.8377853422173
97.8562253687174
97.9500773748618
98.2116486318546
98.2322071541506
98.3198672655409
98.4419346265931
98.2545546825687
98.2558294995856
98.3577284104922
98.1825242229892
98.3722270056667
98.4618401856526
98.1029992220253
97.8710439257192
98.0433768536126
98.7265371566786
99.0562488888649
98.7563039842018
98.7449655033149
98.7441358251643
98.9273999303126
99.0776746223189
98.88674271552
98.7021222193077
98.5877985514461
98.6731095164255
99.1656946433496
99.0972611277952
99.0019812001063
99.3988298886102
99.3751861871401
99.4193360294159
99.3458432177976
99.0915016080371
98.9196404902682
98.6980271406507
98.6094664861246
98.5242788535537
98.4263708161819
98.0043914274968
97.6414734254449
97.7428008684401
97.9632944157663
97.9337587560112
97.9408912371772
97.8424983803572
97.5941171298193
97.5741304957209
97.5267715509381
97.4244819570188
97.3031787756544
97.3497824854103
97.3238314948602
97.0645330947025
97.0545324503925
97.143813697548
97.126263790943
97.0871362816204
97.0410882065154
97.1172561093184
97.1591701592963
97.0791197487009
97.0744492551639
97.1242200606791
97.0849774483985
97.2032253991576
97.242000513675
97.2124679956911
97.2706547689684
97.1575001089752
97.087699935915
97.1152319635478
97.0335128129846
96.9664501689738
97.1346807101016
97.2797677232313
97.4522545025564
97.434011558649
97.4081618848211
97.3454018197633
97.2942526764064
97.3751226171042
97.3272227295438
97.2899686930402
97.5441425096235
97.8884415402121
97.7561357892105
97.453777497611
97.5886717758312
98.004208615097
98.3717783824676
98.4578817934125
98.3979572284687
98.645593954301
98.7971585201519
98.4085426329387
98.44033786881
98.9257311255947
98.8636569372689
99.0061533862798
98.9778692490295
98.7980390787777
99.0916442876385
98.982007368606
99.032439044297
99.1695560630036
98.8783632145277
98.5988261015555
99.0222369071027
99.1218717509605
98.7223185373111
98.8713556201668
99.0717780601594
98.435429782871
98.1304428606064
98.4571928125449
98.3972127729657
98.2299751995869
98.5582724903056
98.6328544815941
98.2936713380901
98.2904006029275
98.4855318812097
98.5104692826321
98.2992010326148
98.1441065354442
98.3346995491138
98.9840566882667
99.1741508181166
98.9685454011867
98.9429151911076
98.9060333747339
98.8418776702648
98.6642787499093
98.6682078046885
98.7711406758286
98.6456301107086
98.2995420869316
98.0966496192177
98.2793257652004
98.3466754033273
98.1714528494767
98.1898488660877
98.2237002532463
98.0617884038712
97.7906485850039
97.6976178991751
97.8261627240562
98.0825266685152
98.060614754653
97.954276100987
97.8725274460849
97.9259181649751
97.8992991882975
97.8636932253837
97.8663991294022
97.822690185359
97.690363459276
97.5976685156033
97.5484534035915
97.4763136694002
97.5188251658297
97.6718431576919
97.7173556337964
97.6534673723231
97.5441192038076
97.532193579128
97.5605514967845
97.5543338489671
97.5348479326552
97.4708575758128
97.4486759186872
97.5962671253715
97.6243421420181
97.6054526851076
97.5146250878363
97.4589895936336
97.4732846395796
97.4547688205909
97.384013012868
97.3454732581408
97.3886075842415
97.5311448074194
97.6373057518035
97.5960759015961
97.4409348945462
97.4213601540256
97.3934726993938
97.3480207609297
97.4263356159395
97.502376972929
97.4574916050769
97.4110182898048
97.4364475167071
97.4590364963634
97.4510808980932
97.4752808562529
97.4756698127455
97.5012243843616
97.4902389814947
97.4352057267803
97.4243404035285
97.4578514537487
97.5259391218017
97.5128013562901
97.4538881218585
97.5314521020017
97.5022686930826
97.408207314185
97.4282485135993
97.426691903529
97.4462484957342
97.5187535796277
97.606649330907
97.6239038975614
97.5440695338698
97.5040558342765
97.5043664928296
97.4935259353484
97.4776110991152
97.4879985188956
97.4977049115028
97.4943715164656
97.4420417488044
97.4000195007837
97.3714404425457
97.4017178734086
97.4753187889231
97.4779268734214
97.4573359666192
97.4776322913991
97.4814227791852
97.4079935296738
97.3699134366233
97.3645864732417
97.4015599429015
97.4008606745259
97.3757537624096
97.3664528253567
97.1868424718604
96.4786553392402
94.6651862192539
93.0108105240969
93.5839522657238
94.8673665829234
95.7281139191615
96.4105454737424
96.7051955481302
96.8296361277862
96.9561291325783
96.9971202867727
97.020614572617
97.0833188565907
97.0565861996734
97.0457399426551
97.1297153581989
97.0864719211518
97.0715452170366
97.1345667665222
97.0190443044103
97.0129615837468
97.0145941243997
96.9745240196443
96.9887461846384
96.9943778443485
96.9200861054278
96.9466357816678
96.9616892518848
96.877994828724
96.8018899927112
96.7596860265716
96.6711265892637
96.6054380721687
96.6328767329021
96.570262510645
96.5143549035354
96.5924111326996
96.3861654377008
96.3400389535132
96.2960258465336
96.1012921243099
95.9937503130322
95.9475825039663
95.7629588047904
95.6073968809847
95.5437313289155
95.3780480857043
95.3023918374796
95.2067810037686
95.1452320656434
95.0555851170484
94.8688145482643
94.834056451759
94.8109855180478
94.6504302418412
94.5326156017418
94.4668202414383
94.3219933132253
94.2216630963835
94.1347652213275
93.9288425071442
93.8767828932049
93.6395273655006
93.2120890872427
92.9129706483498
92.5529284130682
92.0583585224376
91.6750489636695
91.3499625333437
91.0191198263292
90.9370060084696
91.304331290135
91.5557008762042
91.7781894357369
92.0848437131393
92.3664183600842
92.4412777059773
92.6320423441111
92.8666918006898
92.8718040138958
92.9095278950534
93.1954944493923
93.3403351888467
93.401560596142
93.4940753631515
93.5908003949277
93.6756172368991
93.7632393092135
93.8457992716468
93.9446008134987
94.0152969764386
94.0443695076293
94.1055154801955
94.213934013342
94.3095219699579
94.3907220376945
94.4807528553804
94.5427609127262
94.5590727295984
94.6143470951346
94.7694935365918
94.8008915951894
94.863485626772
95.0728214725036
95.0788024571373
95.0869115166302
95.2715382537263
95.3246013950617
95.3388146166595
95.4921826304046
95.4992764568308
95.4978720904333
95.7240239038774
95.7230033396625
95.8350315173701
95.9681710654298
95.9624120136698
96.0486275445614
96.0656856663158
96.158173374783
96.2469073773979
96.1774546432623
96.2638051341923
96.33359213063
96.2310077112044
96.2924435617969
96.3852683744769
96.2904859740338
96.2629189435874
96.314662807476
96.2890814511953
96.238464814789
96.2842100523104
96.176992786138
96.0543986460949
96.0123767705363
95.947242485513
95.9612173444143
95.8910884871663
95.7565497637964
95.7048041552005
95.6142459625874
95.5332073019157
95.5114366672728
95.4454857566101
95.3815311697604
95.3685146875328
95.2735467838257
95.1798129215783
95.112462560437
95.0179769175926
94.9219189089377
94.8032370133431
94.7123734932913
94.5920880758189
94.4430802054971
94.3136769088944
94.149297605471
94.0069341855749
93.8947544093307
93.6904655609954
93.470602488047
93.3020489316181
93.1491799748388
92.9123060097267
92.6453447622592
92.4189228822268
92.0337499173754
91.4664682394824
90.7458421852959
89.7893185138454
88.685213907701
87.5341076108855
86.5656099972381
85.782536414778
85.0501051427569
84.3336454793943
83.5980535407832
82.5784644674752
81.5732217567532
81.2065342484096
81.5274771151418
81.533012579489
81.0727313007256
80.455118504452
79.7306026269503
79.0033381197507
78.2079822926056
77.3735677453017
76.5808971432778
75.7763474179019
74.9549686505796
74.1108830474106
73.2282712723935
72.3750075716274
71.5515921086581
70.7210571797358
69.9360461587923
69.1135579171969
68.2043883850777
67.2083343392487
66.0863960283459
64.9203148813326
63.6720861158142
62.2312163912208
60.6211538304217
59.050320245145
57.570441648589
56.223122701916
54.99651741486
54.0636620658333
53.5729664931592
53.3250722017396
53.2657415053568
53.4185359154834
53.5385979231119
53.6494987273485
53.9526472620305
54.2273226099359
54.3764758583622
54.537950308289
54.7243996804198
54.9068354019704
55.1211334181055
55.3964785057297
55.6638201769462
55.9356707971003
56.212263036647
56.4714300613435
56.8383526374328
57.2878896869203
57.6355831490289
57.9222262862071
58.2274492898574
58.5887529602975
58.9391678547026
59.3194997515243
59.7220171354695
60.1339850072125
60.5299224972059
60.9621342579091
61.3968731741139
61.80186627243
62.1987844207511
62.6443798397157
63.0617035800746
63.449328022868
63.8596088681669
64.2788071436243
64.6776665157011
65.0740131497709
65.4585953167296
65.8793028468114
66.3013171725336
66.6974304099068
67.0838390607671
67.4710187203221
67.8731463989961
68.2784029720731
68.6382615636151
68.9936908767551
69.3770182055179
69.7427992700137
70.089124754867
70.4455465653645
70.7807417505615
71.1115413620978
71.4459532284936
71.7705776168589
72.080940842428
72.4091350221185
72.7211609511342
73.0322446430798
73.3357184583312
73.6211484436971
73.8834008489792
74.1382157714554
74.3905584082634
74.6587873469209
74.9249063538709
75.1980801588677
75.4562752871182
75.7057854274525
75.9375499109632
76.1679027318229
76.4016193256183
76.6081856796001
76.7964807759487
76.990101974263
77.1466248799137
77.3030427858808
77.452167021715
77.5690009666676
77.6380787360116
77.6773785252856
77.6783502833699
77.6030982340854
77.4522405709931
77.2464731300822
76.9547959074463
76.5994561713626
76.1505330803766
75.6322352078924
75.0526996399331
74.4477616520104
73.8579496296035
73.3590642119368
72.9724578033872
72.7249694646645
72.6959710048119
72.9376788325796
73.4374934265266
74.0785426028559
74.6955319206595
75.1882267327433
75.5256603209958
75.7227961407549
75.7503228908865
75.6314823632723
75.3857303949281
75.0648176550371
74.6342245538031
74.1208969639557
73.5630396183997
72.9751080322745
72.370505297151
71.7704909299618
71.1916945779047
70.6344647130561
70.083253404651
69.5492258997216
69.0210830018898
68.4650540521
67.8648465419692
67.2805402794993
66.730485790021
66.2207226422956
65.7730803898481
65.5077441767773
65.4398646017177
65.4766774008415
65.4583084465973
65.2567593872308
64.7971436819321
64.1909857751426
63.6548322418126
63.4129018452334
63.4645410539239
63.7047505305744
63.9937744816461
64.2697235689758
64.5277138500239
64.7044239246574
64.7740110452993
64.7434387466609
64.6162015770187
64.4193891962102
64.160750947493
63.8383714962565
63.497295113605
63.2106196545775
63.0036453831564
62.9776349376328
63.1300591127184
63.4182487634076
63.8414120512026
64.3567991135554
64.9275449957458
65.5794388974177
66.243110337696
66.9191523988255
67.6597609704118
68.464337899715
69.2592097782249
70.0412775685098
70.8146426740666
71.5334133766425
72.2225474988356
72.9072641725789
73.5674629980129
74.1822372106554
74.7591391702572
75.3132687670458
75.7715983529357
76.0195670921852
76.3548064301919
76.9590122210236
77.5607542213195
78.0769303564677
78.5411584259317
78.9974039546072
79.4155696343407
79.7880834546916
80.1418323834096
80.521674336779
80.853758859639
81.1646776766861
81.475411946585
81.7768509690505
82.0509438084144
82.3144099165228
82.5676072265137
82.8090854636694
83.0265827399289
83.2197536614319
83.4009630675978
83.604659095301
83.7586309265117
83.8466427779114
83.8745645316285
83.8613442508448
83.9178915898336
84.1026505333229
84.3420894068131
84.556388171375
84.7256279145829
84.897210418407
85.0465988195904
85.2105096783673
85.3396928180041
85.3337053438143
85.2702961996936
85.3258512311236
85.545318171822
85.8049681683545
86.0236099173402
86.1995620335678
86.3727327984395
86.5364604553067
86.6435054096814
86.7672785587491
86.9357113814809
87.0689701967202
87.1754135906818
87.2813339628326
87.3451193239814
87.4188129524221
87.5130567185581
87.5960663158531
87.6534943981365
87.734456902324
87.8269009632054
87.9058745673299
87.9730911700548
88.0425635824267
88.1059484572286
88.1681278354595
88.2469929083944
88.3203796398955
88.3885419512922
88.4557402259492
88.517432850269
88.5716739176085
88.5968995335625
88.6700653055055
88.7410897921279
88.8240087339166
88.8911739177037
88.926034408654
88.9755868051601
89.0220403046961
89.0722791846543
89.1250959279797
89.1530420671323
89.1994223862757
89.2626522759555
89.3317355737486
89.3789893273556
89.4188313980785
89.4538288453142
89.4908107037492
89.5173691365889
89.5354584148227
89.5467427198467
89.6046323664647
89.6724970655578
89.6988812218352
89.7053653976069
89.6974111127905
89.7171518056242
89.7322778163033
89.7339786347706
89.7149189052748
89.7105260946317
89.7647205207491
89.7794615601217
89.7719970521955
89.7984539924973
89.8129459787189
89.8026017077005
89.788545544774
89.7744808897807
89.7745398103679
89.751345502423
89.708403129994
89.6357482344229
89.5293543464476
89.4498856677348
89.3330340623162
89.0888468428111
88.7797348099884
88.3085624271475
87.3309979672723
84.7102704491927
78.5252589899373
69.9357849656027
65.6989195295157
69.7122815338823
76.8477401485694
81.9184441933072
84.667137904381
86.0936293650617
86.6781139939606
86.896212359289
87.3504907192964
87.7759031005842
87.9752185936702
88.0693116809663
88.1398730201984
88.1632547256221
88.1465739657895
88.0952364039813
88.0614461859832
88.0176723978429
87.9918782210892
87.9292532685474
87.8489943806939
87.7699902785496
87.6810524812935
87.563848434665
87.4582529681737
87.335636285574
87.1749574550707
86.9690549855867
86.7523338775253
86.5552543354645
86.3113140743538
86.021143117581
85.8190673821719
85.5817880186525
85.318145653076
85.1351036866331
84.9503505343657
84.768299337315
84.6514023224693
84.5764821767628
84.5949393125876
84.683930567031
84.7785120292982
84.7973056719052
84.9229088842893
85.0650541213847
85.1439107159298
85.2374250387014
85.352952748705
85.4589777025336
85.5833247385327
85.6989509928139
85.7959859061031
85.855536242504
85.8841319646175
85.9028003747857
85.9649956067521
85.9275615986451
85.8165945271477
85.83032801739
85.9095087560962
85.9464956948837
85.9593753289729
85.9869640641379
86.0051360456469
85.94608259281
85.882059361624
85.8626826123606
85.9679127060882
85.9391996197407
85.8597027049508
85.8367683681039
85.8038886576201
85.8054421106227
85.7934863031214
85.6719829176308
85.5906876910775
85.4606714109637
85.3199109512854
85.1673637567941
84.9834652261739
84.7474291238171
84.53408163526
84.3234854291096
84.2242450232812
83.8466418621888
83.0227289990072
81.5732929807253
79.5175956232805
77.5451943532913
77.0637585158035
78.379313043889
80.0788099884314
81.0798634947965
