1798
3999.43349933624
650.420452594757
1
128
4
95.8640379794036
95.8691763087297
95.9302106933252
95.9743516137031
95.9550427861629
95.8693537170707
95.8133694982125
95.8765065141015
95.8372662858436
95.8436616688007
95.8245482177983
95.7571922769719
95.7761075758267
95.876708400047
95.8787457808455
95.8933098686993
95.8715960134909
95.8678701106043
95.8705430586264
95.9186777385879
95.87934755718
95.8513170740771
95.8965514347371
95.9164449536049
95.7623924992472
95.7546161539564
95.7920935155566
95.8293645304704
95.8141384622664
95.8292176621048
95.7576499088431
95.7879754671155
95.8785597281487
95.92507470988
95.8461248909915
95.8219080741084
95.7477536981711
95.7811041433938
95.8741976978233
95.8985554242466
95.7325717462198
95.6595958446433
95.6871932040446
95.7474373087486
95.79207138599
95.7468805173866
95.7553449814088
95.8433963198056
95.836045575725
95.8582523419291
95.7835649160085
95.6754584883703
95.4884092328979
95.4435974581135
95.6055334745019
95.8078262375785
95.8341030870878
95.7776763356743
95.7167121703076
95.807925586225
95.7972401043079
95.7563668768952
95.8465107409014
95.8463261450243
95.7113882435593
95.7464842011993
95.7201298151063
95.7584184762569
95.7420233485473
95.7138258234321
95.7717745192488
95.8063332194543
95.5856335417463
95.5787740804938
95.6903150030391
95.8109269382881
95.942833404573
96.0215571895861
95.8080974062871
95.44828614552
95.3508240566037
95.6619217083622
95.976969812061
96.0166348747125
95.8675317515903
95.749763307976
95.6924323078225
95.7352832165863
95.6898222387573
95.6504901344244
95.6437387277393
95.7397825303035
95.8439040653475
95.9582632149284
95.9810430339972
95.9199040619459
95.827473998234
95.7820944830111
95.7265803256304
95.8062540710167
95.9482817065171
95.9836580925134
95.9089576701099
95.917239692461
95.9210071730469
95.8511330508141
95.8231422070301
95.8314761032388
95.7701056001777
95.7983449596209
95.9041032057635
95.993852629507
95.9665399341995
95.9941184615137
96.0225033590617
95.9891873463184
95.9154959218664
95.9164714663353
95.9299813415959
95.9474017469908
95.9091594176213
95.8465924750196
95.7953239503316
95.7740448264346
95.7114795885463
95.7098967475433
95.8340462492145
96.0480283681938
95.9553535329474
95.7657100306997
95.8011426086487
95.8746942901198
95.8609330471976
95.7437565203226
95.6919266273537
95.7362521611861
95.7242694422602
95.7292269885233
95.6961981158684
95.7716565356855
95.8820351413222
95.9036101033008
95.6615399085447
95.5577579819932
95.6426373821724
95.7869534665215
95.8832056290202
95.8331295830618
95.7963448820521
95.969515409881
95.9014632386685
95.8991907550899
95.9994169218155
96.0305093480657
95.9493865737486
95.9511784540554
95.9104228356756
95.9727419585837
96.0044213547147
95.9843999332331
95.9096449960779
95.9587717728279
95.9924748005775
96.0426532461626
96.1299828419407
96.0205856390975
95.7776246617231
95.6620552486596
95.6688567130478
95.8198433905064
95.9067774692624
96.0446256954175
96.071668069086
95.9795756317995
95.9293950304785
95.8825450182619
95.6631100653652
95.759893774007
95.8607213381184
95.9276779556069
96.0652250969603
96.0567187368379
95.8944620603003
95.883472200167
95.9531680779528
95.9929543910425
95.8393280059721
95.7349022862427
95.5936290319466
95.4705252942424
95.4831964521716
95.6885778697808
95.9149003233857
95.9016718921557
95.8080938867697
95.8230033109287
95.8467811433952
95.6942055168616
95.4622746868333
95.4411684137649
95.4495120557023
95.5142730988764
95.6005814857673
95.6316956216567
95.5043924851604
95.4061210484138
95.3600544756162
95.3429208397514
95.3794152565856
95.4074100939399
95.3005655701997
95.3883082314298
95.4293951423118
95.4606608973165
95.302701792908
95.2061484077605
95.2154234264114
95.1488544613104
95.1137322071317
95.1738444958737
95.0400337432871
95.0049649975467
94.9669542204712
94.9845226479184
95.0738613589674
95.1217644299587
95.0945502673181
95.0637575817268
94.969772042082
95.0483525753178
95.0481109813645
94.7735918727245
94.5292416394363
94.5966258396987
94.6228891131234
94.6446012185366
94.6988983147754
94.7191065707576
94.5827266409785
94.5141994639789
94.4889238433237
94.524929607094
94.3968373320936
94.2808251720534
94.2058047441144
94.2900995637572
94.3851797073537
94.3702385472976
94.3362778725928
94.3117895626616
94.1933431626532
94.1112715208833
94.0355464744836
94.0280803140474
93.9495188329956
93.9962184578149
94.0312396965409
94.0598484159148
93.9553651132802
93.8001926948368
93.7715810683012
93.8960262012431
93.9508740169458
93.8264517202407
93.7207262862472
93.7035053603588
93.7243409235228
93.8749807187113
93.8720679026179
93.7751649473321
93.6333434734819
93.5584497679181
93.4564587890472
93.4628277214677
93.3715404310366
93.3711136521281
93.3350210503153
93.2134275040251
93.1440604739106
93.2148176425881
93.1358719612571
93.1249428629415
93.1214401826397
93.0970141005654
93.0250317146399
92.994154770407
93.0215001496198
93.0973111771487
92.9388498452351
92.7456674692421
92.5852665392285
92.5710507406656
92.666784927832
92.6644358225937
92.5444815386385
92.4703549783008
92.3021258231349
92.1616803590102
92.0823892402299
92.1299730588749
92.1211906230457
92.1566827297031
92.0643654485221
91.9408659352041
91.8131710345487
91.7032355850621
91.5867514042617
91.4696613938043
91.4259930991792
91.4838538849747
91.4240778175776
91.2860939880811
91.2396138444748
91.2151993298663
91.1308578427871
91.0503185256789
90.9176040425398
90.9477092183001
90.8124317547663
90.6360136364496
90.6198309872579
90.6410337413968
90.6136710708743
90.4948806887055
90.3157277768434
90.2835975063889
90.2509693926392
90.3137584782928
90.3980464309353
90.3546419102151
90.1921554280301
90.1825827264487
90.2539946652464
90.2623181706072
90.1421498626611
90.0634903660739
90.0778811074159
90.1937404432388
90.2222680877783
90.2462921070815
90.2223347794638
90.1651891749102
90.1386659217635
90.2355551648436
90.2804178263065
90.3000659554978
90.2104130432726
90.1650854814415
90.2316629287321
90.4075263667658
90.4260239596801
90.4013563033894
90.4298930090837
90.4462485429877
90.3840450473011
90.3475340666662
90.3095631195518
90.4021848679452
90.4506539349477
90.4267405544231
90.4188619695311
90.4249241076752
90.4272067324977
90.4124091735999
90.3902497678869
90.3936372628718
90.4711433040019
90.5967907656731
90.5521860203203
90.5124742099101
90.5282804228616
90.5353577597535
90.4777521208867
90.5239056467684
90.5845702782799
90.6321062626252
90.6126008313657
90.630789922318
90.6918496856868
90.7996546703059
90.8346552747641
90.7880038641736
90.8187151482183
90.9870993812465
91.0307741573517
91.0136065970654
90.9538377009136
90.9956867940689
91.1343712872707
91.2478674335887
91.3248335259273
91.3158942813779
91.2135220378324
91.2528309477318
91.3438374386504
91.4432682761317
91.4031210368658
91.3240700424434
91.3757888353548
91.4370535468995
91.3980601394646
91.3856154300338
91.4055681365225
91.4482842822702
91.4288173675646
91.4284242386428
91.4473192598232
91.5464155525991
91.5938462921214
91.5054338728753
91.489138195686
91.6500433557811
91.7954203633225
91.8596066343034
91.8619536048613
91.9057696632763
91.8407240191054
91.8840645092969
92.0122094499463
92.0366608711796
92.0115294995438
92.0300480957287
92.1248594940441
92.2347826734482
92.25211445962
92.2958775608344
92.3243624069512
92.4201170923398
92.3912214304021
92.368847284193
92.4965470104951
92.5389972975285
92.4873567645884
92.6238162475806
92.7904396707335
92.8360200213925
92.7593227854077
92.8160209112826
92.9348789568115
92.9812000480673
92.9616518458992
93.0003911130968
92.9840426762149
92.9479820267796
92.9447591333669
92.9582046035665
92.9969285227232
93.122294663793
93.1641051565837
93.1787201067433
93.2094509226769
93.2912721065398
93.3290902217029
93.3222111147782
93.261137831133
93.3627069732709
93.4172576784833
93.4822638428783
93.6096943887449
93.6082351904057
93.500663295389
93.5506951589155
93.5925113372396
93.6468830273899
93.6833514766081
93.7520227620815
93.7723659042017
93.7224555183547
93.735751967425
93.7826094050769
93.8215859163538
93.9105990731029
93.9137136190663
93.9000555620048
93.9287964760054
93.9266713970814
93.9033384653583
93.9831272416327
94.0571650823488
94.0912458916322
94.1021942908511
94.0723532319885
94.0143561083451
94.0875001069316
94.2245578835618
94.2423199235937
94.2174920680921
94.2862804189925
94.277005333606
94.1970728409487
94.2033779377447
94.2998940510449
94.3963648799093
94.3926223438906
94.3361666448585
94.3883100787754
94.4356504298772
94.4724833139555
94.4466048019587
94.4396081177733
94.4296700180314
94.4196538540173
94.4154178006167
94.4290803180868
94.4457564937924
94.5919028169455
94.6655595220599
94.6683610478062
94.6532008934553
94.6874676031465
94.7075687649834
94.7010617111123
94.6987873897017
94.7304451835016
94.7349042828618
94.6960118594861
94.6362123574631
94.707747638651
94.7626140277898
94.7788456829202
94.7920840905376
94.8052373138631
94.8451087928053
94.8460153862974
94.832589698115
94.8480800850949
94.9287183721766
94.9203422822287
94.8551276548265
94.8861868196244
94.947006921896
94.9772008733931
94.8976123969359
94.9405091685724
95.0759885476005
95.1142317323561
95.0549843439018
95.0292082071124
95.0202890051286
95.0869460084654
95.1514819997784
95.129891750336
95.0786234766509
95.11535393102
95.1611322338836
95.1737035875435
95.0884331288687
95.0856353408871
95.1743848149453
95.2137652453945
95.2129448891713
95.2602377495148
95.2871392619989
95.2312489310293
95.206103559377
95.2380186812683
95.2654190758492
95.2500423495892
95.1813811367016
95.236936485169
95.3268442932956
95.3367075377923
95.2577973285743
95.2606194895
95.3042135541
95.2386842120573
95.2208069739991
95.3747414854443
95.4098953200639
95.3884436034207
95.3600251646124
95.4005006357529
95.3974571496821
95.3461080463242
95.3998818247532
95.4527369239964
95.4125927480565
95.3826614156793
95.361163619863
95.408455978405
95.4813032482149
95.4733917946838
95.4347601729058
95.4900603440395
95.5323858850672
95.5552344283683
95.5662656983729
95.5402771396344
95.4841278473709
95.4953856136479
95.5276762745589
95.559916751531
95.5907819092078
95.5843707499413
95.5265987256953
95.4874498780809
95.4859265190306
95.5231967885288
95.5418267249741
95.5035347096817
95.5017038211315
95.5469601879708
95.5491754320754
95.5442637867538
95.5571882094162
95.5700822380974
95.5886805158382
95.6188475978762
95.6072072874522
95.5720828182527
95.568334137602
95.6257379930879
95.5849330205347
95.5706913949695
95.6127718149908
95.6193644297854
95.6199369936838
95.6489417655611
95.6541221283415
95.6474658479645
95.5812197981577
95.572047417004
95.5991794744806
95.6725349070199
95.7561439701575
95.7573178906675
95.6941104250041
95.6764603261847
95.6846532264078
95.6408747838308
95.594199986745
95.6478184068338
95.7082022812746
95.7039598092104
95.6963727053424
95.6837403461558
95.6243124244669
95.6013793066388
95.6720497789569
95.7217109043789
95.6745338752146
95.612024172402
95.5648912048815
95.5333472799109
95.5451492971311
95.5991178450567
95.6549168393987
95.5998900634998
95.5129192891923
95.538921837765
95.5324450380182
95.4900564737064
95.4194784452575
95.3844602551797
95.3883755612076
95.3665212440986
95.3591550831933
95.3890439142445
95.419536005343
95.4242830018488
95.4081264119271
95.4153478304911
95.437778791277
95.4673683848781
95.4208602150732
95.4495420932668
95.4651702364753
95.455366793328
95.4487524527292
95.4360322265955
95.4282304390093
95.4585662525305
95.4588528872198
95.4094356706831
95.4150417343506
95.3942964296729
95.3021055313237
95.2289579691982
95.2106024325217
95.2325632520449
95.2816926438983
95.2659963397595
95.221470443493
95.325831169105
95.4237703200874
95.4597514104796
95.5297938960205
95.5807798584444
95.5872212767223
95.5859864194733
95.6152961428875
95.6510418442361
95.665182588762
95.6557222331468
95.6527608130668
95.7124360694589
95.7509251975787
95.7733390335068
95.7739126653552
95.7784686710218
95.844785113558
95.8298053614637
95.7765159011915
95.8289973779742
95.8604648438731
95.8151399236315
95.776258312721
95.8305290593378
95.8736553236968
95.9247628874394
95.9979933708236
96.0114376781733
95.9592029661047
95.9143965180815
95.8765792626898
95.8554900552179
95.8724258524126
95.8949394308771
95.892386845293
95.8898937068139
95.9277342133723
95.9358946924064
95.9088128168617
95.9154014079783
95.8830090916407
95.8610957358336
95.9328857620838
95.9833664077753
95.9768395929443
95.9785050827799
95.9734065198339
95.9333407280703
95.9105035728782
95.992845342914
96.0574254863793
96.015436378363
96.0306221017506
96.0668386538542
96.0509015230973
96.1166330633572
96.2125679853491
96.2421766439775
96.2225291581592
96.1563099058329
96.1718364748861
96.1930530312146
96.1885825713513
96.1953967810184
96.1677447499399
96.1625413130728
96.1987847510806
96.2741921667076
96.3135262638984
96.3316440599227
96.323078944956
96.2835015995858
96.2786587075365
96.2722469114501
96.2976821790781
96.3486156441678
96.374907443731
96.4184828358468
96.4622240044135
96.4409175098516
96.4558224880311
96.4628332691276
96.4664840047909
96.4870482388902
96.5401970567896
96.4957423834732
96.4629036040034
96.4743160776673
96.4991499654286
96.4997932026528
96.5215051707326
96.5802198201416
96.460834764891
96.4359993940039
96.585883661415
96.5785486809018
96.5753306097691
96.6070855759572
96.5994361843622
96.5536294847398
96.5250092128291
96.5215871975657
96.5920231372263
96.5553564117571
96.5444130764589
96.5436556728754
96.5370356433441
96.5392554972002
96.5770117631475
96.6665837599287
96.6908786830808
96.6206436073934
96.528328735255
96.5415455970672
96.5622263475175
96.5002278531297
96.4596989624794
96.5134699995414
96.5604268038375
96.5417275600513
96.5780854674139
96.5801024676189
96.4995176972825
96.4342660038133
96.4303619266854
96.4748012221292
96.4099032648044
96.3214372767771
96.3724390636034
96.4591206487663
96.400654630445
96.2530546495765
96.2430705220955
96.2712971577808
96.309820750084
96.3712559359972
96.3418091197054
96.2636394890475
96.2931724839354
96.4022122405512
96.4453074013639
96.4125591937097
96.3385725325416
96.3221206066221
96.3845922792147
96.3869693170057
96.2951473687327
96.2822137627713
96.3397492813928
96.3581694393389
96.3732975742996
96.2914553227968
96.3030648845434
96.2870956252303
96.2200266908915
96.2529748274941
96.2653765564386
96.1454117529606
96.1353944518981
96.1177621901135
95.9925030711363
95.9561165485108
95.9698612550705
96.0103126928603
95.9483999389075
95.84628172727
95.843883597204
95.8498273233207
95.8626583104252
95.8369326606978
95.8214848650536
95.8078967176368
95.6510170890185
95.4094060107697
95.1491383695953
94.8146682601005
94.5748448131133
94.4740680472976
94.4826616282508
94.5633696956507
94.7856162303286
95.0120141758162
95.1143699917295
95.3248626221499
95.5653016039403
95.7415036975446
95.9192051140158
96.0864494634289
96.292616868839
96.4366302522091
96.4890163816194
96.5890083235332
96.7188296592421
96.7411982117386
96.827791821181
96.9879207620467
96.9921905322691
96.9240944048343
96.8251465169064
96.656237353577
96.5647337616781
96.5978050549669
96.625408260238
96.7011061400361
96.8171629114615
96.7529940349688
96.6103416134695
96.6757091474128
96.7181254068151
96.6404959083894
96.6221744214993
96.6763533146088
96.709465336642
96.6958392613374
96.5372948896883
96.3988963552139
96.455016781052
96.4386086493445
96.4216544628748
96.4956695752574
96.5670437687336
96.5320873463345
96.4131543423313
96.4015690230036
96.512975344147
96.4572479643823
96.4305995416084
96.5278358443449
96.5012469748223
96.4524840564826
96.5139630569142
96.5499725080591
96.5238341147387
96.4034177279682
96.3974604305439
96.5014771789124
96.621417533215
96.6785734922193
96.6847019326298
96.8217182065515
96.977789734743
96.8897211967874
96.8402497717404
96.8723162994397
96.9603186013813
97.2584398813722
97.2600841662685
97.1122659678378
97.0229820955991
97.0710810264604
97.2531437448956
97.2838424093494
97.2472401384253
97.3368118358633
97.473164107929
97.3974634323293
97.4364935940723
97.5746870676396
97.5688073973023
97.6275832405993
97.960752927784
97.9530259531059
97.7121199928353
97.7635622165812
97.7734723189683
97.6054737088319
97.7257118942908
97.7929214746483
97.7058117795064
97.8628767082319
98.1221958416321
98.0532355280742
98.0850500069034
98.1817747218244
98.1218965621759
98.0183526968464
98.194965555038
98.230960494155
98.1057375369147
98.1150324833821
98.2082050918987
98.2378206242795
98.318232833539
98.7158573407342
98.9300507229068
98.4081666120391
98.1982432846293
98.4730815072465
98.5979236669657
98.6126881220494
98.9029102038139
99.0140287974055
99.0847995175173
98.6374021272329
98.5533081023199
98.9001501762709
99.0274638207529
99.0158959082907
99.0442721978722
98.8653942344885
98.9588254397324
99.1185123141243
99.3808142515176
99.6414350533914
99.9246911712407
99.5250364213086
99.3272016845235
99.2940454921075
99.0285618576388
99.0102300255112
98.9851352134599
98.6882233990196
98.3755873984928
98.1842429151798
98.3511547029377
98.3831544260901
98.3516588532254
98.3117125005083
98.1069510628176
97.8977438084225
97.9078388426216
97.8269106032393
97.7079879273287
97.7062140811286
97.5594131444863
97.4236613465131
97.4571247970105
97.5074966136763
97.5002367282913
97.4547885068513
97.5383320284411
97.4571690112316
97.3081466556971
97.2802691144024
97.2487531926493
97.2874428275061
97.4485161857619
97.4423099960467
97.2092254428325
97.2528573805981
97.4080707062288
97.405653390426
97.4248048142338
97.3556466889949
97.3099356426271
97.2775980867495
97.3075262831157
97.5327081899466
97.7294970588033
97.7955261107334
97.6764201193416
97.4527210882211
97.3350415808972
97.1348079092375
97.2812051513092
97.621141492837
97.5662842265794
97.6417619167429
97.8840407718006
97.8744431222813
97.9242426228103
98.0957743038109
98.3418005457538
98.4497157315026
98.3164235764463
98.501915771747
98.4576174530602
98.3867918104849
98.6528643749757
98.6985277880229
98.8186926474848
98.9120917230183
98.6893798614687
98.4650373233459
98.7735968465066
99.0404490512771
99.0176128604068
99.0289825177014
98.9003646641861
98.6552763355097
98.7963138240973
99.2205457251301
99.0557050139121
98.9709814294007
99.1541594491754
98.6840188870612
98.4942039460619
98.8113945149976
98.9386121225937
98.6350938823392
98.4332510248306
98.522151607859
98.4857827808567
98.3118473135263
98.5782961945729
98.5551748477511
98.6213177026296
98.8408970628881
98.7753290861694
98.761956653752
99.0559204750141
99.0213817641323
98.8007316236278
98.694336063843
98.844326727919
98.9583267873727
98.9914681382681
98.791544913087
98.7213692206143
98.5280381256754
98.521943617759
98.6924674301926
98.6077686463339
98.4736541096972
98.3277218901245
98.1912293664886
98.2101282940005
98.265555835167
98.3650055084771
98.2081404673097
97.9144452529233
97.9919477174474
97.9908565243229
97.8952738296226
97.9147544279136
97.9419799655806
97.9527039705452
97.9295743240269
97.9631776267937
97.8578134798772
97.7482904659879
97.8351299457697
97.8463587502717
97.9502903664195
97.8723456222186
97.6801415871907
97.6892999511859
97.7400074867934
97.7136198376937
97.5787455252259
97.6118000848355
97.6725404027002
97.6652761704498
97.6967782243797
97.7319429819764
97.7369728222846
97.7499174078277
97.6689795353984
97.6041107675364
97.6815929828638
97.7253990215587
97.711590022561
97.6967898873103
97.6713137521438
97.5617706415817
97.516893744533
97.538818346947
97.6127323521622
97.5847784733696
97.5378701347279
97.5918004518659
97.5472463588332
97.6290439526428
97.6205106190885
97.6004364149716
97.5563677472007
97.5124462230713
97.5110924064754
97.5675911676363
97.6676687439905
97.7305983794796
97.7276791441005
97.5565706190687
97.5473770274508
97.5716086441268
97.6036363237647
97.6306213458602
97.6911971803962
97.7883393826413
97.6759282142338
97.4465684420028
97.5724614546992
97.5410223496685
97.5704851991081
97.620174426021
97.6585099594964
97.654044456914
97.6674626522253
97.7159418335637
97.6820662442998
97.6445461480052
97.6360974213827
97.6087438361621
97.6313596413193
97.6367606061204
97.5553450692259
97.5575141279688
97.5998712947155
97.635458229683
97.6816377946583
97.5568425973707
97.5618004441494
97.5430296605305
97.550619510225
97.5758227704113
97.6312646772356
97.4873356350535
97.4903671744777
97.6116517357613
97.6806936016158
97.5401111016809
97.407818220272
97.5209989019861
97.2837669305813
96.8252054723999
95.3697105629927
93.841268071118
94.2884341341039
95.4139980146244
96.0194921429363
96.7292922241483
96.9923711708157
97.0155592738648
97.016136873422
97.0585857754843
97.2198805745254
97.2257370200143
97.2195564460358
97.1941770072581
97.3650412730578
97.4608726609398
97.1008906412569
97.2639346217867
97.1684123659451
97.180310943023
97.2962749026459
97.3392726215352
97.3483716200234
97.4564813736882
97.3669588848274
97.1671895663296
97.059658315219
96.9451891509924
97.0920987825134
97.1834444229793
97.2127333370539
97.0644139905057
97.0229964565641
97.174020358949
96.8208083827201
96.8966529718357
96.7065065439539
96.4774707419058
96.8599993074589
96.7233914886447
96.6765226651993
96.7273747751726
96.6534099720315
96.1745162826443
96.2748840598831
96.040278603484
96.1923535314249
96.1647167118966
96.0688496719484
96.1114706058491
95.8739357263693
95.7115914033653
95.8072767574978
95.8866833997098
95.7499059053016
95.6248454909263
95.6174338410692
95.5616868450329
95.6021816270337
95.2455862968783
94.8889371479002
94.941381030997
94.5817810696911
94.2027299627035
94.07919895598
93.8352134052997
93.6216655196354
93.4991110561357
93.2451714397451
92.9002811717981
93.2378648840202
93.4771198663475
93.7174091362633
93.8780642157386
94.1179737193208
94.1288233331124
94.1856146301422
94.4616144991077
94.5294492332167
94.4662092316243
94.690811097918
94.8516438421083
94.892242099388
95.0199663421756
95.0880678936929
95.1844365561918
95.2267991932225
95.3101023149251
95.3746336059799
95.4821568495462
95.5180436896304
95.5501849435876
95.610794431258
95.6867288257666
95.7176757855675
95.8020374577874
95.8461126381392
95.922065133181
95.9611644349684
96.1115513600648
96.0929744275627
95.9626119196772
96.2029419832477
96.2974947242362
96.1963384809455
96.2665552671801
96.381838503733
96.3633858040476
96.66968776112
96.6621770975798
96.2075286564285
96.4356466011875
96.5101572012114
96.5517720051008
96.8234046774906
96.7160598549544
96.9420664613759
96.9606272911683
96.9818394455041
96.9967211732888
96.667822670233
96.5468263795153
97.0135373609276
96.9802661749046
96.8645225221749
97.0837914215532
97.0532429434257
97.0033870417097
96.9228183554598
96.944723986458
96.621465755158
96.6979739335734
96.6857596865348
96.4047472808019
96.5657141177472
96.5615457061331
96.6117401292878
96.4951767994178
95.9906411640171
95.9651877297039
96.2346121454357
96.2846149724417
96.3128392361383
96.1343242965369
95.954437606935
96.0725368418379
96.0339172227447
95.8072287874272
95.6868303340896
95.5604566780237
95.6152408860267
95.6053183186904
95.5077418605017
95.4579811112869
95.2852872918882
95.1268185702358
94.8207652933198
94.5243989157667
94.6334448259905
94.5901669535665
94.4541006927636
94.1851273376401
94.1723566548773
94.022980868727
93.7825999852914
93.179727794234
92.9443648419536
92.5194907323288
92.0246224609402
91.2060481337745
90.1184274777027
89.1132748771797
88.2759599421575
87.5294195633146
86.9231533711797
86.2211042736105
85.3026602668614
84.4229032556314
83.5340371243876
83.2542931003896
83.5816038710116
83.651614984139
83.1681095348027
82.5533099488312
81.9475371882737
81.05026109346
80.1533538461974
79.4011079826376
78.7405097186927
78.0319793850252
77.2356829656731
76.4636510810259
75.6233771849736
74.7491719702176
73.9943627569805
73.2121362084413
72.307775076923
71.4869263259105
70.5355968038256
69.5973412819209
68.6225986373744
67.5393323637923
66.2169018015622
64.7650479359879
63.3561624063101
61.9413309995871
60.5907727066261
59.3616925314704
58.3369930384794
57.4952484388444
57.0964469459963
57.045564910549
57.0843968349007
57.2633843799529
57.4615181386461
57.5588524781551
57.7903119652586
58.1446161929517
58.4197233785568
58.6459414812155
58.8277557032302
59.0468876987629
59.2737771403269
59.5422643447982
59.8335682341002
60.1350697325497
60.436512162493
60.6861713125091
60.9591679897171
61.3717437392411
61.7912960117214
62.1661394792928
62.485166142332
62.8427400848091
63.1864844583911
63.54167803462
63.9307113173265
64.3409026548287
64.6992440320364
65.0907835096994
65.5366690406606
65.9542818005195
66.3205092724602
66.745008548266
67.1641173723075
67.5562220535183
67.9430421038056
68.3329169470605
68.7288109648504
69.1160521052711
69.4780920983108
69.8447951913057
70.2359541497153
70.634991329586
71.0020168587773
71.3611631541849
71.7423580045604
72.1440961117254
72.5016443787245
72.8300431574719
73.1598306720666
73.5345454054962
73.8663612424603
74.15274918071
74.4450998810847
74.7590070194334
75.0524641442981
75.3496382470682
75.6608045610948
75.9652044174437
76.2207636964473
76.4958879987146
76.7866818094444
77.0498636824529
77.2860378969108
77.5165247828541
77.7562955526902
78.0126461988326
78.2630318725261
78.494856069507
78.696031503024
78.8893518108409
79.1030898376691
79.3287743987959
79.5135400165431
79.7066055743193
79.8959967917512
80.0608172452381
80.2264080424354
80.3664194857498
80.4694065098822
80.5635865339754
80.6254165552107
80.6347828729552
80.6015735587308
80.5380661374873
80.4003004501152
80.1874586148453
79.9047767219881
79.5608574021079
79.1359165416198
78.6340295919047
78.1201807409378
77.6078881365708
77.0994398143176
76.6363655415287
76.2875701834147
76.1171553740233
76.1542821284407
76.4309718786092
76.8972432453367
77.4446355104049
77.9676964373513
78.4140720243566
78.7306436651501
78.8803922306667
78.8743859926476
78.7377784170012
78.5054829249441
78.1892124699499
77.7644512063573
77.2614055586203
76.7296987916461
76.1860856313719
75.6073706675485
75.0340842128468
74.482317250035
73.9490257084206
73.4244085282476
72.9236665641369
72.412714598196
71.9026159329606
71.3759073779859
70.8243621444787
70.2715844323427
69.8066475395421
69.4645007870794
69.2635196212032
69.2257872427897
69.2512433929916
69.1904107198237
68.9705658395478
68.5452375070481
67.9763432334424
67.5006036597258
67.3264101077102
67.393247193372
67.6262829956699
67.9266508129947
68.1916749436457
68.4167596603505
68.5971315444113
68.6550787984594
68.6202449626981
68.4863743323935
68.2750190773049
68.0208528988506
67.7667228128521
67.4851946321861
67.2437127806489
67.0923004908727
67.0973345389734
67.2809619387118
67.6216259277938
68.0646669858414
68.5877812430397
69.1315778878275
69.7272990026231
70.3771566156109
71.0874013110419
71.8117941927823
72.5565194873829
73.3019636002482
74.0405852046782
74.7561186659551
75.4539598797549
76.1172329052968
76.7274918717053
77.3105937906392
77.8899435223377
78.4181807927112
78.9145079682151
79.3314213467439
79.5667025992578
79.8707754261006
80.4231197127525
80.9234640574585
81.3430881251794
81.7392660989371
82.1252808280822
82.4873516917498
82.8110804987408
83.1109288760721
83.4196870377142
83.6799659553346
83.9245726794285
84.1786561074028
84.4254776262157
84.6553242980242
84.8740872336664
85.0859812841296
85.2894796536912
85.4623012875334
85.5980211723831
85.7692571420634
85.9377179627303
86.0376674029026
86.0921681818958
86.1209567153939
86.1335210048362
86.2173721309721
86.3752631822244
86.5206650982416
86.6721906422389
86.8243838628309
86.9859594350597
87.1136698433901
87.2211222689612
87.2823974253081
87.2844716964409
87.2507643798755
87.2905174308094
87.4798476220635
87.704219697706
87.8881829583631
88.0225349446387
88.1376049995669
88.2545187819481
88.3789515711628
88.4891277681838
88.5947816790773
88.6846372442625
88.7688570898776
88.8576165789279
88.9277857437613
88.9985116733915
89.0576671188037
89.1206968779353
89.193458956084
89.2609022823188
89.3338614078963
89.4052780723129
89.4554275478421
89.4900841281555
89.5584697096874
89.657515550835
89.719792784616
89.7384996511966
89.7902259734309
89.8725594149156
89.9369513137224
90.0126255500089
90.0578289903028
90.0615513287192
90.0806467535113
90.1501234617914
90.2333660703155
90.2851811237758
90.2983873934877
90.3477098103187
90.3847903482366
90.3905104350874
90.4539261198126
90.5383373140949
90.5980886319347
90.6486090281153
90.6910775258441
90.6943300344025
90.7155157549027
90.7661785179278
90.8404727469584
90.8770726815385
90.850912009408
90.8641640668787
90.9269012302685
91.0031820772
91.0153587743548
91.0506753004867
91.0875340995331
91.064163830854
91.0365738549846
91.0694822751749
91.1165180617312
91.1188846894106
91.0832164843534
91.1067903745151
91.1191715762745
91.1199452925395
91.1359701410584
91.1508745613513
91.1673548853039
91.1785556921266
91.1837948996219
91.1730624800568
91.1024956449571
91.0469070339219
90.9934342548957
90.8921156559411
90.7622593685242
90.5303841636105
90.1101389291965
89.2621802529031
86.9033393073719
81.1430084350774
73.1043833143371
69.2893150086217
73.1889208469375
79.7203942936334
84.2100634357574
86.5940461642653
87.8187308645613
88.3417839477691
88.6050867381029
89.036021821945
89.3768135105774
89.5551472259337
89.6760717112822
89.7925194645974
89.8344646322167
89.8146677740747
89.7727901913203
89.7496884786379
89.7421104635582
89.7078083148139
89.6622299458906
89.6251377166881
89.5562487880209
89.4616663991969
89.3554597429516
89.2667911461706
89.1704571603995
89.062650716706
88.8790018052791
88.6941654359482
88.5515744418744
88.4245632220712
88.2121790080996
87.9900951996948
87.7827815755435
87.57784505639
87.3925513885906
87.2119263771421
87.0968818904121
87.0540257311686
87.0382253610261
87.0600583007381
87.0592950595379
87.147880388692
87.3109405887454
87.3782710141078
87.4541529870992
87.5674631974953
87.6653350946324
87.7621125113203
87.8560981143418
87.9428046433478
88.0488871402302
88.1433393975358
88.2301473878429
88.3200692099561
88.3319713029439
88.3438668373676
88.2376680090145
88.1289711732724
88.1545698736451
88.2575257780746
88.3437157002164
88.3818840173674
88.3750798180686
88.3851823190028
88.3871420210771
88.3551940423908
88.3014442390734
88.3080781756534
88.2807753058002
88.2561304202681
88.2780910423788
88.2982886133964
88.250049367332
88.1672129624468
88.0717693369746
88.0082826704881
87.9646281316121
87.8871359971216
87.6996874199577
87.5015868991217
87.327924735537
87.1810170949557
86.8966812274755
86.8201733323218
86.2951049621608
85.4028186698461
84.0625931589614
82.1426158525081
80.4208821730621
80.1076186366608
81.3578952698155
82.963245915539
83.9759174428418
