1798
3999.43349933624
650.420452594757
1
128
4
95.6518262478047
95.7389319496633
95.861570351923
95.8739752200079
95.78316047785
95.7956270154532
95.9092826433649
95.9477508393649
95.8310295026613
95.7798970014687
95.7792823847002
95.851108048439
95.8447050695318
95.7484042549346
95.7620928091866
95.8097514976592
95.869132287974
95.8468596706614
95.8093796585586
95.8153740562508
95.8430371216937
95.8587814892901
95.8578128708837
95.8781888213953
95.8830581487859
95.9117904152839
95.8404069196231
95.7733520187961
95.8391592107114
95.8952624945308
95.8970905815863
95.8308766087395
95.7713491406209
95.8299271248732
95.7936259901528
95.7349301032999
95.7420225585427
95.7821949323207
95.8792764166695
95.8927766407118
95.7392716728428
95.6861197600962
95.8322163596868
95.9478167657699
95.8267074203133
95.8591398380848
96.0023767592609
95.9847156062466
95.874976749771
95.7560516478552
95.6022263026422
95.6692778291513
95.8528125310919
95.9479708183545
95.9513026703799
95.9519935710751
95.9333042352815
95.8931360726768
95.813000175579
95.7788326120103
95.8914655534546
95.9503620223856
95.8498654260916
95.7881988724516
95.8449607710326
95.923800838285
95.9258500621873
95.8579983482694
95.7532977447699
95.6840264484361
95.762913686772
95.932051378362
96.0181308465308
96.0464169443293
95.8820967191957
95.7625958998199
95.6859334349495
95.7250024461671
95.8227095219329
95.8804915558761
95.9565210228241
96.1546889922291
96.1229530826993
95.8612423941248
95.7010907664856
95.7143876055577
95.7706500233107
95.9281583362147
96.0260391073232
96.068065701867
96.0275628165287
95.9254396358396
95.8560970966113
95.8478287534395
95.9230976101724
95.9627677113813
95.9603118660463
96.0076620193963
96.0598257534136
96.0092320250752
95.9184560850997
95.7843899555516
95.7689089407086
95.9117578315655
95.9773587152277
95.9789923259641
95.9813394137487
96.0479449876854
96.0091362655059
96.0132985985995
96.0238277253925
96.0208056199482
95.9453559911511
95.9086568823443
95.9673292970048
95.9560677831469
95.8887397658859
95.934919512218
95.9648445442976
95.9691256454823
96.0201217322022
95.9706370279103
95.9921753445295
95.9713933189225
95.9415388462534
95.9671260387778
95.921089185357
95.9442375662408
96.0236831632283
95.942961066977
95.8537523400237
95.9009549122928
95.8654418939743
95.8098505423634
95.8618775549493
95.9349767001884
96.0293181701164
95.938598707527
95.802150157715
95.9397463393876
95.9583767311714
95.8096665956906
95.8843663742128
96.053540059153
96.0716106736714
96.0659684022706
96.0038471395035
95.8942485605391
95.9034112532583
95.9098613180444
95.9177050857335
96.0037868902247
96.0724063144294
96.1155934416249
95.9907992568043
95.9307981641595
96.0792933236992
96.0850002652635
95.9059959088953
95.8442041179063
96.0407540236087
96.1691408947068
96.0588771907361
95.9615732277998
95.9079216204397
96.0415303176096
96.0974802285959
96.0103110763461
96.06264093513
96.0619194994807
95.960308864183
95.8782550185258
95.8791825165605
95.7686605262681
95.5919618948777
95.7687588147689
95.9719323180936
96.0062718526981
96.0186492319865
96.0685777667923
96.0370106279519
95.9989620267427
95.9395559633649
95.9330997848492
95.814868958317
95.7115303151418
95.6633709278718
95.5908470590973
95.6748378172361
95.9722367833009
96.0233987674177
95.8896161270562
95.6324447595278
95.4749521190783
95.5776234173731
95.7204596738717
95.7159157978992
95.5672242717892
95.4925308644039
95.5298326830529
95.4901491099599
95.4443025905289
95.3211310213331
95.3013502202286
95.2879074674578
95.2548242640406
95.207475933557
95.2842727544648
95.2254799250468
95.0866973715521
95.0449514195537
95.0416472474645
95.0835019975891
95.0989707465626
94.9167387874769
94.7326216497736
94.6942217856083
94.7384940391275
94.7368633129553
94.7821867393905
94.8346747713005
94.7923137943249
94.6722374724941
94.6521229016277
94.5658212920881
94.4388251464188
94.4000052858596
94.3668931458678
94.2407103238745
94.2515130906089
94.3568353087536
94.2898747757895
94.102463335064
94.0443644774959
94.0181446165364
94.1172628531177
94.0315418897822
93.9306142180433
93.9189874859742
93.8664366362168
93.7675564087255
93.7604762571775
93.6483350873747
93.6300998980733
93.6610665202276
93.7586002079123
93.7746266170738
93.6487765306197
93.4701241988937
93.3787032067462
93.3240255299099
93.1984453663388
93.2052794665174
93.2731329818449
93.1275146920838
93.108502451959
93.0404242680716
92.922245618756
93.013751879972
93.0770659830243
93.012471505988
92.9438120608403
92.8188606322018
92.8321101577447
92.819191510881
92.78719653653
92.6249995664626
92.6240629015181
92.6997644978592
92.5863753178851
92.4571357740456
92.4056485658907
92.3984356470321
92.3140117461025
92.1686598144126
92.1795916000101
92.0830783879625
92.0410914251311
91.9883581946887
92.0073715599392
91.9667658043261
91.8492203217461
91.7401343687604
91.6713376043441
91.595231978854
91.5339821368699
91.3890854358105
91.3583480765228
91.4264277908056
91.3750761786728
91.2953441759325
91.2435373776679
91.205333551633
91.1153915000835
90.9844639110101
90.7445114180403
90.5355391506606
90.5524207026337
90.6192814310964
90.6448383338175
90.4525141981243
90.2445158955072
90.2485667777923
90.2214074860468
90.0521755546545
89.911031659074
89.8193451107273
89.782341931401
89.6490291136963
89.5518609466209
89.4943492626119
89.4642762760567
89.2999658534474
89.1525968179038
89.0493865638239
88.9667554272805
88.7893053074215
88.7581040321265
88.7330981378157
88.6172610023289
88.5174614045617
88.4808800890737
88.3985745455257
88.3588806686009
88.2602304561496
88.1252459735052
88.1064089677566
88.131985015238
88.0963892496035
88.0252106012809
87.9516145528556
87.9868948548416
88.0624931394874
87.9390878939508
87.860134626566
87.9169821996114
87.9922269915715
87.988860427983
87.9703979084959
88.0267097456885
88.0342013483132
88.0421995537617
87.9592375086082
87.9954525752684
88.0775487229819
88.1329245411869
88.1953543585187
88.2111793838689
88.191134686
88.1636659327557
88.2072280019939
88.2703200761887
88.3647619647091
88.4589100228908
88.3505167366413
88.2564364225407
88.3049887208456
88.3603186369165
88.4014132629207
88.4357895312065
88.3710788544037
88.3836273688854
88.4902297432992
88.5576382839291
88.4881243628534
88.4875177379068
88.5725560997002
88.6473570432251
88.6732007584042
88.749123265072
88.6489173923779
88.6632334514703
88.743285427412
88.7358349474791
88.7476866702937
88.8096581516672
88.8612651514076
88.8896469255649
88.8516018085911
88.8615449975169
88.9175690899342
89.0197112112787
89.04997782259
89.0896563037251
89.1051648392405
89.140529177867
89.1821153849761
89.2278746891059
89.258969821312
89.313607533578
89.3889021968044
89.5124316630341
89.483502870438
89.4741655789381
89.5508307597524
89.4827425726196
89.4470364482644
89.6145408309975
89.6220410928513
89.4592763001152
89.4829670847924
89.648061505504
89.6600606731714
89.6783304293852
89.6454765047203
89.6471983848212
89.6688281077777
89.7022383653741
89.7183434618686
89.7993040238552
89.9185110936467
89.9883833205562
90.0112509623329
90.0381524183908
90.032924353025
90.0534870976893
90.1290215312201
90.2851185817842
90.3627089506694
90.346505125773
90.3925108791171
90.4716080037775
90.5058373248124
90.5860770858313
90.6245320098901
90.6206770445195
90.7410674039601
90.8862219647182
90.8956807988125
90.8983621730349
90.9977910704994
91.104544822545
91.0987559576843
91.0573385408078
91.0694886379607
91.1801695815313
91.2719302400416
91.346846683966
91.419422047496
91.4864234447405
91.4905959483055
91.5204476460931
91.5890682590788
91.629551507892
91.6140520469752
91.6573375910732
91.7437729448715
91.807033096621
91.7917464539167
91.8743106725281
91.9173734926965
91.9103526533063
92.0075330276922
92.1118375481538
92.1257534414163
92.1284759543425
92.1474813102243
92.2022185067771
92.323779087823
92.4132299412213
92.3747164710838
92.4107601783925
92.4817040334089
92.5176042322522
92.4892550589566
92.5410926451559
92.5620340783332
92.5909997096794
92.6307464035157
92.6685721787859
92.6901173078028
92.748482060965
92.8480023242848
92.926267973672
92.9305260112281
92.9693614583207
92.9734811926976
92.946203020697
92.9691580116227
93.0239880159043
93.0641287101575
93.0556501579748
93.0804372111169
93.1440759620701
93.1759603316078
93.1088229885727
93.1016466130667
93.2169236426141
93.3111511327533
93.4458398586358
93.4702123909158
93.40837368965
93.4837292744763
93.5479374533309
93.5525365941454
93.5512210564165
93.5218365772671
93.5189058621652
93.5812348405792
93.6548984516397
93.6595032497698
93.5903874052288
93.5895962227765
93.6632880314119
93.6883916601591
93.798993773704
93.8717584334061
93.8633144460989
93.8368390688299
93.8360636834226
93.8270805666868
93.8147092189984
93.8566551344854
93.8876947453692
93.9612568964774
94.0337397699332
93.9538900361175
93.9227760096905
94.0352483133934
94.1251115150361
94.1165648907468
94.1094002762657
94.1393408804749
94.1558629088584
94.2136685980029
94.2615711264689
94.1996100340765
94.1670790333484
94.2313884322241
94.3177521479485
94.3356803586349
94.2769055280565
94.2788672512307
94.3437682196679
94.3546625884905
94.3447165306197
94.4122262149867
94.44677955736
94.3991283339486
94.3776965767236
94.4117364681005
94.4707524519855
94.4825171090558
94.4927668048528
94.5218428228882
94.5440052466716
94.5331858321573
94.5256059720916
94.5599345740679
94.5545325785792
94.5727409286788
94.5788366640395
94.5336677892858
94.5397806625687
94.5618871922367
94.6382082052247
94.6968662838847
94.6963526587431
94.7346463058473
94.7887306594993
94.7686880385156
94.7498817074666
94.7463756027068
94.7620597977542
94.8080251662429
94.8211746401454
94.7836963176677
94.7437849631324
94.7975511445659
94.8713467367573
94.7923460259883
94.7755880832631
94.8569589888701
94.9122354322354
94.8937582224489
94.8681690844461
94.8758683183722
94.8710870767685
94.9255702867396
95.0035735422673
95.0128167272534
95.0398565928782
95.038025956193
94.96957107527
95.0065109552014
95.0779929451041
95.09117804237
95.083856100201
95.008687530829
94.9938025003211
95.0284237469123
95.0717858090458
95.0956737838341
95.0795411217611
95.076681181421
95.0878913942544
95.0965106427016
95.0728953207434
95.043778712305
95.0543026029012
95.110186167754
95.1373549006813
95.1218413127967
95.1901837661282
95.2218631065133
95.2192688366668
95.1393591342494
95.111010774297
95.159498180681
95.1468408523995
95.1785507657549
95.2643042682901
95.2538633257412
95.2052730948059
95.2356199992318
95.1785945177213
95.1619041797126
95.2394587243618
95.3243399672788
95.2915614457699
95.2437036687899
95.215324095198
95.2369991779272
95.287425597054
95.2754592877904
95.2724218816899
95.312245648909
95.3642897169167
95.3534178547558
95.302490976654
95.3200707558274
95.3221397986642
95.2831279400279
95.2840311216913
95.2735851684117
95.3350687246419
95.3382027579392
95.2827659134765
95.2493626644888
95.3031716691587
95.3222925694214
95.250283584138
95.193131769016
95.2412582259062
95.3061205418282
95.2803915115693
95.2186658455432
95.2025485772036
95.1614825788819
95.1420814943033
95.1702583846241
95.1722730635539
95.1509585525143
95.1309072752743
95.0706815304028
95.0121805919316
95.0264389809869
95.0987335314228
95.1297700446222
95.1164558938898
95.0702226538889
95.0491181083019
95.0769511590996
95.1415489537675
95.1942582555739
95.1837850618249
95.1383160487975
95.1004735461963
95.0999376039374
95.1405779731593
95.1437213560967
95.1529122864535
95.2024594792279
95.1203517572141
94.9760426344753
94.9807172921348
95.0545037410396
95.0331079561597
94.9394802039187
94.8974481742111
94.9112785814198
94.9567302641491
94.9681396162715
95.0340570194351
95.1448355209849
95.2520233232481
95.3243564978373
95.3347621794793
95.2719943657737
95.2763204207184
95.3246769326906
95.3496524687927
95.3676787106083
95.4204689361171
95.4991085708652
95.5546496241911
95.4903892193439
95.4504359322534
95.4696907136986
95.4653011805208
95.5066004139789
95.5620029253649
95.5491231448834
95.5428091258709
95.5365380876757
95.5212648718647
95.505629516265
95.5449735760809
95.6252904406843
95.670551529464
95.7010562879841
95.7091862932681
95.6970509931311
95.6807608452239
95.6478317328553
95.6282212572659
95.6284094558197
95.624081191435
95.630857336603
95.6643090305993
95.6694197957615
95.6754453815536
95.6445273322138
95.612385010246
95.666775526736
95.7194417017992
95.7113702120458
95.6561624812443
95.6143607497308
95.6427742805439
95.7242365219637
95.7375494693868
95.7601881908865
95.8178772602829
95.8224894869228
95.8043853556512
95.7864653533877
95.7877536048106
95.8122914253118
95.841360505005
95.9069226859103
95.939725652354
95.9519699554866
95.9315730614578
95.8741347586211
95.8576578410828
95.9593019220847
96.0569049847032
96.0186271462078
95.9909586572363
95.985232382259
95.988697687416
96.0327546477888
96.0805730020339
96.0946543890812
96.0702756526887
96.0638258444224
96.0659771129021
96.0607932276375
96.118952270411
96.1331967929719
96.1691087136434
96.1220681887247
96.0733294916903
96.1604083923327
96.1886920189552
96.18475101346
96.1729303296555
96.1995808286283
96.2530399852072
96.2143311411501
96.1624220140504
96.2581614878315
96.2593630236341
96.2290791978197
96.3206844897633
96.371262642924
96.3787319608718
96.3922114553746
96.3836965217532
96.3169064981738
96.2790738316967
96.3594385011252
96.3917760645451
96.3500437867478
96.3279370954196
96.309215076906
96.3802275040689
96.4671698105764
96.4800189452129
96.4694573226079
96.3715888147939
96.3352723258275
96.393205831186
96.4580703965085
96.3787454294348
96.3719234889237
96.4198119403778
96.3960963453958
96.3594939598831
96.3854791580207
96.4508071901115
96.4038377225158
96.4200748859463
96.452548052007
96.3453385658209
96.2017551204498
96.1525702985407
96.2247092023879
96.2824130899325
96.1936593173468
96.1612434320408
96.2382357652119
96.2836640922013
96.2728737181595
96.2651563319297
96.2088525953481
96.128042889655
96.0933399160636
96.1033725417608
96.1211933126105
96.1287819972212
96.0734225074002
96.0513698295518
96.1744868920852
96.2715962349015
96.2722151657188
96.2268306867715
96.1389269015651
96.1058047255442
96.0902239976159
96.0967103946539
96.1369489207004
96.1217940615036
96.1022756900073
96.1093693992564
96.1049229949505
96.0160339873833
95.9913032510247
96.1270885505986
96.1579947179784
96.0237583542916
95.9075788533381
95.8422198297392
95.8403571864829
95.7287043005365
95.6728536832928
95.6887846857668
95.6635395310962
95.7105583837044
95.7050159891624
95.6451087480068
95.6839488067851
95.711039767535
95.6346356683119
95.4295426695532
95.2816544993407
95.044590016102
94.7340234540205
94.5660069661035
94.3497677775542
94.1578512016314
94.2172397528038
94.3348577023071
94.4177509071406
94.6282799884704
94.8972626208634
95.1306189063182
95.2766941636652
95.4359232120578
95.639921269352
95.7563283671944
95.8401659792319
95.9950606929496
96.0735470534701
96.0287286353754
96.0729526844667
96.1101304416862
96.10537093795
96.1615257423675
96.2555477873652
96.2682216588563
96.3062388717554
96.2749077214311
96.2687288069492
96.2253032176133
96.1290626490369
96.1060541496703
96.0840876570995
96.0819934465637
96.1424906216155
96.2125373563402
96.2826018610432
96.3168116166309
96.2173155524903
96.1683132929715
96.1855694321909
96.1109846452363
96.0027625795907
95.9209360782133
95.8693279800664
95.9508978435358
96.1057108002571
96.1909244696476
96.2006715612179
96.1565989450896
96.0987470509662
96.1285381176393
96.1334054498337
96.1366650509804
96.1332835403994
96.0876218221548
96.1946011126791
96.2914321807045
96.1816490933945
96.1844769653909
96.2569315950647
96.2367174818136
96.3189856043539
96.4039177393917
96.3901953477474
96.4326518012642
96.447589904081
96.4085132884029
96.4455238163288
96.5300421500049
96.6347773084325
96.6826346796936
96.7009155686713
96.7582754056858
96.9086782195896
97.0458537620086
97.0740957567715
97.0892707730617
97.1446261641176
97.0040132428176
96.8116190166821
96.8849863981398
97.022018652362
97.1844798114849
97.298862498384
97.2303315938218
97.2013706638106
97.1793573842295
97.1712871844079
97.2644101476039
97.201361521083
97.2614820320976
97.3763810285282
97.4729864476833
97.6307173155322
97.6278508847029
97.601065670225
97.8181166021917
98.0359478454592
97.8785102000202
97.6200280544997
97.6760150133282
97.8448115193341
97.8335827944367
97.7472211185037
97.8192097892861
98.1846235547227
98.2019557452449
98.1225709896117
98.1811811531209
98.2591347511372
98.2387038631622
98.2187805197021
98.3575387462326
98.5876523850603
98.5361167051296
98.4865604509133
98.3816263191567
98.3286005654534
98.6733922957123
98.9690371428138
98.7181529319752
98.3193356843783
98.5349731314159
99.1505287898123
99.0023484535112
98.8408079499243
98.961861951066
99.178333962621
99.2809601035259
99.1940472553738
99.1019644608529
99.3898566805438
99.3547110131068
98.9295127988339
99.0090884822473
99.1347098717739
98.5970564846044
98.1121797346659
98.2455829203262
98.3268673028137
98.041499739186
97.9242593592382
98.0525030879792
98.2340489908963
98.0972419294926
97.7441349675021
97.5393798838272
97.5080604266908
97.4657975430048
97.5519668475585
97.5756665891066
97.3937255405384
97.2668544852047
97.3144298623214
97.2697317648409
97.2337562445817
97.1152924875884
96.978237824104
96.9709150942745
97.1123381344038
97.3308235790987
97.425398656102
97.2296828703057
97.0145379975208
97.1360106197503
97.3863366370347
97.4374468683305
97.3477651257034
97.1635440253662
97.2036954876565
97.2110264778221
97.1113289760057
97.2788055762543
97.4625224380413
97.3424388073588
97.2729351896095
97.3136126730485
97.3481170161693
97.1976441946799
97.2330194273825
97.1971714970205
97.2736246419456
97.452487056358
97.6698207717202
97.6918878706545
97.4916448539035
97.4495508351101
97.5716829474981
97.7059122336413
97.6203794963256
97.9910046452144
98.4032781349627
98.4597460139122
98.7077858809448
98.7292352665825
98.4453401823125
98.5751337409232
98.7250267224678
98.6151424185083
98.4991379734875
98.5459151548149
98.8343117783967
99.0381431852921
99.2414088418447
99.2029501284936
99.1323790887275
98.9111884369259
99.2380974132016
99.1532725111441
98.9566252470251
98.9110677630714
98.8373728957105
98.750857489702
98.6066475481897
98.8199938628131
98.8959124747378
98.3705766997818
98.1730629416712
98.5690534418977
98.7204178330833
98.5145023080399
98.2018628161222
98.084358655748
98.3117099422484
98.4913959779899
98.6209734902074
98.6548749363582
99.0237585604397
99.0799735916079
99.0425999666253
98.76621875343
98.6532824535661
98.76208223254
98.8385194358198
98.8104142917386
98.7224113391813
98.6534952937139
98.566711575986
98.2614357352019
98.0092004337308
98.0411486312056
98.110228390017
98.2309433212805
98.4284541024542
98.3581756109124
98.095250773892
97.9233580653368
97.9180101126693
98.008584854319
98.0146197673662
97.8602399405691
97.8941464960089
97.8297767285866
97.7785981272315
97.7871309107497
97.8398910401745
97.8993568450154
97.8467975355986
97.7142723267795
97.6235473387769
97.6495051925783
97.7517424743353
97.7542317444491
97.7514736746052
97.7062050087049
97.622186611778
97.5999807125415
97.6640489483256
97.6474774836651
97.6623923562431
97.6016483200691
97.5133292114619
97.5131610229087
97.635677843023
97.6345681035361
97.483706405818
97.5319083730863
97.674409946383
97.6623441127821
97.55955670282
97.4435322891507
97.4797415437358
97.6009250365471
97.5282894551729
97.3677352373499
97.3945161371459
97.5173199485145
97.5228714968675
97.5080740325057
97.548942776438
97.5171304082247
97.4611625512508
97.4426113960407
97.4623885591571
97.4669644606827
97.5786384110932
97.4920359251548
97.3673397259113
97.4318816579444
97.5429566966799
97.6033648704049
97.552507979692
97.578599567282
97.5737869760605
97.5092236988295
97.5309511152171
97.5387395247377
97.4744751127624
97.5029883716364
97.5361268556138
97.5637301084634
97.5429550097483
97.5365096671245
97.5775653443188
97.6047482581591
97.560722328591
97.5116341377728
97.5041280005663
97.5553913067625
97.588614444237
97.5623453334223
97.5223419172608
97.516313476893
97.5429468673796
97.5312107335219
97.5183002717465
97.5212711885248
97.4974351762318
97.5018021788342
97.5084481164361
97.4971083829551
97.4897800536442
97.5249392065882
97.5085754150491
97.4550496314857
97.4348108552904
97.454727494013
97.425841843882
97.3854354088831
97.4882175690542
97.4226712478151
96.8189451903994
95.2196958738815
93.6755302837412
94.0720961804637
95.2590513727964
96.0416311654651
96.5192699016198
96.7448188931785
96.899109911014
97.0149935432141
97.1154686568635
97.2097265100888
97.2339972473124
97.2346155561665
97.160711447576
97.1388271684238
97.209593362424
97.1751209455786
97.2126921605905
97.243496724669
97.2440868859435
97.2051728672802
97.1411116621111
97.0834586363196
97.0630342153285
96.9996435247809
96.9750619060363
97.0248389428077
97.0562617992326
97.0994526309154
97.0827453939233
96.9668305992391
96.7842601524785
96.730760995681
96.7569045519319
96.6482961967757
96.6402782499857
96.6355276982254
96.6777206205875
96.6285132658522
96.434326020825
96.2442727343949
96.0781816547533
95.9967252249279
95.9766311593182
96.0168890937336
95.8957868868356
95.7789708167007
95.5955671502576
95.4189506375296
95.3725867187031
95.3179458278351
95.2555172544855
95.2159064561471
95.1675910318288
95.032330435096
94.9099954007422
94.7726356684464
94.5961920890194
94.4519269241745
94.2928303222535
94.1402340867101
94.0305674174318
93.8406405088631
93.5291116677709
93.1096939536589
92.7237460872889
92.2845077530619
91.8688575221634
91.5879615554894
91.4885305560418
91.8755734524379
92.2205808336753
92.4304269441791
92.5697589196366
92.8007113556577
92.9985734575536
93.1482094991902
93.3078295617559
93.4222555108488
93.4784044933136
93.6686212496274
93.8046488747724
93.8886413650971
93.9912391760278
94.0753040040982
94.1505554310553
94.2301717858683
94.3073580213927
94.3762607999929
94.4203917537097
94.4785546436853
94.5719240004913
94.660746672515
94.7471449442561
94.8222123872973
94.8600606226599
94.9275895718063
95.0142240569087
95.0587424244285
95.1346224636375
95.1939806977285
95.270175849873
95.4474409480469
95.5610125606728
95.5818332488678
95.6429075325819
95.715539543185
95.7409487956095
95.7980416931438
95.8187845597146
95.8160548129817
96.0639902125995
96.2709229818438
96.3641580145957
96.4101708680249
96.380786576709
96.3867923768854
96.3800082793918
96.3950307650359
96.4349821671803
96.5015408917483
96.6229257681807
96.774544079382
96.7908769846668
96.7525675428472
96.6557651599107
96.637571274783
96.6498307918391
96.5837690560973
96.579636775986
96.5581112339724
96.5687437576673
96.5744886257807
96.5232446429878
96.4644930104075
96.3793832585711
96.30846236607
96.2236227600715
96.1404012041617
96.1345464036171
96.1240362482042
96.0595984710137
95.9473705782225
95.8263412697749
95.766803392145
95.7405662972746
95.6665686860594
95.5579938030708
95.4927847615541
95.4550486985308
95.4189921096223
95.3037848992467
95.1430225451406
95.026834041783
94.8935697792567
94.7493096689142
94.6252041372817
94.4831654534208
94.3250975980236
94.1619722325045
93.9649899832368
93.6593042331996
93.3784438100477
93.1758796378922
92.9939454550911
92.7197260028365
92.4359192651669
91.9848938729578
91.3058540330897
90.3777287489896
89.3148840019095
88.2793373464049
87.4129836559949
86.6321638836256
85.9205433755269
85.277819922141
84.5441123995412
83.5982957714379
82.7074357739582
82.3411203446248
82.6063706574336
82.6511406091982
82.1812320941192
81.4777765628805
80.7891897558511
80.0851811663993
79.2658730317994
78.4722996837165
77.6798652882548
76.8371894354249
75.9668322551308
75.1321550028915
74.3221048108643
73.484013469911
72.6297907284374
71.806298088097
70.9657989581554
70.134766351882
69.2982626222364
68.3379236103732
67.2589603540327
66.1220054915571
64.8684214044216
63.4750881925787
62.0193015038043
60.5807727198776
59.1989053626547
57.984621104258
56.9191680259254
56.1386117440261
55.7644550817553
55.6628731048999
55.6920212495389
55.8567299142505
56.0028651757374
56.1436922088525
56.4354768912821
56.7572353731576
56.984728751461
57.1647417911219
57.327387152162
57.5392481553053
57.7406320960945
57.9830443073102
58.2649809319312
58.5613148595476
58.8527519122164
59.1506186104893
59.5146935207599
59.9916308794347
60.4038096263149
60.7164090347528
61.0386794690025
61.4246987527255
61.7993912544413
62.212077565548
62.6142750639857
63.0451743616853
63.4519527057931
63.8824613691632
64.3552716279121
64.8121402046182
65.2341055285433
65.6632967756745
66.083337060527
66.5010173196376
66.8904583922099
67.2849923801497
67.6996706041102
68.0993400089308
68.4913734583423
68.9027101247555
69.2834068820568
69.6860536168347
70.0665589186714
70.4351458252626
70.833519268811
71.2496756394575
71.6384428507103
72.0036288227467
72.3241338510075
72.6613471136471
73.0099655711122
73.3381288137179
73.6332931177849
73.9633080647339
74.2750697019928
74.5800441085579
74.8692770127446
75.1407870646985
75.4179177099522
75.7260715032153
76.004500171118
76.2622762494635
76.5147234289759
76.7657512557722
76.98792308815
77.2275422206244
77.4777666318186
77.7108316987254
77.9363579537415
78.1488826502707
78.3499559120301
78.5804501513159
78.7875618230846
78.9851823783869
79.1594558887702
79.3288270648822
79.4989226633064
79.6629073553646
79.7790368741286
79.8591486209655
79.9266870541727
79.9792051392857
79.9730127781575
79.894168876886
79.741343913231
79.5381162160098
79.2451411263871
78.897390276956
78.5096331058215
78.0309694327542
77.5079418017689
76.9675654206477
76.4195453248538
75.9596778275187
75.6028355272769
75.3885418094217
75.3610439769974
75.5898457748417
76.0284910487113
76.568863150135
77.0789178804302
77.4940441296702
77.7815708128337
77.9272983321358
77.9109918154545
77.7856527463609
77.5225390680047
77.1630595309351
76.7358957823544
76.2516506187657
75.7096494269656
75.120678632581
74.530074316891
73.9747607041346
73.4074752498702
72.8459511834287
72.322398238775
71.8198447031555
71.2828891892242
70.7527335456491
70.2088130896646
69.6484976274457
69.0902281277722
68.6051654732252
68.2208040566215
67.9960413478997
67.9237497936493
67.9463382511115
67.9277844891181
67.7399154161336
67.328567267441
66.7681314439161
66.2872134836792
66.0647632132982
66.0872081151264
66.3069792451115
66.5725772543241
66.8404669847708
67.0623079371959
67.1995984087092
67.2293207236183
67.185947848664
67.1077617691837
66.9709971575263
66.7185664911649
66.426668159812
66.1677552026919
65.9703609747375
65.8202776260115
65.8367522329741
66.0333126478891
66.3686985005806
66.7993477994354
67.3178580902938
67.8716483341967
68.4776238764082
69.1232696761402
69.8236759292249
70.543814991765
71.2915142844168
72.0414982332407
72.7944952696868
73.5177795004902
74.1900206124725
74.8330660670538
75.4428718541656
76.0062556287456
76.5553915645118
77.0578142682229
77.5522218975866
77.9642059846563
78.1681554711297
78.4542797253364
79.0148344592087
79.5453853784807
80.0092903657439
80.448852527794
80.8434654750169
81.2056773608163
81.5497584590415
81.8690774040046
82.174862628182
82.4574112637679
82.7603876553025
83.0489882268581
83.3190391406909
83.5528706218889
83.7831624197304
83.9921438765583
84.202749953621
84.4178151952862
84.593817472675
84.7415333283817
84.8943818674707
85.0382360948758
85.1455965836178
85.1588802850608
85.1393755590122
85.2000271423611
85.3609140377356
85.5860177624523
85.7863899585204
85.9226790072112
86.0567243643567
86.2063041616974
86.3723320239298
86.4628121218165
86.454922824147
86.3922699601827
86.4493824754924
86.6700381107557
86.9190507130953
87.0947147590176
87.2326000092164
87.3717567207101
87.5091611138293
87.6446604606266
87.7591201773664
87.8312167220022
87.9151655663586
88.0287669124905
88.1345964599046
88.2118198599722
88.29580216031
88.3786754379703
88.4388327491757
88.5002091260999
88.5960371207403
88.6832743638319
88.7335229729867
88.7690920182669
88.8427992881825
88.9438799171134
88.9845643560256
89.0416821892597
89.1130336461624
89.1533053432371
89.2356793627797
89.3230692366918
89.4025634261036
89.4416845788648
89.4810680611037
89.5312750349779
89.5895999360079
89.613572081942
89.644309304863
89.680691647612
89.7495234935322
89.8243174807124
89.8506950319727
89.8837528521186
89.9495216796145
89.9983998420072
90.0605287857647
90.0943457352224
90.1242039222011
90.1430961674259
90.1780121370245
90.2381258716233
90.3053333713571
90.3185843568275
90.3375548820193
90.3579876388758
90.3693440188827
90.4281440868127
90.457808565293
90.4823347231773
90.4980894747827
90.484736867453
90.4999612130813
90.5136798024411
90.5114577336297
90.4955453824916
90.5103826139947
90.5299497796153
90.5363279318441
90.51757144047
90.5255634680514
90.5488939527328
90.5477493083693
90.5156379576657
90.4952933098536
90.444698450146
90.3627110799435
90.3198392027886
90.2517720292697
90.0547189192697
89.7834641078032
89.3816411618661
88.5022876412776
86.1101685879776
80.2731910385836
72.0148451555174
67.93359333109
71.7734306454124
78.5100240348353
83.2333919202191
85.7467889486363
87.0566525712053
87.6310997813466
87.829015961914
88.2069087320657
88.5976345228737
88.8020005176005
88.8989301596307
88.9378047439162
88.9408774175581
88.9958770250029
89.0271833633565
89.0063060553969
88.9158269236091
88.8559869545856
88.823491827151
88.7637477733056
88.7011341993463
88.6189927377838
88.4989877803625
88.3712923271617
88.2291013240725
88.1047218611954
87.9994522589702
87.82250520888
87.6297487537382
87.4272240338169
87.1647163900955
86.9893393548418
86.8000841226583
86.5282392573045
86.338671648088
86.2014044760821
86.0811247846817
86.0044922760193
85.9567866951039
85.9169957310663
85.9130328110585
85.9899729161592
86.0392616631224
86.1122104670408
86.2655738212713
86.352517529831
86.3996015579835
86.5058568648346
86.6112899022784
86.6790295140791
86.7280409218986
86.7875931140074
86.8496734827821
86.9023311447236
86.9459953918162
86.938668871112
86.8682482999761
86.7801372075262
86.7878082464136
86.8521914818979
86.8730135523416
86.9287422891183
86.9783771848727
87.0051589288647
86.980538058863
86.9457944720749
86.8692660050143
86.8051787565407
86.7597857582408
86.7594063054952
86.7484872462642
86.6920633819971
86.6067174247684
86.5666096402119
86.538734806793
86.4746442457571
86.3031729399569
86.1399328911016
86.0552289710115
85.8841997570689
85.5890760970069
85.2689838296208
84.9263690234705
84.8104079188843
84.5452473243989
83.8758558411081
82.5712813004577
80.6184261162174
78.8257251440564
78.4475324959066
79.6031147582887
81.162317081525
82.1229699400187
