1798
3999.43349933624
650.420452594757
1
128
4
95.425696660884
95.4191132146377
95.339346929694
95.3121845318268
95.2295886969908
95.2048935113353
95.2856955081057
95.3564685394652
95.2838908452719
95.3091392058661
95.3294196424755
95.3057543476028
95.2682813346522
95.3112530127834
95.4154827102211
95.5169039975841
95.5058320002511
95.4331232096309
95.3278462357102
95.3313511207256
95.2998957503847
95.2406158939669
95.2231286903692
95.2246745209926
95.3039006448666
95.3314976554526
95.2950341244152
95.3796021185234
95.4618126116101
95.4338061434271
95.3885054757736
95.4244003044191
95.4642501566174
95.4414230466342
95.4031592081755
95.5020589426557
95.5630567440604
95.4296883671663
95.3326807802906
95.3393987119822
95.3055603663972
95.2942509912179
95.2900778298136
95.3068890099131
95.3425268382538
95.4384209216898
95.4082459322325
95.3359136771368
95.3427254579142
95.3125155150062
95.1569940667869
95.0922829064819
95.1650409771985
95.2841212389879
95.4526660564506
95.5313982730214
95.4692970198145
95.3949192621135
95.3991939635206
95.3894906773999
95.4119147783876
95.4282131402562
95.326630742164
95.3441298279997
95.4365561240089
95.4467119520448
95.4650470474016
95.3680817379762
95.1138233794478
95.3348562906214
95.5119952944243
95.4919540340491
95.5234914192831
95.5347169393273
95.3816134943846
95.3357819839313
95.2869871297139
95.329578170637
95.4760130862538
95.5701590742326
95.5280045282406
95.4357819843518
95.2998048698242
95.2865347430428
95.3189950734762
95.3216930990139
95.4329318159218
95.5615817483299
95.5139877226171
95.4798837834749
95.4505833932682
95.4192265495442
95.4122889589519
95.4003360779292
95.2452406196469
95.2625071499522
95.288885908185
95.4267933732999
95.6721638503796
95.6930980638088
95.5623260834732
95.4300176441434
95.2900952184725
95.321101569753
95.3717975807779
95.3919954989346
95.4227620458411
95.4418383346295
95.5022783663318
95.5944928729515
95.5731015669763
95.6141252396976
95.5517346725761
95.4591946773695
95.4907329577032
95.5028758441621
95.4739005427945
95.5065782630335
95.5078919300323
95.4869032971019
95.5039929712751
95.4659115080129
95.4089455061545
95.4803668353831
95.5043256382127
95.5362095942218
95.4913743832616
95.4487721305062
95.4922800966593
95.4661446024578
95.2166451468475
95.1375820751616
95.1455822182098
95.2596479862736
95.5623293648384
95.5700604582474
95.4398102310443
95.5393571528571
95.5090202931083
95.4556891691681
95.4747557633951
95.4564011136368
95.3901240207608
95.4963151750525
95.6169351106776
95.6138869020826
95.4967362885474
95.3804925989818
95.4498549334838
95.5761602203936
95.7283227658103
95.7086274329772
95.510844316924
95.4139393988996
95.3868026368859
95.4742872899719
95.6182586627736
95.7287996983929
95.6926802620051
95.6357595815538
95.6369233644476
95.6443920898375
95.6005515310947
95.5317651944207
95.4179570641038
95.2172265998998
95.2275662393878
95.5792959787536
95.6507157936449
95.5684573829846
95.5205069230821
95.4950179880325
95.3505226565173
95.2607218033862
95.431219441214
95.4942603017228
95.5369908212933
95.7440189445039
95.7412998379723
95.5695552199368
95.5157889631197
95.524876986062
95.4095071096946
95.3287704603628
95.3619264716742
95.2972974592095
95.1148986648608
95.0438643264509
95.1068612683131
95.3281412050121
95.408521915843
95.3979747067383
95.2914982594955
95.1854995817237
95.1048330753416
95.1192423197957
95.0774699658692
94.8583457646301
94.7161093804679
94.8929555580577
94.996507158673
94.995496674645
94.9520388628476
94.7770172345399
94.7409378244355
94.7497922448499
94.5988183890318
94.6124210708669
94.662276433204
94.6629034072957
94.471111410565
94.4272416452693
94.4414108728136
94.4628959093219
94.406821516403
94.3392723098303
94.3261214549354
94.2582825733766
94.1113741749032
94.0286272887189
93.9540540608087
93.9469925312894
93.9853135113542
93.9673652359454
93.9199645416817
93.772889990571
93.7340568348481
93.8562002811162
93.7463739912309
93.6236779189492
93.4922789735801
93.3350671729967
93.3150501346072
93.33815652622
93.3169741620438
93.3786402155714
93.4079184970973
93.3435631538594
93.2542164872756
93.1271089769618
92.9787138664208
92.8472067879808
92.8617423975002
92.9380663385242
92.886192026817
92.9018250886307
92.8731598210679
92.7560380965292
92.6425377463902
92.6176038672469
92.5567004922052
92.525669156205
92.4681185238584
92.3067137773508
92.2034450484116
92.2820377148713
92.2165635906293
92.09784169584
92.1500664529201
92.2530699104891
92.1819053988928
92.1611746007874
92.1231405306667
92.0724568906296
91.9392654199877
91.8831901862283
91.8906716531839
91.8457092785179
91.6815306914257
91.6483020311321
91.6618856574025
91.6395950973331
91.5521572160131
91.3798796019472
91.3636772681678
91.3811992543145
91.3019304668071
91.3371972052855
91.1790308504365
91.0087129147205
91.0499112062579
91.0649064183601
90.9409223291489
90.8323667820237
90.7951162141754
90.6817065955715
90.5138356422373
90.4217660737147
90.3674607807268
90.380456947755
90.3213880424305
90.1921948375527
90.1341573346573
90.1346144465302
90.000863169025
89.8365491175588
89.7035965119701
89.6698784739254
89.5574954714257
89.4493405411886
89.3193714598598
89.1697627043208
89.0956900527939
89.0206223492607
88.9440491604911
88.9783973299408
88.8126887259217
88.5461566431815
88.4298388121915
88.3701894076566
88.2383581178279
88.1582350685286
88.0696657857861
87.9885117744823
87.8293895415679
87.7694773796415
87.734467158748
87.5890090382328
87.4459303251499
87.4334208375263
87.3045157144996
87.1804423782725
87.0333237182501
86.9973103332488
86.9849086549767
86.896527514377
86.7346221418043
86.7671031705227
86.8127930518579
86.7689297517792
86.6869276807966
86.5660216980918
86.5473613205633
86.6903718458794
86.7130602272519
86.6296223134301
86.5693928281839
86.5421644117463
86.534312363447
86.7094993584038
86.7777699777426
86.7110722092919
86.721438569216
86.8450142642552
86.9026427447238
86.8273486330235
86.7981238568448
86.8469489175852
86.8295061737463
86.8527451059809
86.8494531602946
86.8406092834375
86.8217195676986
86.8537996340942
86.9289717023699
86.9261581286564
86.90523953239
86.934166352835
87.0513783437625
87.144451723888
87.0934365672464
87.1059536298661
87.0587136082874
87.0295863253814
87.072990351688
87.1229661959815
87.0827865002757
87.0839133576754
87.1252461832082
87.1837658503695
87.0821822627057
87.0896376272763
87.1958276758255
87.3544523016545
87.3851599665243
87.3293342260695
87.2823179255437
87.3610591412426
87.3635780261266
87.4102173205414
87.5269906300081
87.590819826493
87.5798119998603
87.695297034091
87.7881112038585
87.8344340300218
87.9010478711202
87.9165003582667
87.9192242063583
88.0870113184631
88.1199597052313
88.1456952728481
88.2081688686579
88.2020177560298
88.2385947953132
88.2952783420446
88.2324856740295
88.2342487255039
88.2530269486593
88.2871872211081
88.3542417456351
88.4137720789841
88.3393697649778
88.3174855849295
88.352732146661
88.4402507580619
88.4777597196889
88.5861396644788
88.6980268358775
88.6416358811597
88.620468689082
88.739050119866
88.8113522795288
88.8616871557168
88.822351699609
88.8848907028151
88.9932455897883
89.0897227170413
89.2501937350122
89.394995070129
89.3840083567112
89.3518617350986
89.4674890898735
89.6086447376299
89.6980462765809
89.8368865966439
89.8519053626832
89.7733335240729
89.7131224169146
89.7841908600925
89.8904564119575
89.9928545016491
90.1293322406605
90.2035492470957
90.2000453249727
90.2508439242519
90.3499765820301
90.3975669625976
90.404083283796
90.5140489380028
90.5909312489244
90.5938252597791
90.664633311921
90.7523992812933
90.7796607526076
90.8485584139422
90.9369978216383
90.9367758284959
90.9787219704449
91.0824487561415
91.1097184798092
91.0330159767513
91.0690919409951
91.2787593330083
91.315829163338
91.3208717850271
91.3108873102655
91.3648201938479
91.49122058317
91.5610417379231
91.5748852933742
91.6444346675502
91.7064190426302
91.6979900850789
91.7216988424391
91.8246704107847
91.9449395363668
91.9530390027649
91.8829009224097
91.971940403832
91.9947657818959
92.0685711691213
92.1674900741522
92.1346220473297
92.1628051585311
92.1531655637715
92.143007214191
92.285107168811
92.3426861504441
92.3932773461748
92.4706522261516
92.4533085510244
92.4169130018591
92.4095196545266
92.4914041299304
92.6260635568747
92.6151388146547
92.6449732426653
92.683669295681
92.6543105787815
92.6718279779891
92.745670540113
92.7923965567655
92.8441105380495
92.8764276301065
92.8859592841557
92.8975867335537
92.9669166099476
92.9670049289373
93.0055918067268
93.0266206049977
93.0587712596643
93.1048213988807
93.1331591457262
93.165791920526
93.1708455398626
93.1727544197276
93.231734844228
93.2915717793116
93.2897397812155
93.349216541271
93.4262083408978
93.4369377810293
93.4376605277608
93.4326044087258
93.4459776927429
93.4370932969693
93.418842736712
93.4420112450621
93.487472414174
93.5439271968732
93.5875662426839
93.6126867974522
93.6896404851568
93.7126029537953
93.7070905125561
93.6789232774844
93.6464602422124
93.6831601448796
93.7953884971376
93.7665382867835
93.7076781239274
93.7486813061714
93.8039367210123
93.8273750989843
93.8220778448061
93.7982834682294
93.8730040124056
93.9189193617504
93.9188200663498
93.9637726452056
94.0191513185099
93.9916584796087
93.9435692580583
93.9635362315715
94.0549455884604
94.1121106143004
94.1400765104057
94.114628094288
94.0445375385426
94.0472304932848
94.0966953335797
94.1258885632022
94.1628823922502
94.1484064618093
94.1396207404345
94.1725817185261
94.1759196551837
94.1950363865069
94.2724584327746
94.2884614789234
94.2918091645233
94.3091130621983
94.2896918809817
94.3144461294707
94.3610779832531
94.3700011696103
94.3821789206762
94.4045077598898
94.3934903351566
94.3638906080653
94.3580415588059
94.3583967558938
94.3750479406907
94.4212715297726
94.490624469807
94.4941636629441
94.4956039963951
94.5253379289828
94.5860467983243
94.5664693330797
94.5990760777391
94.6764822062112
94.6190082242149
94.569142121543
94.5972791388494
94.6162902088371
94.6355737140103
94.6497260639421
94.6638444686237
94.6629597701866
94.6589900670664
94.6811112350026
94.6831387637501
94.6828979260625
94.7048708410719
94.6935291014083
94.6643761746617
94.6530378000557
94.6638980655609
94.696485969295
94.6794148683899
94.6686392151416
94.704947808689
94.7919880315092
94.8007488808528
94.7711708792898
94.7900753907063
94.777373958278
94.7880223392385
94.7698985338501
94.7612256197074
94.8021544755481
94.8725552195877
94.8707518963531
94.8407732160921
94.8254218546787
94.8660214094982
94.8826138345024
94.8923387949358
94.8631602635517
94.854668490517
94.8843628012525
94.9501335839227
95.0001043816064
94.9745208449045
94.9056837668933
94.8967822892229
94.9370045982256
94.9703619051444
94.9672741699616
94.9336274499758
94.9099244016108
94.9127534750966
94.9051448947119
94.9072931966464
94.9064556991273
94.9062514495231
94.9356635346388
94.9233166604871
94.8862976500886
94.8581324896794
94.784383812489
94.7291477469957
94.7909868694536
94.8759992140911
94.8731741782078
94.8070190331569
94.7706797693027
94.8147440329537
94.8177488750535
94.7342622823947
94.6555103650352
94.6261871288052
94.6189697412866
94.5848562022005
94.6335331342559
94.6970873316082
94.7119741771452
94.7283997539458
94.7175185045906
94.6824743562322
94.6544122599402
94.6949901272536
94.7490188288918
94.7273144682708
94.7444869034812
94.7605790794273
94.6868683864498
94.652534606478
94.6711030715385
94.6950744551325
94.724226190663
94.7075669873389
94.6909505713904
94.6164093710597
94.5305330123489
94.4822073189256
94.498105253655
94.525297341521
94.5077396810562
94.4872474838737
94.5088643243092
94.6120459603126
94.698626346312
94.7837713437184
94.8786260690041
94.9235012044727
94.9318722555442
94.9275633860655
94.9416712007859
94.964450850222
95.0077809611954
95.0590186053438
95.0775561817851
95.1221884785892
95.1438639311731
95.1338004969495
95.1481460987553
95.1639865895771
95.1668104514158
95.2000359473597
95.218817095609
95.2014152428171
95.1791107585359
95.2027346097897
95.2176787159803
95.2306196608371
95.3034716438889
95.4040394761363
95.39042660416
95.3767126092983
95.395620996982
95.3995439056284
95.3721619707662
95.3218827758643
95.3012499365861
95.303974019522
95.2919684506475
95.2682745838928
95.2680032278556
95.2855497280969
95.3067273434548
95.3064785000111
95.2670097333986
95.2710856329486
95.2946645898184
95.2854013599277
95.3124830054167
95.3465668704357
95.3444778982003
95.3391550748846
95.3621951019775
95.4020604959576
95.4571802688795
95.4630590142729
95.4742422874869
95.491586995974
95.4959571370801
95.5030916528819
95.5376811506846
95.5794026429126
95.5803236586812
95.4930710430142
95.5028388833753
95.5975793626886
95.6409018513948
95.6374351801575
95.715298927681
95.823626451568
95.7473582568878
95.6958182493551
95.7224246306195
95.7459639939276
95.7649138299033
95.7805913805598
95.8235186558007
95.7851745674496
95.7308547038515
95.7690336194132
95.8377360513455
95.8658894093764
95.8330449869037
95.7686030595644
95.7477063879597
95.7946375196703
95.9151530697789
96.0256560328121
96.0543998667599
96.0426712436176
96.0268026702436
96.0078213596061
96.0041079706555
95.9990046361189
95.985827883658
95.9936304990044
96.0872172317945
96.1260049278979
96.0845915580791
96.0605222630215
96.0903494483644
96.0665739870323
96.0220981439629
96.0280464907864
96.0996991223186
96.1549357045166
96.1633343037787
96.1340030674246
96.0603285881555
96.0561077462284
96.0857445830122
96.0925837716844
96.0795665359209
96.0940711075083
96.1367540204128
96.1350548517275
96.1278065910109
96.182371134153
96.2134418956693
96.1644482688414
96.1922002297687
96.1355290269154
96.1054940519406
96.0902833897423
96.0149836347303
95.9998851126384
96.0627008013915
96.0653712253549
95.9417826486621
95.8546110956354
95.8826878335093
95.8941979904392
95.9063129954132
95.9569080554638
95.9169648884991
95.8316979987859
95.8620000014913
95.8356531450498
95.7860327597749
95.7670648197452
95.7721077563786
95.8058883002465
95.7983097300842
95.8065729099529
95.9065596235909
95.8678411893654
95.8486463673795
95.8191613584087
95.7794942341302
95.8336535569008
95.9543915462734
95.8847107475529
95.7844203902023
95.7943819834121
95.8096231578096
95.7649546350383
95.8246529539053
95.8802089163778
95.7874118772299
95.7111536461329
95.6920487523441
95.6659406935225
95.6323417499915
95.4788800111433
95.283468870844
95.2050969980528
95.291319925942
95.3678688389149
95.4050140768468
95.3525556419841
95.3052654321722
95.3348442615485
95.3340347041756
95.2088980488057
95.1457267241442
95.118957317408
94.9748703158375
94.7075281442276
94.3647878800452
93.9065693904929
93.5522084549185
93.496032662269
93.5754187135063
93.6683306051233
93.9134411318417
94.1993541723418
94.4616967395904
94.6896140161889
94.9072988380871
95.1250172130771
95.2643124774076
95.4261808367004
95.6287792259056
95.7246128728544
95.7955169330622
95.8677256977069
96.0003068122746
96.1279000178981
96.1284561381682
96.2402136882059
96.26749892995
96.2243565926513
96.2791517827542
96.1865726806076
96.1456065923593
96.10052413849
95.9820012505922
95.914174183323
95.9126023275208
95.9661175154154
96.0652970062267
96.0553254497944
96.0794699885947
96.142799592661
96.1309307630596
96.0665329917009
96.1146591269397
96.0658688939102
95.8703153248586
95.6647759239916
95.6890704287794
95.8166322517292
95.8603757078127
95.8480533944682
95.8660179797175
95.9377847548607
95.9311122349822
95.926571381968
95.9357170722249
95.9674392204871
95.9675470529102
95.9546920109578
95.9871821463682
95.9631489110171
95.9267307640715
95.9099383735107
95.9308569400676
95.9026393129807
95.9071077279159
95.8936961072164
95.9644601080946
96.0801012139537
96.1797615407353
96.1940778501693
96.2208892683185
96.2829398041321
96.4452925287182
96.5007380642696
96.3279659381451
96.2680341070172
96.4237833175053
96.6478642794571
96.7393816573019
96.8179139796256
96.8894881208908
96.8014944811847
96.7700550167222
96.8418018207905
97.0323980739612
97.234386574086
97.2353278178982
97.0366572332376
97.025474595123
97.1140744118946
97.416205464025
97.4396768880334
97.2411968100803
97.2866490713856
97.4944762539545
97.5791486871774
97.4099287481075
97.4105258120204
97.6106744834907
97.3235753296659
97.3368326087242
97.702623290473
97.9644990805648
97.8993306660323
97.8296634524963
97.8873917490258
97.8454571583286
97.8969024998184
98.122004033528
98.17764116254
98.1439705066469
97.9431761727446
97.8548133311723
98.1623164426547
98.2201550914367
98.0202491256776
98.1885910613492
98.4403616330167
98.6292803398316
98.7349532454905
98.6742732933182
98.411435651738
98.5338366414689
98.4808194466999
98.5302509096934
98.7528374243827
98.798308419354
98.8019494174827
98.9130133005953
99.0295016270361
98.7553289580912
98.8111851863237
99.2936588554455
99.4092657674618
99.5230045284371
99.2667848768939
99.211058602286
99.0446778184379
98.7464688478361
98.6487774738401
98.6620254746964
98.6429772493458
98.4201859561878
98.3024388619148
98.2079424938523
97.8420537981111
97.9118140685237
98.1765507580431
98.0458786958292
97.7105673840697
97.5605735182369
97.453512714518
97.2184056265262
97.0382334198903
97.1780791557858
97.2532679039708
97.1813487457592
97.0955545260766
97.0108703462264
96.9430825000721
97.0708831433671
97.0713132065622
97.0314148712531
97.0381310444454
97.0120198406528
96.9805220372276
97.0289438922745
97.0761254512139
96.9823164992488
97.0410999193196
97.1965657709376
97.1337284297124
97.0043565424882
96.8652551833578
96.8800193328574
96.9193393837328
96.9084502412853
96.9734124950638
97.0131011677664
97.0662381127773
97.1140873389367
97.0621955630345
97.2209304584221
97.2381665941184
97.1287721030046
97.1005036885646
97.2506334346311
97.3533967161432
97.5320776604049
97.6426049997699
97.64874796304
97.5597146108945
97.4319934483409
97.5555923473601
98.0622692386049
98.4343186961987
98.6005928133669
98.4716333053386
98.5194545102946
98.8369992431041
99.0651395242888
99.2303374643947
99.1230537471921
98.7705720061675
98.6477048155962
98.6353191142245
98.7017007869876
98.5543013721642
98.5424878989893
98.5561115720434
98.9348662491946
99.0999425511819
98.9141398522846
99.1142457806146
99.2833399827868
99.10721845906
99.0777130526438
98.8613007844358
98.7491918999751
98.465870703616
98.3176719075682
98.3083215022547
98.4651515055639
98.4561980164444
98.527757723275
98.520864320384
98.5713491131443
98.567652858919
98.6421874819009
98.6012462780631
98.6762541578002
98.6655108911282
98.7175143993269
98.9045854616171
99.084262604432
98.867711670338
98.6290035248859
98.6627990719603
98.6949297738411
98.6168222734712
98.5767634943631
98.5211584737922
98.2458185833639
98.1474702170949
98.5024365203196
98.3725224186863
98.195975620156
98.2439179130297
98.1314984885064
97.8578534599973
97.8877789214768
97.9689324551077
97.8308607691486
97.827811283927
98.0620341384073
97.941670160557
97.7013604478149
97.6236958182072
97.7548929807782
97.8628797797706
97.7435801121399
97.6184350188592
97.5335845425254
97.6296873954023
97.5781766597722
97.4737852516657
97.5599078022674
97.5769310221762
97.5620350415287
97.5211571620477
97.540584534184
97.4859849739013
97.4802036283868
97.5588025761813
97.5642135765995
97.5220495866498
97.4941010074238
97.4276705934565
97.4643186913313
97.5125466525055
97.5470040665325
97.4452461863084
97.3548090741428
97.2853449801727
97.3117279123364
97.3589571252284
97.3856910877657
97.3960584159941
97.3718691642566
97.3496314020391
97.4063332348607
97.4304672805725
97.4605228625052
97.4296707320988
97.4107447020643
97.3829303676132
97.3918886294559
97.4679901374064
97.5198553678646
97.4424663994046
97.3741130821438
97.2935820037886
97.3351677627787
97.498001572284
97.4796532534442
97.4507902040782
97.3937950254171
97.3838753455395
97.3702388321629
97.2706956758062
97.3079815181416
97.416218470875
97.3438681233752
97.4525850699156
97.4832118742039
97.4337998762898
97.4804298552978
97.5421628266817
97.4989400625321
97.3868877394887
97.4017205967918
97.4663249161127
97.4621420408435
97.3962429822821
97.3649404707438
97.3480787175009
97.3808665164041
97.4019189531772
97.3715749441291
97.3200309109069
97.3411744552624
97.4358491933896
97.4320474198587
97.3773927251348
97.3759369731869
97.3653321545487
97.2938045652345
97.3524792636141
97.3404616496448
97.2773900625103
97.172769797913
97.2497082995392
97.3457583592573
97.1072003160915
96.3743673271928
94.4700877652056
92.7540689878316
93.47097701156
94.8652046027059
95.6941856711007
96.3681642790252
96.5572534188948
96.6813741649687
96.8241946700238
96.9139867984294
96.9695158646819
96.9749619691605
96.9631026133791
96.9226214008575
97.067839911069
97.0010939344651
96.8064402056229
97.041373362592
96.993310618574
97.0444165333122
97.0558253691218
96.9572916343289
96.8863883112633
96.8625424065086
96.7038669850171
96.6919427042337
96.7910290974025
96.8245283278823
96.8686159840059
96.7671557680154
96.680792576774
96.5432494870512
96.4750455193884
96.3629380882808
96.1363586659676
96.5151507015426
96.3823857757249
96.3538162314074
96.4383779894523
96.1134880989476
95.8988884175026
95.7753937121411
95.5363194974282
95.4547729695984
95.7293960254144
95.5086227562987
95.3942090796489
95.1177812229817
95.005969355021
95.0086971068678
94.8058670177914
94.7667611376896
94.8225406212637
94.6771475791837
94.4826080639162
94.4620662385791
94.4035281088959
94.2061019440581
93.9663582036246
93.5826378292275
93.6139378399181
93.6104919078334
93.1188177478079
92.7581505580218
92.5510341111984
92.1243292023187
91.640796348037
91.2453237488172
90.8674331760845
90.7856154311378
91.3738039076546
91.6924278555867
91.8506727113479
92.009708505338
92.2858817903091
92.3827085961025
92.5698892077049
92.8118883024036
92.8035302567543
92.8469944764438
93.2358755246835
93.3893556872344
93.442420185832
93.4869181777528
93.5486865613759
93.6630319201571
93.767293213999
93.8744225028851
93.9555106861153
94.0173965915498
94.0688387386305
94.1780664411925
94.2835091763478
94.3437038905461
94.4170728405682
94.5186598578144
94.5827808513122
94.6391588315983
94.6797791167034
94.7658694704261
94.693864414519
94.7645699077775
95.1712739079561
95.2140177924187
95.1220819269078
95.3277497747217
95.4165807984658
95.3700300832042
95.4983163746082
95.3136507092655
95.1590319154065
95.8226095517043
95.9281183413234
96.0072144201068
96.075025059249
95.9538366519683
96.0488477046507
95.9539063764095
95.9449707285143
96.0152539388907
96.0380879868559
96.3494955184459
96.5357066399214
96.3496363517562
96.3124913380576
96.3627059636619
96.2594608367609
96.1666187561956
96.1658592685356
96.17905243677
96.0099341917855
96.1973292265136
96.1457672518186
96.0117763408656
96.0337947634747
95.8547365878417
95.7342164236909
95.527736187921
95.4047955051944
95.7487613941705
95.7375491687648
95.5232262364487
95.3863751277588
95.2580801980679
95.2275523537005
95.2502976760602
95.0856951754839
94.9300568453177
94.8868557698463
94.837352047477
94.8327765939103
94.7041439841851
94.5494872748242
94.4163834664209
94.2009478048954
94.0307747063549
93.8130179863854
93.7377179464657
93.737901744351
93.5318965977828
93.2405536361786
92.9886914651772
92.8452401971801
92.5304987723218
92.1698425032481
91.8773564365605
91.7718496016655
91.2074843333025
90.3872419495675
89.3131129768872
88.1728537813428
87.0489886056388
86.0697588507797
85.1953987466626
84.4098890663076
83.5975840230878
82.7762664365268
81.7773892534249
80.7596773040936
80.4065145205957
80.7582741218637
80.7656863162659
80.2200334444087
79.5905924773537
78.8573568008404
78.0296523125535
77.2359725282419
76.4030418846473
75.5789751993888
74.7290457218848
73.8735688127106
73.0043345677552
72.110624893069
71.2204075581921
70.3344554664564
69.4188077492487
68.5218368339868
67.6352399939701
66.6908033761603
65.6642044922843
64.4711561071777
63.1904466723314
61.786545739121
60.2233941133763
58.5679380314763
56.9562327908219
55.3731388104266
53.8945814650389
52.6148638240314
51.6676067147745
51.1926219990308
50.9847799475723
50.9356886762733
51.0800134607576
51.2250476960692
51.3362161758215
51.6335893343362
51.967498352524
52.1741674107024
52.3516109107273
52.5590103631669
52.7943831468524
53.0256957366007
53.3162806104513
53.6081668077873
53.9027114223232
54.2092149898171
54.4726390925616
54.8274781110355
55.3539282805806
55.7742089157677
56.0865402050612
56.4216482985928
56.8314818481378
57.2138677294958
57.6032194452792
58.0387809705633
58.4850306799414
58.8959891968094
59.3612898129271
59.8448951924144
60.2892471246806
60.7340723035998
61.2210906092717
61.6715770375511
62.1112154700971
62.5462736586201
62.9826140822673
63.4165134660366
63.8568756356472
64.2807177682225
64.7052005139342
65.1556979856421
65.6091788861769
66.0087888478773
66.4503666109422
66.9069936793632
67.3281150453806
67.7490651653367
68.1511636446565
68.5287122357704
68.9362694321684
69.3120550844985
69.6522406720241
70.0084129773656
70.3900352498029
70.7445286674144
71.0924621563925
71.4497690770862
71.7986236450745
72.1143604008524
72.4269570578338
72.741568428924
73.0533223859288
73.3639447060887
73.6517265886153
73.9215453726983
74.1943374944532
74.4588533824522
74.7376785660778
74.9981342652833
75.2569618068272
75.5088197284832
75.7489877273818
75.979409607588
76.1888233821831
76.393507346811
76.5992844070474
76.767500431541
76.9285546898477
77.084020485781
77.1984836300327
77.2630049260091
77.2794018246442
77.230499381938
77.1255924188477
76.9413248181395
76.7013016850773
76.3632598680065
75.9329905892268
75.4110777102083
74.8306448722899
74.1944279868594
73.5497088552096
72.9204953119004
72.3449680403794
71.9103458498363
71.6722456562716
71.6899140013621
71.9956080531875
72.5426570470377
73.2187836173302
73.8502303056008
74.3729571139779
74.7425016466276
74.9297730169171
74.9335904959407
74.7955639443361
74.5105314251635
74.1146430718772
73.622968845002
73.0574201773846
72.4222363024744
71.7705482556935
71.1288280388967
70.4702761358845
69.8112522485529
69.1788471603667
68.5690354236922
67.9686711791972
67.3380128666549
66.7265873669834
66.1127287432803
65.4775027662766
64.8455936378441
64.2993288697535
63.8533180127519
63.5677203629146
63.4937752573775
63.5340199757419
63.4694328633986
63.206958473081
62.718566418166
62.0790506064116
61.5250202848191
61.2916529627045
61.3652747536879
61.6348788229849
61.9662157463355
62.285864335895
62.5374530484515
62.7010117916633
62.7455462248327
62.6970455976601
62.5556933660363
62.31726488726
61.9971065062746
61.6397616763984
61.2867277123343
60.9753795172825
60.7665749403348
60.7702570232145
60.954895383262
61.2909152543281
61.7538982086057
62.3457373823547
62.991252489872
63.6781334391459
64.4035920826575
65.1871571493689
65.993739518421
66.837530158674
67.6908965651473
68.5476875142391
69.4119247941238
70.2437965460175
71.0243551612858
71.7293318084385
72.3951800566673
73.0558769965632
73.7104220339547
74.3298066915387
74.8024504341691
75.0934831199786
75.4864688812264
76.1443979580066
76.7917487835836
77.3445358811207
77.8635304828697
78.3585616222928
78.8059845119661
79.2334214966878
79.6236655721789
80.012761667347
80.3744639857881
80.7200180391837
81.0196288427217
81.3431428553081
81.6590418855976
81.941759632021
82.2092080121104
82.476764740699
82.7144209518
82.9151643870378
83.1139423702879
83.3287690646529
83.461887145557
83.5390314405654
83.5817034598459
83.599182637935
83.6693564298427
83.8845861465546
84.1448347976402
84.3616791991973
84.5437581809602
84.7086111456757
84.846656445764
85.0099465657488
85.1521394915581
85.1696491580306
85.0683211901647
85.1341335638436
85.3922065405328
85.6591477366998
85.8937736822421
86.0922104581393
86.2625806471698
86.4455578161758
86.5892793616109
86.698692960837
86.8246146967708
86.9458252732515
87.0483222636761
87.1302168133073
87.2211910137583
87.3086536749235
87.4082477465554
87.5172709031431
87.6160400668645
87.6810568079082
87.7410130298262
87.8301369920958
87.9132907448343
87.9949223327746
88.0410356454911
88.1081392205918
88.1826009339403
88.2740211726064
88.3428581849314
88.4015013427505
88.467536611994
88.5503727886617
88.6329265922505
88.6991335391206
88.7658077465048
88.8437638690473
88.8953690066783
88.91345620786
88.9355800383907
88.9966095711441
89.0405997855672
89.0859896960197
89.1565432822447
89.2090345585918
89.2744574727269
89.3456693278081
89.3667425277983
89.4153815559252
89.4447247105149
89.4677707769126
89.5329690384428
89.631516327893
89.6381547608984
89.644159925916
89.6888059264569
89.7123466710029
89.7265287398756
89.7144581840772
89.7207397131995
89.7557161849203
89.777149227383
89.7997214751009
89.8031698456823
89.7905542353655
89.7651147174814
89.7865207941121
89.8289314707034
89.8410525112031
89.8040416066239
89.7628946326811
89.7766958358193
89.8256311544634
89.792396579538
89.7340110730769
89.6930414491805
89.6121466942393
89.5056574278115
89.3690556724318
89.1639180413076
88.8126338885937
88.2662376321912
87.2243063017636
84.4032630271764
77.784280461848
68.7090367227996
64.3248332027663
68.7551291312483
76.4110041841593
81.7644145862341
84.5923626871721
86.0373349658179
86.6206947823437
86.8302230808115
87.2770111470999
87.719585093812
87.9243792084
87.9922826358406
88.0555377850044
88.0938595643211
88.1043011384718
88.0698763695904
88.0338556110049
87.9795021847399
87.9045240011054
87.802895685089
87.7378123086316
87.6596616851031
87.5507871110519
87.4200859308209
87.2856388914614
87.1366353337829
86.9302130128309
86.7150343928936
86.5703573184137
86.3627849075062
86.0656177982485
85.8485442047977
85.5932188920282
85.291659875449
85.0149514253672
84.7663936294506
84.6290979730411
84.4848695211803
84.3462748050423
84.3056556768275
84.335864449214
84.3421316191935
84.3683674434938
84.4663067894509
84.61105282103
84.7304428673396
84.8649971372571
84.9692506084292
85.0948232587422
85.2155582719259
85.363553353066
85.4577945741684
85.5113047464636
85.5846596992641
85.6609937812535
85.7132139230295
85.7544932377469
85.682044904724
85.5270617517196
85.5561298288299
85.6854073243301
85.7837642437462
85.8357959230946
85.8228012610164
85.8187199964984
85.7992915586387
85.8000068786306
85.7828854661156
85.762344308264
85.6884835968598
85.6434130761473
85.6742244754625
85.6969600023631
85.6451634711268
85.5752732734331
85.5116527296489
85.4270552789549
85.2684449155279
85.1193322785356
84.9383544973223
84.7266297002964
84.4882740330707
84.2402614422345
83.9654600292401
83.9421543968332
83.3896046330419
82.3605860892117
80.7510619155534
78.4662074440323
76.4150208248312
76.0074188684855
77.4446353836701
79.3348803314126
80.4815623752952
