1798
3999.43349933624
650.420452594757
1
128
4
103.899297333671
103.884550142747
103.926807592704
103.832994899241
103.841757504345
103.799321255998
103.753881226188
103.893628827093
104.019839621019
103.807929250158
103.661941730746
103.655714067634
103.692842777847
103.745139337063
103.9111174366
103.839265934946
103.759393581182
103.7786189144
103.764938065334
103.715426778246
103.734479870024
103.835349717197
103.845336508635
103.75727006518
103.62283794807
103.51317232559
103.779798717476
103.894436696143
103.743000906756
103.587578792705
103.649964271287
103.715845704018
103.808965427315
103.797584162061
103.600520260839
103.423381754764
103.583461424813
103.625485002628
103.571350054937
103.595665063176
103.794789476598
103.700323277565
103.529027468224
103.444631593917
103.472561034969
103.558882619847
103.621004646885
103.53396932825
103.550733664431
103.50490036974
103.357575680553
103.243844525758
103.403648960001
103.500267264764
103.658562567218
103.627646149425
103.372734712825
103.212848331702
103.431554723129
103.347066556096
103.117602152863
103.384131936043
103.600260013385
103.421293349723
103.531387528853
103.543527898843
103.40917201525
103.317709587746
103.220564590266
103.230425659123
103.54269539785
103.410936418809
103.529085784347
103.438525789522
103.492921432104
103.481802268276
103.155355249374
102.752872797829
103.268104905021
103.865379206202
103.795282672465
103.405475084714
103.140340186304
103.002033473654
103.092133874672
103.138515028389
103.209498956697
103.432661569944
103.499174004963
103.373772404781
103.530471490231
103.37424862549
103.244504525679
103.321025126597
103.049240979992
103.015736547704
103.598707812819
103.231041856072
103.153190907848
103.589324073046
103.414849373513
103.130574725578
102.990691040833
103.1959811715
103.361890606674
103.026505420899
103.091407037472
103.236506383511
103.310523137359
103.432452253815
103.344067208065
103.208632026105
103.240217475718
103.175798310158
103.134744002602
103.304829604951
103.479793260427
103.203508406988
103.252258816651
103.412503683951
103.393003859021
103.268893422719
103.094207278997
103.092375684696
103.214266893192
103.344378523411
103.496515558854
103.171837587636
102.954472900986
103.06791726261
103.306744127842
102.991639732151
102.651658792977
102.844339245301
103.327091683128
103.033282148725
102.597662127675
103.161377273806
103.322123305551
103.098895312736
102.821192881443
102.782366130106
102.921193608646
103.171205673345
103.438187943155
103.180463832538
103.082311042982
103.117242936975
103.010485078141
103.061386059932
103.170880541721
103.145810748214
103.183140725965
102.969658341292
103.013586627854
103.207563378944
103.385372667426
103.209426112465
102.92188885316
102.961416495292
103.148983858042
103.127473325817
103.193427648758
103.029958749241
102.929376589987
102.857097204871
102.90430873138
103.152756936561
103.112414018969
102.983723472908
102.949195189651
102.880625323443
102.773925738541
102.487850903822
102.862109770826
102.65013990819
102.459563268699
102.54954357952
102.609949675593
102.552456775488
102.439595825593
102.264948434307
102.176900469129
102.057145127124
102.241159033139
102.146534298371
101.954001085462
101.858506153415
101.762415454148
101.710721202299
101.746116941402
101.616500351969
101.399205973506
101.218303716271
101.266118394555
101.106102223457
101.110337434759
100.973244538182
100.733340330402
100.734578420345
100.801420472761
100.61745059381
100.349862518807
100.192362416274
100.139307703869
99.9168007291405
99.8150925093462
99.7058555116435
99.6976316714514
99.6280989892264
99.3248945295024
99.1613846298863
99.238908720439
99.1751320488574
99.0301345434706
98.6650266970407
98.5988358923729
98.5200687016546
98.4953246729626
98.195494526726
98.0096202816819
98.1478024675278
98.0528048255006
97.7726629836
97.712118289583
97.570992682893
97.4835064441422
97.3284436843423
97.2495053454476
97.0643173353074
96.8295217324499
96.5589641317298
96.4943161435755
96.2750031855847
96.1237792522664
96.0167381832975
95.9109895096667
95.8288942127464
95.7351662560749
95.5285989801809
95.4693724195716
95.2426802969191
95.0886569547055
95.0276278500633
95.066704811867
94.679509396244
94.3167917086807
94.266243644775
94.3145660992717
94.262508061808
94.1774790672642
93.9008084238233
93.7405187309329
93.5734380352977
93.543166349169
93.4848631662677
93.2839651777605
92.9753678069888
92.9979609703637
92.9092864427009
92.7578821617787
92.5372886689848
92.206467570513
91.9359756176953
92.1120403650805
92.1106973399957
91.8636026844407
91.6858953732552
91.6375155103978
91.5889832388816
91.5677518683021
91.3325813649685
91.1194058111425
90.8789687360344
90.8195504612059
90.7364009245516
90.6365765813342
90.5368734555898
90.3482062286653
89.9697155491296
90.0738083099365
90.1258290993003
89.8477268781465
89.6899720521459
89.6936515883307
89.4081320711245
89.2772016733728
89.1746360716469
89.0562851177134
89.0209281392044
89.0088500205753
88.7624928500961
88.7548958689526
88.6131806453252
88.3888215514782
88.2307550914656
88.1324819015706
88.0603480420628
88.0000395133641
87.709450687964
87.7548234695647
87.6551622775109
87.6228396744564
87.5677967063939
87.4396302288458
87.5046892037722
87.4755221749331
87.0437275587028
86.9121368505191
86.9391189963373
86.6681004516862
86.3961386768989
86.5135801669739
86.3175321400961
86.2474939292562
86.3287044652025
86.128625855042
85.8579696136557
85.8004696896655
85.8550150359083
86.0776094929705
86.0355280418387
85.6528846743503
85.2379964264572
85.404983306462
85.5538732724083
85.482454894219
85.3048546795488
85.0394368194374
85.0693161262974
84.855875648055
84.1965966898683
84.3533521620486
84.6994768464102
84.6482109278627
84.5658763060025
84.4813832285772
84.4119901630179
84.3688611785012
84.0831348194749
84.1707551405194
84.4472393960195
84.2226030924316
83.8077885023113
83.8357464639988
83.8457864181053
84.262452765278
84.4544086404226
83.805590319103
83.3621943345792
83.3466886376969
83.4283352437569
83.5929070584237
83.3640783605672
83.3766330515257
83.4867339998948
83.2684326889721
83.0360677564523
83.2344569786182
83.1881795332122
83.1283384672892
83.2614607668822
83.3204675797375
83.1677604229987
83.2497362708162
83.2190264546275
83.099343103133
82.9464382564319
82.9601454157347
83.067385253928
83.0696941896648
82.8881895896488
83.0462115359402
83.1540128611139
83.0036411419794
82.8403010205476
82.9094760526395
82.912853903498
82.9239701404662
82.9191426346807
82.9706484130897
82.8035892227412
82.5489296656807
82.3963406093326
82.5793588373775
82.5658010294561
82.5250478985259
82.6057816567334
82.66386177483
82.6341254978356
82.8171193391623
82.8354905102226
82.7412126475924
82.6494802930956
82.6763094141375
82.6098517119222
82.4916871834759
82.316804656146
82.4405958298247
82.5718203279276
82.5840090340762
82.4107861806675
82.3789201158426
82.5109418138392
82.5561157792027
82.4919103524848
82.5063422834217
82.4201041693924
82.6550351178978
82.858694950258
82.9401183543315
83.0438331873033
83.0768280568708
82.894528623118
82.896264066794
82.8622188338557
82.9240944200669
82.8186584793015
82.5617166941733
82.5397093046563
82.8700093440952
82.9956136550473
83.0931102161651
83.1112780443387
82.923228370578
82.7897346964303
82.9655786065556
83.0025637434982
82.9174280604972
83.091299321515
83.3525600900476
83.1190492538752
83.1064464872169
83.2634736461486
83.3888008609445
83.5400479483482
83.5899871083264
83.4789303480514
83.3998512906616
83.2631425248833
83.3640636794327
83.4448681702784
83.55532837943
83.762063589282
83.9650211022154
83.8647048026548
83.9172288252392
84.0041630641346
84.0863601163968
84.1938743418326
84.2824899044356
84.2456468246586
84.3342730562019
84.445818308178
84.490954673697
84.4997309060477
84.6699528715571
84.6371346662715
84.6563678698947
84.6370129932301
84.7224544158237
84.8833272383394
84.9388222876216
84.8714341616006
85.0015324269951
85.1005352446365
85.2361558905921
85.2816320864096
85.2454231642606
85.2658923128493
85.4778620487942
85.5433060207937
85.6630334512174
85.7183044010492
85.730346733371
85.7208518042798
85.8388633431683
85.9180396007039
85.9993081839232
85.968485364527
85.9527223554913
85.8873068847599
85.8961542116294
85.9516425466083
86.145609563301
86.2058644640212
86.2210091548832
86.228724931126
86.2955602511686
86.3086614594576
86.3567227010453
86.315219506658
86.435561483767
86.5559302167139
86.6430086421947
86.6696596093983
86.6867420329406
86.5822209487247
86.6430572256753
86.7675016950359
86.8797806975349
86.8856905822119
86.9370693869245
86.9537195594644
87.0290362686537
87.0074026581535
87.0822698461607
87.224841465984
87.3428058999095
87.3212846247234
87.3712784832528
87.3800495178643
87.4325662919816
87.4559090277893
87.5936402585723
87.7476266624009
87.7985022770743
87.7425654310412
87.8342168458405
87.8608187494035
87.8681095440647
87.9197761131034
88.0694971054829
88.1556749906278
88.2384964087383
88.1863970897165
88.2021482014937
88.3230676617298
88.4270951452504
88.4528807213369
88.6126300882596
88.6117679469809
88.5721327565532
88.5012890987897
88.562582603562
88.6015058373472
88.6544477447626
88.6495988961454
88.6613103764729
88.6790744628319
88.7194156641965
88.6672301173522
88.5803747419241
88.4562018403366
88.4824930314681
88.4232212280658
88.3658381073894
88.3065267805856
88.1686927407715
87.9726811172769
87.9021520104638
87.7585045801792
87.6848802475
87.5811823179649
87.4553144575648
87.3709917842985
87.3366925841489
87.1641120688154
87.1146599893996
87.0866780149942
87.0436048639132
86.979235982907
86.9335173318519
86.7594879120902
86.7270913018187
86.701603413665
86.6351165853294
86.4727194268587
86.3692113503145
86.2970554702967
86.2129555388344
86.0729987262596
85.97542133464
85.8892051521312
85.9376558560384
85.8809072269531
85.8621198091404
85.9575120535787
86.0443035850895
86.0347204331232
86.1526977947016
86.2620817886647
86.4146368058229
86.5663416091701
86.6748969839305
86.7165707172786
86.9420688752714
87.1926744207325
87.3303454424222
87.3129309072948
87.3458057549265
87.4493032294673
87.6013471848279
87.6874892972208
87.7976549170147
87.8255079144394
87.8850533265463
87.9433483320337
87.9807172724755
87.9448672593934
87.9511179922321
87.9235004912848
87.9491548552935
87.9577494709363
88.0006098106326
88.0162850667008
88.1075027706283
88.1606879112496
88.1309129118586
88.141327028313
88.2820346271086
88.352739445661
88.4175980760023
88.4523606302527
88.5076184240959
88.5086580491
88.5829733369733
88.6941763212945
88.8102200529364
88.9558170298389
89.1418836888513
89.2511346020313
89.4388114855556
89.5866678224779
89.6343635720026
89.6490505878712
89.7580201281568
89.8640631461575
89.9173340568798
89.9602383040502
90.0765254234223
90.1675847437751
90.2131986182782
90.2619196582003
90.3894668363186
90.375148582738
90.3474277606729
90.3861422198203
90.5113736071278
90.5913178303371
90.6547920811387
90.6952992460278
90.7245064393716
90.763265338768
90.8865221161698
90.9118157149517
90.9442553698313
90.9717560507162
91.0084085108049
91.0793392418312
91.1450533128267
91.0979530995892
91.1088508022168
91.1527228612612
91.1934176349623
91.2353499254609
91.3243295094741
91.3655962700676
91.4132109812471
91.4159331555124
91.4166581475376
91.3686855694702
91.4404320671577
91.4769762954351
91.4381943691964
91.5080162721001
91.5869611962289
91.5427580212602
91.6178046807936
91.6730737003156
91.6824979233653
91.7032505892861
91.7499094416843
91.7801347848724
91.8040748073166
91.8085346223459
91.8783614838841
91.9078590451087
91.8872247961985
91.8640554664892
91.8881647444074
91.8670252141649
91.8533259121713
91.904549981432
92.0309833590487
92.0512265144665
92.0315679526139
92.067551715033
92.1317094085735
92.1581419656189
92.1412919051908
92.065377245346
92.1168583476262
92.2233719938391
92.2484982672378
92.2204038176133
92.2719882032895
92.2960638898844
92.3031735364381
92.297327654561
92.3423280862262
92.3917984491159
92.4266777691517
92.4099416179948
92.4632570656775
92.4820270478535
92.4909571864868
92.5020636132093
92.5266762810198
92.5718145546134
92.6113136611585
92.6085589131647
92.6455145173838
92.6280254308953
92.5914354790773
92.6396905488367
92.6771368509061
92.6771762046631
92.7038105396466
92.7093268878662
92.7075835385854
92.660741803605
92.7147339897281
92.7722000956474
92.7927581948576
92.8387217252322
92.8371037451587
92.7687223588981
92.8161418376864
92.9030726374489
92.9299277879161
92.9369720955313
92.9590576115243
92.9695158483237
93.0388392057636
93.106764194245
93.0945407568484
93.0927375880052
93.1484222435372
93.2234088454203
93.2846821235152
93.2756745857684
93.3558818098478
93.4387209928823
93.4951475710601
93.4857217131101
93.4566513085464
93.437240158932
93.5160680187462
93.6022139746742
93.6123134839618
93.6311619434897
93.6836542527445
93.7509387682765
93.7790613034826
93.8372259423953
93.898051959937
93.8807870645751
93.9499791013598
94.0256801175134
94.0038704096263
93.9781640712012
94.1050545167877
94.1418105015384
94.1136246316513
94.1407949935604
94.2106501311483
94.1124343860774
94.0523984419501
94.1462463187599
94.2430668925649
94.2184279831158
94.2162797138635
94.2530596987073
94.28785614932
94.3712216622458
94.3790485904912
94.3215297275079
94.3696326064584
94.4138816596512
94.4602602788043
94.5059433087084
94.4837964945169
94.4541297843186
94.5153841618554
94.5926643208518
94.5332900089102
94.4894219381409
94.6031890614982
94.6046682745318
94.4976923480242
94.4864914508451
94.5657135758272
94.6644204554558
94.7172751360558
94.6524338084326
94.6322707988109
94.6187921099388
94.6395191749905
94.6573985420208
94.7109165042476
94.6920620276394
94.704856999617
94.7291438997327
94.7195108127554
94.6422650576607
94.7168621692175
94.8527960261654
94.8171754402517
94.6919095488108
94.7001079715981
94.69860264667
94.6847645693559
94.7381930475628
94.8028493427387
94.8587012002538
94.9495297802109
94.950266826266
94.9046350575491
94.9521024814107
94.922748858191
94.8217196263418
94.8843322186064
94.965347783564
94.9374145290406
94.9546951834507
94.9497039682776
94.8596176169792
94.9221915170393
94.9555679187837
94.9639358580358
95.0229124267614
95.0162116269296
95.0520164031918
95.0172771601304
95.0251211777501
95.0945656074016
95.1491692593562
95.1430410976168
95.2026867356869
95.2268221501678
95.1177340489587
95.0790259333325
95.1714452416663
95.2852431352646
95.2001905200333
95.0799383690656
95.094734132412
95.187643991532
95.2227360807743
95.1753401816308
95.0891058125118
95.1622141891865
95.2262705778386
95.1527083186201
95.2181230263492
95.267274223831
95.218367719308
95.1629594553982
95.1305649246366
95.1557540014506
95.1865160772369
95.2237812868878
95.1398282729748
95.1139075712248
95.150386113848
95.1134740571376
95.1009344096586
95.1298690719829
95.0832314476264
95.0532657078701
95.0891039949523
95.080846969213
95.1336357136089
95.1730062494705
95.2104730737317
95.2674606387039
95.3545465289191
95.3389740454118
95.2680048614825
95.4305187117085
95.4797014187867
95.374254372079
95.4001022212534
95.4777388423625
95.4083847796372
95.1742031860905
95.0643605403755
95.0615085889889
95.1209996674488
95.2457090556886
95.1808887027455
95.1212943009681
95.1982587991237
95.2192107809098
95.24204541795
95.3289071735537
95.2168249871858
94.9370153062896
94.8366994425595
94.901239995464
94.9362375192958
94.9419807994368
94.926513014428
95.0403259595779
95.1153324126197
95.144827516947
95.2382801886454
95.231392406935
95.1582379537521
95.0940057052775
95.0937424093415
95.2019442754544
95.2947291323828
95.2902046517994
95.2453151944919
95.2989942121218
95.4024447418763
95.3011388579346
95.2037127551582
95.3043280233518
95.5030488970321
95.7057908440627
95.7410762157771
95.698947673511
95.800000372011
95.8643880878033
95.9256708000182
96.1272413048842
96.2513018533106
96.2884544017141
96.1924511974385
96.1281527806386
96.3271972566272
96.3445561471854
96.3912124891826
96.7196908964762
96.8185469470527
96.6166403764522
96.5636211982504
96.7035173381213
96.6535117089684
96.5919626652163
96.7407714355667
96.942776773359
97.1958779696139
97.1495330940596
97.1009155707419
97.1386212080791
96.8736125679899
96.8533893591252
97.1317787478625
97.5108664392011
97.6104932621163
97.4942847209459
97.3678127091745
97.5009399521562
97.7776375063061
98.0025322692529
98.1698865875103
97.9835433223332
97.5121837380127
97.7140425126204
98.1504862999838
98.1535591920003
98.200615654879
98.098591715428
98.0388534040943
98.3721928060823
98.8823519709222
98.9820941428333
98.4469824925479
98.3679831048281
98.8555169870648
99.2432577305448
99.1791126111287
99.0335058845898
98.9070124819771
98.7851864635068
99.1297450655473
99.6770402108908
99.6690614838245
99.9330074127844
99.9532864239721
99.9501285172653
100.766470394076
100.761083876414
100.426458068151
100.930862920121
101.117980974109
100.782090472712
100.525946094899
99.8819641871786
99.0656534706196
98.7679909522915
99.1961927618129
99.2802624089142
98.7137912047095
98.2038375094081
97.9620089093801
97.9848571265319
97.9288822682879
97.7655340106077
97.7096340659181
97.3985187566925
97.3256577873262
97.3467430754188
97.1440454336755
96.9588068899041
96.9242678415716
96.9805753082591
97.08282067003
97.0984811716528
96.9784923955212
96.8478940767824
96.807950854115
96.7899294056423
96.860563442672
97.0164046019204
97.1305007315555
97.1723677056341
97.0346557778344
97.0600380518968
97.201748536307
97.1898003048959
97.1512496724273
97.1489959965621
97.1577454419619
97.0271347491399
96.9481011606067
97.013238657657
97.171770526265
97.2972278678319
97.3193945782804
97.39380525636
97.54868336214
97.6142863557872
97.734513014023
97.694099701011
97.6321401302284
97.8001367458552
98.0750459780531
98.1422108432491
98.2497813633387
98.2873488080288
98.2610380532826
98.6525004643553
99.1413006524594
99.2633927113658
99.4793532046889
99.4522782199559
99.3911389481521
99.8117527840412
100.252521458331
100.238405961848
100.255618122728
100.395142732517
100.536414964733
100.080410058313
100.072980593123
100.396800794955
100.380414828055
100.296434062285
100.260080488421
100.27436921012
100.176658570846
99.6782655947376
99.7309279363771
100.076712406447
99.9532191172301
99.6480068266822
99.5394694892248
99.1572185213297
99.1648408899088
99.5351943129872
99.5733794005464
99.1533080511322
99.0709549689058
99.1536647003234
99.1099383350613
99.1957334819476
99.2732608160952
99.4587036623965
99.6772694972692
99.6967536241684
99.9712063998359
100.235644243793
100.01638857945
99.8057204635921
99.686584439203
99.8075971273459
99.7927497176945
99.3806661305331
99.2500868821241
99.3925812104745
99.4198081509112
99.1264140251462
98.9943688856928
98.8208995482799
98.4641509242675
98.2221823781692
98.129061885423
98.0399604991849
98.1030908074894
98.1080763661749
97.9407278899288
97.9322013605127
97.8678178223042
97.680498185603
97.7715152384109
97.8130508264263
97.5385669247145
97.3331604517177
97.343928710269
97.3521444772762
97.3488193702659
97.2251762033995
97.2226243251716
97.2012543258271
97.159757613953
97.1626931874288
97.0895181130488
97.0798389396458
97.1080955890598
96.9140866440774
96.8737623293365
97.1101428880362
97.0546959052495
96.8928049060358
96.928486462636
97.035316293046
96.9753946501324
96.9414331656498
96.9236091750849
96.808809986457
96.8886013083808
96.9491983423478
96.8175333257513
96.8051890123909
96.7788894375142
96.7946677068184
96.8304767714479
96.8184427095695
96.7901408351039
96.8150091837443
96.823071605277
96.7531599544672
96.6662294968076
96.7198811935709
96.7028000501346
96.7366530461069
96.7195751611517
96.6586694946562
96.6389473318122
96.6932057916581
96.5794527525414
96.5632267853502
96.7233901532865
96.7411854107476
96.699168524572
96.680438370386
96.6673968143876
96.642408237268
96.5542567521823
96.5343216645772
96.5735931235005
96.5846493466563
96.5719688460033
96.564791569843
96.6192127564839
96.6379215509128
96.6685032771663
96.653891601111
96.5949457306456
96.5495366457673
96.5684521595679
96.5974334810903
96.5519605005878
96.4797676790599
96.4495345989594
96.4651643434188
96.485346620854
96.4924322614908
96.3618000955698
96.2941250027021
96.3614390096817
96.4100193508412
96.3770784013558
96.354516285274
96.3373757209231
96.2504325114249
96.2568436390994
96.2306340692926
96.222118976495
96.0625796590801
96.0374447342525
95.9636624171428
95.9671187077977
95.9852813106426
95.8890548907047
95.7869087553849
95.7196618349485
95.600009912604
95.5473525856421
95.5107978628292
95.3636169924827
95.2220283367874
95.0636177245613
94.9595396215783
94.8875419956391
94.8045859310059
94.6356216856852
94.428355277556
94.4231957515842
94.1744985310204
93.8780732917897
93.7471666534833
93.6080323169839
93.4308622804716
93.1391897112129
92.8966278650199
92.5635397712501
92.1809866724686
91.6683301159539
91.2004447897388
90.7084677340218
90.3531551835189
89.9927699938367
89.5695298224535
89.0619721447664
88.5379336154866
88.1616405725652
87.675555064904
87.1240359457148
86.6981779318616
86.1267500698934
85.8255721063726
85.3192969525939
84.9074570580594
84.3592763568171
83.8331188344901
83.1560767196376
82.5148855030954
82.0793395461576
81.8400186442785
81.4381031583117
80.8041730369452
80.24758478603
79.722517712906
79.216783777099
78.6689788542138
78.2068932570779
77.7575050017777
77.1535104840916
76.5790212527831
76.1563150753184
75.7331598146716
75.0823685865759
74.2360858381261
73.7518034122457
73.7022847648055
73.508040940174
73.030294728867
72.7350776965923
72.6379528765755
72.4667408324016
72.2048682075858
71.777555641186
71.4823748842926
71.6502551544675
71.905206695847
71.8280788593646
71.6277090363721
71.5751063053295
71.4913736619596
71.4964597351065
71.6003470288943
71.5397707435962
71.2846676325658
71.3049183337237
71.3948889781708
71.3276916181667
71.0917577074298
70.9159616240362
70.7431643443445
70.5770738537078
70.4025788902305
70.284051220355
70.1736867806116
70.0798503709328
69.9735820555505
69.8815370587236
69.8028331730533
69.7296487727623
69.6376926452934
69.5475497082046
69.4373993112342
69.3171152593469
69.1321371485036
68.7570888929407
68.4591607067301
68.4796217355211
68.4572654530541
68.1379257118673
67.9242025500302
67.8984676156331
67.8567083254924
67.6869602828458
67.2049931542476
66.6977243923489
67.1307118996181
67.7438844295239
67.9638803645926
67.9818044765931
68.0981275382639
68.2457210634618
68.3528332622697
68.4163241768232
68.468834999796
68.5875713992192
69.321076434153
70.2171963840528
70.4532535924958
70.5635172396677
70.9474663725114
71.348003794479
71.4826248393006
71.7338462606919
72.0121428415448
72.1863876268224
72.6987100338963
73.2743183196664
73.7213173519509
74.0947330609773
74.472446069352
74.8061931878654
74.8944379327042
74.8843107740636
75.7773909953198
76.8788426803445
77.3106767992723
77.3313026034252
77.3543446917557
77.7216603985996
78.3439497620235
78.6367948902577
78.6358609283889
78.8453754910494
79.3701312123731
79.7627828426
79.9950783152723
80.1586300298121
80.3033179060253
80.3531980772676
80.2583140799981
80.0888006402632
80.1216761747066
80.2394439743101
80.1214898281625
79.6748033263681
79.3888226695734
79.2264946321305
78.9623838386971
78.3193933702941
77.8684523398707
77.9955931470719
78.1403719062163
77.9464742840849
77.6760733176664
77.5457775451908
77.5399547831657
77.5387142705719
77.4845855144348
77.3982217733346
77.1582297605086
77.0661539709187
77.2189172098588
77.2952277915281
77.0965270002477
76.9002817743619
76.7141672788971
76.4275135479212
76.0533383501955
75.5682341017496
75.0332688162613
74.6184925837871
74.3891811811439
73.9948787221765
73.4161510680316
72.8287787933644
72.2593336693162
71.7190670439949
71.2315395950469
70.8897344045261
70.5708511027683
70.2974908542212
70.1381999071229
70.1255476406761
70.1789297751871
70.3204543843954
70.3516723907413
70.2841865428362
70.3861916538671
70.6243808407188
70.7918944879042
70.9007126723034
71.0972886532409
71.2700342244435
71.4087094614599
71.6630528857744
71.9990634598021
72.2315712264395
72.4616199109375
72.7154992762591
72.9178712811231
73.1775344514671
73.5676999188726
73.9301330615216
74.1562330243828
74.3534723555248
74.5834978284693
74.7914804024121
74.9942650881072
75.203387780327
75.4040315536389
75.5793372041136
75.7011796420857
75.8104267660868
75.972575678476
76.1608384291471
76.3029838819747
76.4126068629154
76.511189188281
76.6067415610412
76.6817973411082
76.7159441458242
76.7214483170787
76.7072810678435
76.6899971028649
76.6998359342975
76.7086188179818
76.6805920365118
76.6593075521242
76.6589687649966
76.6664952094633
76.7058585352494
76.7529610460767
76.7900287441486
76.8341375044982
76.8846259838098
76.9805150806248
77.1076020057738
77.2126727111043
77.2966244587095
77.3832300330685
77.4653278371189
77.5252870559779
77.5823359770661
77.6489220427002
77.6741610886352
77.651869077221
77.6229880659843
77.590649398617
77.5406186454872
77.482827385787
77.3935550874412
77.2767895536017
77.1631265053646
77.0162090644312
76.8360329470397
76.6685594010851
76.5166802180158
76.3575046297574
76.1894738913031
76.0118729283677
75.8261236711666
75.6638987934871
75.5047507734867
75.3398724320561
75.2060633261528
75.1023381625671
75.0120509402723
74.95612731636
74.9494435565963
74.9494161563793
74.9731686861664
75.0434183705874
75.103888401118
75.1683513117304
75.2698001395046
75.3944577877718
75.5309584994933
75.6726164712182
75.8229421473856
76.0164995232087
76.2528075635394
76.4792358135884
76.7210756675705
76.9942862166796
77.2802799697592
77.5870377239397
77.897371738043
78.1928181097406
78.4788071956768
78.7930947516831
79.1032730902108
79.3553771576349
79.5881879838046
79.805363205672
79.9643806712722
80.0941489123967
80.1995942457958
80.2792900750747
80.3336875757262
80.3315563941127
80.3053943479584
80.2604969393213
80.1774726578928
80.1124152700035
80.0877559908132
80.0377112107365
79.9503868738997
79.8727717940972
79.7837724687156
79.6670160590366
79.5271694245791
79.358926925563
79.1736636452382
78.9886005445828
78.792696588806
78.5825729281867
78.3773245663651
78.1712855331655
77.9537876544795
77.7271238405231
77.4758996329073
77.1905804296196
76.91605825178
76.665601385808
76.3885544440722
76.1259355405731
75.8903230374004
75.6350281813007
75.3884503403136
75.183772621542
74.9638526191466
74.7407262867383
74.5496989378025
74.3339244727755
74.1145940266313
73.9105491268627
73.6382999198887
73.3349575661991
73.0292828920863
72.67374548641
72.2774185738581
71.9179330270636
71.5941897054691
71.2473308332871
70.8804570211775
70.5053662529003
70.1280401927003
69.7649738237457
69.4287770989997
69.1111263758893
68.824178139066
68.5688011762326
68.3175716733591
68.07850077368
67.8472387391782
67.5990264280428
67.3122912090846
67.0042568974308
66.6928938239491
66.4393452422865
66.2156412440945
65.9357813267441
65.6574471516733
65.4498486086076
65.2856995600799
65.1720907010551
65.1019134439705
65.0720685564714
65.062511990357
65.0535263749919
65.0544869730131
65.073975322703
65.082679930386
65.0744856931088
65.0925079077824
65.1295521081225
65.1915229868758
65.3041425273708
65.4258932312239
65.5763545652338
65.7696051572645
65.9971928355398
66.2862407900956
66.6312850170485
66.9770339198397
67.3661872415479
67.8113984512297
68.2611212175539
68.7362109969402
69.2351873945648
69.6794308274665
70.0763008919141
70.4830960805559
70.8621955216785
71.1742813711505
71.4780682828747
71.7401026763397
71.9619009435881
72.1950808516571
72.4100829314263
72.5494493578157
72.6547819310856
72.7682215004946
72.8526159341288
72.9011894425454
72.9141462137929
72.9024350586429
72.9415004320712
73.0313873132256
73.1106337176569
73.1955916424123
73.3446334770729
73.5164034438784
73.6819327194286
73.8802329184286
74.1431403768619
74.4500232375434
74.7712950325376
75.0826030313362
75.4268790937904
75.8466083426646
76.2421517525201
76.5397770679851
76.8596944230297
77.1827169752015
77.4394291257484
77.6570219812153
77.8705950972999
78.0491391207513
78.1893067526605
78.3297607327379
78.4553655694835
78.5265344894614
78.5788314504348
78.5977027717741
78.5854195300228
78.5737103756319
78.5148184309184
78.4176798764992
78.3870424572258
78.3757654389175
78.4228727896446
78.5462635546988
78.6570642619342
78.7784026355681
78.9652724488947
79.12176497178
79.2022206261642
79.2849365158481
79.3661530958379
79.3745409963763
79.3777233202351
79.377345393024
79.3274686672457
79.2767393936911
79.2787960613903
79.2665934030159
79.2555950714812
79.2530624429821
79.2112504737218
79.1956688701849
79.232537906991
79.2327540587203
79.2337924645691
79.2504937992895
79.209173198564
79.1006890048425
79.0240308045022
78.9321462804917
78.8574948309934
78.863708587667
78.8521567897701
78.7719240412306
78.7659930600572
78.7734230074249
78.706232249199
78.6162324831056
78.512408745805
78.4013348025393
78.3315858280721
78.2058356719701
78.0025918104773
77.8641568564777
77.8024959244336
77.6960336510081
77.6094125771491
77.5657609433314
77.4560462427082
77.2736221832569
77.1204396973903
76.9804585483069
76.8663542323955
76.7279818102604
76.4801858994316
76.2183754919815
76.0794590407124
75.9199113560342
75.7337106315346
75.6471137962746
75.6085594736396
75.5307031000762
75.510098983242
75.4491541979166
75.303922330294
75.2506985478093
75.2745295013755
75.2074491683433
75.1410106245192
75.0229162137882
74.8433297796013
74.711663906246
74.5832752068012
74.4435297583891
74.424036040512
74.491601752843
74.5676841692353
74.6089197643676
74.6036383595383
74.4931689335497
74.3674502508808
74.325972015664
74.2776904211725
74.2161877206447
74.2092815573182
74.151912097807
74.0704682229675
73.9952771780417
73.9285180785576
73.8379597312193
73.796387305737
73.7382278144804
73.6262252799423
73.5982916768172
73.5781501909184
73.4082789652818
73.2710579778774
73.1745392214392
73.0343328265036
72.9197113837367
72.8260140902854
72.6194632813744
72.391399011935
72.2427401926761
72.1669113197948
72.0296717202231
71.8897896522672
71.78317457152
71.677706440797
71.5556793215593
71.4438440847378
71.286462389047
71.0708528274093
70.8324168830334
70.6737893245527
70.5335213077567
70.4045498030503
70.2264680220113
70.1163446189964
70.1082700540531
70.0420160825304
69.8907206725718
69.7890217889365
69.6692617434103
69.587902172479
69.4878177213511
69.3370922715064
69.192209808962
69.1196873258158
68.9518817126074
68.7761571025101
68.6411143861366
68.4851676861798
68.2325519839697
68.3930239752832
68.4963386277113
68.1398178503209
67.9960143710289
67.9120511191809
67.7894194209272
67.6247656470613
67.4394437527269
67.2655570757037
67.0981934631818
