1798
3999.43349933624
650.420452594757
1
128
4
96.8186970577352
96.6538298266223
96.7104651079519
96.8050464333023
96.8585624051093
96.7304945982178
96.6780384376927
96.6925785515828
96.7914582778458
96.7328565811675
96.7884466148293
96.8061729969982
96.8612726860644
96.8415177469079
96.790788427067
96.7248755442766
96.7672933323421
96.8314333808668
96.9098742190927
96.8303670721495
96.7939006908231
96.8129640920737
96.8648305761935
96.8585587704004
96.9884818684194
96.9810894050632
96.9990061262258
96.9041464937434
96.8547084059563
96.8589770403463
96.81539860085
96.6578620998254
96.7655806026908
96.8759320355308
96.9889435543714
97.0068912895662
96.9137126328109
96.7774812763328
96.8746059569555
96.917774018246
96.8981616461353
96.8492801286274
96.9149928944925
96.9146494780913
96.9154626118877
96.8551286754858
96.8937000963241
96.9218475860125
97.0528693745754
97.0005320689822
96.9022067190117
96.8353652944638
96.7902093738171
96.6829353952161
96.7734656130488
96.8212496933538
96.8748863401932
96.9628591609306
97.0320688914138
96.9392786402028
97.0117207496265
97.0041920295965
97.0439648184253
97.0116370487999
96.9503247469635
96.8803719675495
96.9704240545941
96.9647169534396
96.9230308527226
96.9925420157854
96.9802681021993
96.9712485582159
97.0531178827532
97.0947847693097
97.144801665982
96.981484813048
96.9042293835048
96.9569572271043
97.0861102898753
97.0967768185884
97.1598475182702
97.0564198397
97.0717392694207
97.0745775541773
97.0118893066608
96.935626754783
97.0359198210213
97.1784727581459
97.3155552610281
97.0823555676025
96.9608216794214
97.1064718856881
97.3028980749343
97.231327312976
97.1816485708359
97.1161376557818
97.1155632895515
97.1018210362104
97.1310756574014
97.0967587383956
97.1789264990913
97.1553624582918
97.2774192337266
97.3319950741142
97.2963517914406
97.1561584453008
97.1593017686501
97.1992986108202
97.2661522830068
97.2533285916602
97.4043698051017
97.3472931680681
97.2971073929383
97.296521651251
97.3293915064175
97.2848818112318
97.2765704266065
97.3302699585502
97.3892605763979
97.2567893989145
97.389172258585
97.4540602653743
97.3865171348699
97.2522460813357
97.2189677204833
97.1619243445577
97.2490003114822
97.3677407997638
97.3020200241199
97.2654700453225
97.4013316035224
97.3422090574905
97.337515242525
97.258359170767
97.3476551253179
97.2637929594905
97.1870557625854
97.0219478062483
97.2506088124446
97.2711389599425
97.192585719198
97.042518008164
97.0758608133905
97.3062886457927
97.4910918631512
97.4660073233571
97.3424487477224
97.1406931633178
97.2706720790814
97.3911626242518
97.4454635542085
97.4066041823559
97.3765306217492
97.3402677544541
97.5534018585658
97.6297442715213
97.539986213576
97.3082860713025
97.2398604117944
97.4504425694601
97.5155406169681
97.3861869800183
97.6162790875005
97.5782042823132
97.4615499489016
97.4974442667946
97.4295805909783
97.2492948465492
97.395214624558
97.5891489201486
97.4605894128065
97.0714808219653
96.9675715044416
96.6891593131937
96.7123478668464
96.9008738815046
96.871529215135
96.9202507964605
97.0450288017723
96.8823104558364
96.6731380903257
96.4231022568697
96.2322385262543
96.4291253436021
96.7841308851368
96.5602539322586
96.0549054776829
95.846367329697
96.1385139981769
95.9705477333745
95.6849459257787
95.6646459479629
95.9871576841595
95.7608372529123
95.3594269245868
95.3118749403673
95.4087080549618
95.1513322717554
95.5185035366993
95.5508546765609
94.8755453810533
94.401542263542
94.108673122755
93.9279292975217
94.5259488853197
94.3202427739704
93.3655060016053
92.958828724562
93.4381181903269
93.930319343235
93.7526684815563
93.3501647947296
92.8108830810145
92.6234922251664
92.5938263880463
92.4434541162173
92.7844973684318
92.7756321960558
92.5153352084882
92.6535799457163
93.1164360543897
92.9824285736755
92.3155383307869
91.4429611820621
91.2419814746044
91.3150406668993
91.3521890438958
91.392933497775
91.2670614586934
91.2747385321473
91.3108171016996
91.0944322949801
90.9791010621964
90.6518769263274
90.6336449061568
90.4060643021211
90.1273452340494
90.1603101888042
90.0189605925032
89.724340432589
89.5219541773389
89.554946038132
89.6768600270906
89.3302568169247
89.0911998315172
88.9644676853647
88.8653526995122
88.796497277888
88.743584551069
88.7084520909633
88.8452990520062
88.7212386902752
88.4765910988532
88.1980883237291
87.9927191375521
87.820954124681
87.8646914997706
87.7694345886396
87.6488366753668
87.5515466508653
87.4056791592892
87.1693212526937
87.1389292738777
86.9933166349957
86.9496441723423
86.8713388308822
86.7451685530575
86.7343883865435
86.7472426567978
86.4861413551376
86.3416874019586
86.2795552828644
86.274256146416
86.0794182351744
85.8828038772373
85.7109528651443
85.6127551050154
85.4646213205202
85.4351462613961
85.2258792724489
85.1422487054678
85.1082054185465
85.0608293398344
84.8901602465967
84.7963149379935
84.6658672475247
84.5606741223965
84.3985891522142
84.364729441141
84.2790245536784
84.2446106856463
84.1378436600342
84.0448199136522
83.9240053518738
83.8060336921935
83.5984337867242
83.5696098185006
83.528141812005
83.4576234534564
83.2615608837084
83.2079856475212
83.0375381527978
82.8886603152026
82.7128527166343
82.6954919931048
82.7084173096691
82.6601813713741
82.6038166001544
82.5385666839008
82.3271690284163
82.2527043072491
82.0643198366034
82.0051876514681
82.0114333478218
81.8514424055987
81.6974178170037
81.7932447680417
81.7084218354619
81.587107310701
81.4668597819297
81.4286846693172
81.310859015507
81.3718750036164
81.3275355796203
81.2367991922617
81.0513823348261
81.0168778796379
80.9924834629384
80.9189354803187
80.7840867076231
80.8923542353668
80.8654508474368
80.7575984159681
80.6676558101767
80.5858577652079
80.4332733070761
80.4740404760709
80.467440250011
80.3422359892073
80.2718689577905
80.2805392147218
80.153494920242
80.0460324625451
79.991342911138
80.1077703655838
80.0719597642875
80.0506633624841
80.0109588986802
80.016668525738
79.9528804097528
79.889892024154
79.7799629303827
79.9180492887213
79.8271055989282
79.746681453982
79.7180198572431
79.7327287667953
79.7311482126865
79.7599433227862
79.6607806749781
79.659218865709
79.6438542393954
79.6487683118486
79.6573018387871
79.7444845742143
79.7066607372325
79.6328580209139
79.5610823941232
79.6270512784798
79.645416998056
79.6997956103646
79.6341793405258
79.6851132781709
79.7196031332409
79.6450980863277
79.5949657159282
79.6558156936955
79.5815021001063
79.5934142401893
79.580428735751
79.5459365680035
79.4729438045416
79.510615874981
79.5240866013467
79.5587117112181
79.4740658107143
79.5236115350913
79.5800473984135
79.6353158768271
79.5236661284567
79.5140465510874
79.5981666151006
79.6287079986685
79.6270061001963
79.6450015143471
79.535431203682
79.4344524735115
79.3296386855122
79.4593372659357
79.4956806287437
79.526144726545
79.5240225765008
79.5624935802775
79.5791093707508
79.6591515322528
79.6034843202619
79.5941866148502
79.5445431917382
79.6286506292011
79.572276346144
79.4467038296483
79.4602745743795
79.5814707985845
79.5976765786856
79.6893405092489
79.7723861972717
79.8442750619252
79.7734963019832
79.7558346566644
79.6697116048074
79.6628564595771
79.691582201995
79.775389542346
79.8463198804123
79.8205578226052
79.7871428128707
79.8893361742719
79.8511474809368
79.8771015991246
79.899076408752
79.9914982662752
79.9860343031045
79.9681979292849
80.0368814813443
80.1896898176246
80.1599347948283
80.1702220023585
80.1356737159393
80.2266251456112
80.3132842918949
80.376117870362
80.4347088906742
80.5449454769894
80.5570282421657
80.58190083214
80.5913058109406
80.61575726178
80.6895143346184
80.7571800587772
80.7410081380313
80.8195851279288
80.8356196827719
80.8932054825978
80.9673297063945
81.0897045754145
81.1186223476627
81.1640814029863
81.1635188579511
81.2182897866783
81.3169082960736
81.4347114202924
81.427527397204
81.4787146340875
81.5676753057945
81.6567236427664
81.6686632251222
81.7753401491248
81.873139972632
81.9303020100851
81.8336186670755
81.9002204899115
82.0634231726765
82.2151759846241
82.2003322171551
82.3044150335518
82.336098742542
82.3504382833048
82.3745745489419
82.4426712727848
82.4910943827484
82.5312328325712
82.4943618814299
82.6030013574943
82.7492567100304
82.8198334736552
82.7702065437112
82.8681145567964
82.9730594999843
83.0720399198656
83.0658668690571
83.1306398560925
83.1830808267038
83.276747427064
83.3892318095563
83.4445642310819
83.4233339621232
83.5201408432191
83.6169403255853
83.6440057524008
83.6494110472651
83.7055167095273
83.7166665836519
83.7794661594466
83.9178186248568
84.0374798354558
84.0627265618438
84.1100601481708
84.1427640552558
84.2375556754001
84.2317690644845
84.2883871449697
84.4015224560202
84.508080951518
84.587964781739
84.6337505658366
84.6233355382633
84.6719983084318
84.7882712791158
84.8818375860687
84.9312235940901
84.9376837247906
84.947172592248
85.0313901339967
85.0578016733584
85.0848805746442
85.135114216194
85.2847490878917
85.373923797246
85.426728442674
85.4572024120318
85.4659691478487
85.4172540192675
85.5077630370067
85.6163056241299
85.6436074665154
85.5935239504404
85.6066407259184
85.6905111639463
85.7502890108809
85.6764217556069
85.7443757621969
85.7956311845634
85.7880236891328
85.752361062449
85.730948906226
85.744741360734
85.796725164654
85.7884431898363
85.7768352976854
85.7728467370127
85.8029432191018
85.8162428546618
85.8435539168623
85.8008517123718
85.827500823714
85.8434342818453
85.8660281601937
85.8945453908445
85.9322527253577
85.9167090507478
85.9453924054502
85.9895994194993
86.0585794126208
86.0527643683181
86.0833099878223
86.1370743549893
86.1086029494209
86.0284163000273
86.0296777595875
86.1006107526507
86.1529279724698
86.0938041220908
86.077172620593
86.1930327717732
86.3170013905073
86.3130576012544
86.3578105006393
86.3992306677243
86.4902149422622
86.5730586166814
86.566866806332
86.7026204367007
86.8571170418481
86.9013065652843
86.9568454824409
86.9808342910476
87.0418014540193
87.0601031887831
87.10398481218
87.2032536021649
87.2828822481203
87.3411803415806
87.4880676126234
87.5656230860519
87.6112503386614
87.5770702119832
87.581804829174
87.731252512099
87.8531314396164
87.8542613351626
87.81662616015
87.8192793300915
87.8947639032213
87.9642902337881
88.0263182507957
88.1162908405351
88.1744732689378
88.2540811536542
88.2937094534908
88.31730153532
88.3471816643143
88.3965468686776
88.5148117921976
88.6102746168404
88.7069939073778
88.7210552955126
88.7948769449484
88.8730368360396
88.9384381445366
88.9542889089045
88.991618212844
89.0538504829017
89.1638780145317
89.2635134943045
89.3225328767059
89.3539462591963
89.3804622679871
89.4547213273975
89.5534085263933
89.5581896264116
89.5827610133593
89.6496676676713
89.6858930958347
89.7137287841753
89.7588623225766
89.7918157678844
89.8378044845536
89.9220236137542
89.9712059883774
89.988480877536
90.0836461241213
90.128568513945
90.1448423441763
90.2304788785252
90.3097270041828
90.3166926292121
90.3134330812081
90.2927084698468
90.3300156284881
90.4565071055695
90.5223881640264
90.5025416031944
90.5516811638825
90.6435188185182
90.6895494596012
90.6884558122452
90.7313109962947
90.7730334719188
90.800404486207
90.8144025451551
90.8278953072959
90.9129622927147
90.9479751533005
90.9553470649786
90.970940971162
91.0050422176891
91.0965761650785
91.1539212806552
91.1480481587254
91.1250407680316
91.1495307766589
91.1899822879519
91.2639640469923
91.3077630132939
91.3139616729141
91.3542245970074
91.3558044142045
91.3870894110491
91.4273357713999
91.4870677796728
91.5336768793941
91.495664461492
91.5125754203298
91.6012687960366
91.6595238885975
91.6743283387594
91.6965886412354
91.7095415646914
91.7194971184909
91.7450182193262
91.7951928810447
91.8383570310718
91.8476349579161
91.916078790434
91.9625578264494
91.9117805193956
91.9450669585861
92.0444300552981
92.0239807952378
91.9928340327997
92.0565602792693
92.1124232895608
92.1035036815891
92.1378288048723
92.1945745152173
92.228483534933
92.2826170399788
92.3034803952259
92.2923927784255
92.325700577141
92.367513519473
92.390642649392
92.4203135798438
92.4302416220349
92.4270381661817
92.4733144365346
92.5374484180236
92.5408853478454
92.516925089342
92.5048997098934
92.5130334224702
92.5502746862513
92.6160485619125
92.6374105451426
92.6302576794233
92.6823381684709
92.6778144134597
92.6950299662516
92.763096871888
92.7836533761082
92.7672068311054
92.7482142954212
92.8181059364574
92.9341342600799
92.9521189053434
92.9482966065664
92.9784475684522
93.0309387305379
93.1016553482268
93.1350641171713
93.1099740938204
93.1297691694992
93.1936098744845
93.2684287828762
93.2768187609198
93.3341831494863
93.4113114416296
93.3915634987463
93.3060199314968
93.3482832497831
93.4740406840507
93.568697539558
93.600394644458
93.6277465700552
93.631495842771
93.6821297408476
93.6969446088794
93.706993681887
93.8205230714264
93.8658511710008
93.8254347566111
93.8134935778021
93.8142249244511
93.8374453511762
94.0018044161376
94.0345028725146
93.9277093545642
93.9069675028341
93.9668037335631
94.0732268962193
94.0462111158952
94.0306291305467
94.1592753217304
94.1776483748158
94.1770851244771
94.1851524580982
94.2092761807482
94.2824509877324
94.2775148077174
94.2787623503092
94.2872056859117
94.3253555474857
94.2874383104403
94.3271258725469
94.3749326544137
94.3951210297987
94.3646678445799
94.3808523136922
94.4105209539307
94.440906670584
94.439237018742
94.490548436802
94.6060512975916
94.6046063751446
94.5249049217123
94.5160145467763
94.5084823034328
94.5804554800953
94.6612044414637
94.6789599550933
94.6732785365988
94.6911376635359
94.6593594961076
94.6208904022731
94.6741674359068
94.754963721627
94.7366677664256
94.7072165088965
94.6746060517568
94.7401226881827
94.789741289022
94.825199242516
94.8654272249017
94.8423545130867
94.8445230890547
94.8609268357292
94.7875269589301
94.7863469542557
94.8426566331299
94.7891034424787
94.7801943504204
94.827588309495
94.8273455379329
94.9139259818078
94.9952465647516
95.0145821645324
94.958301335479
94.9534144985243
94.9942221088613
94.9853761106964
94.9426947451003
94.9475250026883
94.9169149718766
94.9768624143469
94.9695981283701
94.9723958255127
95.07619267901
95.1421134507522
95.0894233431477
95.0760857981084
95.1292891598798
95.2032066269308
95.1130181861928
95.0580728372261
95.1626849012109
95.2013952300728
95.0969251249494
95.0214732260271
95.0661881789808
95.0999912235631
95.1481904865302
95.163785505275
95.1284350994769
95.1210404385969
95.1459192410166
95.2511377353928
95.2341335416142
95.210719719823
95.2086119671273
95.1738683408154
95.199575607811
95.2506314808109
95.2576282857943
95.1884723768221
95.1008615130236
95.0612865311376
95.0762691728373
95.1391142779692
95.1299039350245
95.1224715160939
95.1310758989941
95.0933373135903
95.1579638087304
95.2887295152047
95.2587005827842
95.2528630114344
95.3222867656109
95.3089864786799
95.3143896810859
95.4427394907827
95.5217450582925
95.4981813150234
95.4696867292478
95.5237521607595
95.5111557821111
95.3939743984719
95.2200629224463
95.2090588825456
95.2104848937312
95.1156567871327
95.1074880287272
95.2664266260214
95.2602061847758
95.2269345917129
95.2456411723689
95.1935986166793
95.2271888556816
95.2502017458249
95.0408888076762
94.8699267917358
94.9154860719818
95.0622009154059
95.0566125784053
94.9937993908157
95.0658025699901
95.158569552071
95.1780089956879
95.2186051965097
95.2100330366726
95.2344250563504
95.2524432416816
95.2609616515871
95.2550139354147
95.2900650290753
95.392125262674
95.487155984547
95.4325160401694
95.2853945646578
95.2600667592103
95.4087875055462
95.4784012257603
95.4863850211669
95.487864338956
95.5914506339173
95.6892250655552
95.7055853381493
95.8335437417092
96.0130164258876
96.0204939539844
95.9825742003088
95.9593131064107
95.9918330143467
95.9640560443775
96.0496194087611
96.3397547464597
96.5963407706929
96.6085313764435
96.5454725852976
96.340514122433
96.2624421525496
96.3279927038689
96.5005129415285
96.6089377471024
96.7241988865079
96.9123184787809
96.7186147297506
96.5345778673983
96.5941199371784
96.8142283724165
96.7992351913961
96.7755142732023
96.6230402181668
96.7215523913855
97.0162693031367
97.170717741079
97.384699072686
97.2926453943405
97.2074983951856
97.2683518500211
97.5627163190957
97.6353758899308
97.72424329915
97.9047565266767
97.8361702514179
97.6261232130156
97.8094049103515
97.7972220311269
97.7019552358876
98.0332121988459
98.2809984599038
97.9920336274572
97.9422416190692
98.0608083062481
98.1492904392042
98.6433988628717
98.7563178659755
98.4418382575656
98.5942354964906
98.5346411182599
98.3824697494385
98.7440892096707
99.0167270233312
99.1877395012152
98.9883190186374
98.8311712493549
99.416654974403
99.5613129927669
99.6918219238936
100.489749231435
100.528176072412
99.8374044698551
99.4588213468236
98.7782538938927
98.6104254228899
98.9560559091036
98.9297972185863
98.6687937527271
98.512534516166
98.3587412291132
98.4135370274084
98.2770678269264
97.9911568367049
97.9069957940417
97.8567951609808
97.6073327306575
97.4127749811499
97.2780148673074
97.166804796202
97.2005943916394
97.3048271926222
97.3396685948641
97.2290366343586
97.1135234557483
97.0535154664253
96.996358392708
97.1772188807438
97.2237479113425
97.2570362916084
97.3298334393334
97.3839400594862
97.2800932728636
97.2705275392362
97.3214852154066
97.2579262331441
97.2994490795065
97.4684169091692
97.2415465164278
97.1938435681199
97.22451231956
97.2781848013152
97.4719258893815
97.5920395528317
97.4544278042249
97.4516630637482
97.6633998174238
97.819666837801
97.9954527102483
98.0645455080155
97.8493273317714
97.8032110045413
97.8858464704087
98.0456483557319
98.1055355836654
98.1273201664173
98.2753425936348
98.511389154679
98.726589837412
98.9412599384593
98.9990133260009
99.1382487342371
99.3905333152465
99.4824664041941
99.2734453123372
99.3250861778156
99.5141900491768
100.000156896659
99.8900289348611
99.7758496796283
99.7021765525376
99.7403901310552
100.025136778006
100.289534079419
100.262433551022
100.071025188086
99.9493375295254
100.012084196667
99.8414825973247
99.8561311613949
99.9224018647346
99.894201309726
99.8496902620103
99.8418367013709
99.6705970425157
99.4204434565433
99.1669448427368
99.215519045721
99.513757617589
99.5114846111672
99.2554833331001
99.4654809215015
99.4842082463672
99.3009555355476
99.2358176719323
99.1931594884272
99.5417896986645
100.041967917241
99.8118876259029
99.8947178410321
100.147169101865
99.8416754678438
99.4114233385193
99.2961658330554
99.2127947514971
99.4163740898148
99.636307305672
99.5025229092554
99.2102427975179
99.0543778585185
98.8612068187738
98.7672678965881
98.7214996072997
98.6873919751421
98.7332414941589
98.6960394562658
98.5388672729422
98.5110402488988
98.4271634684119
98.3892919441537
98.3674400583846
98.3462377104683
98.3040995351501
98.2541132938334
98.1420555007305
98.062660138701
97.9551839587341
97.8616185194284
97.9760829836169
97.9667241293419
97.7880860454078
97.7916373792415
97.8328957385452
97.8479370303909
97.7988871009139
97.8139042946508
97.8763504163665
97.8663133845268
97.8621256704934
97.8833676578611
97.7817386521561
97.7047709378667
97.6679892344304
97.710050814872
97.8022711764694
97.8236354113094
97.7487344598974
97.6047293100015
97.5812766412293
97.5959029622395
97.5815885077957
97.6429490997197
97.6812967453147
97.7166087205263
97.697184691806
97.5603582279485
97.4965390292435
97.5380829274888
97.4839833030333
97.471549826709
97.485423898883
97.498947938448
97.5224403961435
97.584378442007
97.6069102850378
97.5728755428935
97.5655932586997
97.5308401193227
97.4982937875833
97.4766228844545
97.4880866963077
97.4447263856185
97.4336002810036
97.5209750189579
97.5291948070125
97.4289534141231
97.3371627575195
97.2980430098761
97.3580673249699
97.374156104533
97.3846368643407
97.4070287031605
97.4022410634584
97.404507762253
97.3765982357285
97.3244084033929
97.2767870365639
97.2386800404175
97.1979028852496
97.170987091137
97.1220713659483
97.0771646854611
97.0165685457068
96.9864160550124
96.9718925967543
96.867178260496
96.7439881389428
96.6950210448034
96.708127687647
96.5626574997862
96.4433725924606
96.3670704078592
96.2673076604658
96.1200571678057
96.0288382307
95.9174976616063
95.7637028737213
95.6271665098909
95.4616267056408
95.4142533846215
95.2935191596146
95.2137189208589
95.0920766284362
94.9754909342444
94.8593657049619
94.7820571224829
94.6570032378622
94.6001884835128
94.4809005980251
94.368313240051
94.3187791253489
94.248239236134
94.1633918117252
94.034815926777
93.9590394734013
93.8726927444061
93.6631746391145
93.5303292461685
93.3354881042794
93.3129994042731
93.1763767577175
93.0183856567143
92.8238639717296
92.6150472707753
92.3211909920253
92.0023958500515
91.6980117556531
91.4207209788217
91.2582526541685
91.0394781993172
90.7837752553694
90.4909528560116
90.1960577549103
89.9165571317753
89.5170179149482
89.2654671033255
88.8228046732518
88.6065882214369
88.5071018291361
88.223202184991
88.0318204730656
87.6459882762777
87.2209418110056
86.7906961530228
86.4908217045706
86.1811970095774
86.0964986246229
85.7490097630432
85.4114794906844
85.0435268162232
84.6714663167222
84.3476902350671
83.994920055014
83.7366464113995
83.5100424349348
83.1592247014165
82.7694689307664
82.4821339278122
82.2273468214392
81.7204483507621
81.2039277681361
80.8735678622037
80.819399818658
80.675193847327
80.2624563422468
79.9741761833095
79.8709774229155
79.6884926620838
79.3516106734354
78.9577561813864
78.6459507487889
78.4633394349896
78.4300270789571
78.2337160892493
77.9720716365996
77.6674034595365
77.4083809380228
77.2044764285171
77.0201974394616
76.7471560662104
76.4327401705791
76.1961481004023
76.086273272074
75.8701849301835
75.5292133312323
75.2441179639022
74.9837703436204
74.764484016023
74.5090915792717
74.2690413280627
74.0246528481075
73.7886341918704
73.5487520733602
73.3466803488554
73.1449548626383
72.9724912715773
72.7827668961697
72.6386342162205
72.4493339005505
72.2865722861983
72.0846662262511
71.8395355471971
71.6837474557879
71.7351547947258
71.7640773759009
71.6008722907977
71.4907273953514
71.5609719980625
71.6174484722852
71.500709488163
71.2135185412556
70.8996904181175
71.245116704502
71.9126165314563
72.2169304267824
72.3105189434422
72.4806185563508
72.6604584545732
72.8411009672399
72.8930960340136
72.9600135316217
73.114452883527
73.793063193588
74.5904965956009
74.8766846082281
74.952297934703
75.3217945105394
75.7170081458476
75.863749020803
76.0639255921939
76.2288904511467
76.3980708556848
76.6811194080608
77.1170012409169
77.3931197156023
77.6004837153534
77.798328197556
77.8512558203899
77.7483107666903
77.6122277974449
78.0823263367713
78.8490425290048
79.0761606697721
78.9269277931249
78.848253269863
79.0345816631312
79.346405165034
79.4546796771772
79.3226150805777
79.379641613108
79.6673589537478
79.8683091218382
79.966348350651
79.978016234725
79.9946027391657
79.9814376366857
79.8358569884508
79.7043930154308
79.7213882728559
79.9305908733102
79.9358105119811
79.6602427431233
79.4538801502012
79.3907648880747
79.249535975341
78.8068204461856
78.4826193219031
78.5483134561005
78.6798918930242
78.4270596652015
78.1488353445627
77.8793308177627
77.733642263598
77.6123312583345
77.435246714039
77.1439692103657
76.7636703762047
76.4083249162955
76.3329891553276
76.2472071986468
75.8868389519219
75.5467074997177
75.2629115784937
74.9548309251068
74.5927294387746
74.2269767123883
73.8161559099787
73.49020957552
73.3780768611911
73.1123758281099
72.7940750360256
72.500912302914
72.203853826278
71.9062068877987
71.6760965346731
71.4942458124843
71.3097152006487
71.1217191171905
70.9800158985892
70.8882581675466
70.8583964441753
70.9077665783864
70.8364808101247
70.7328985945754
70.7498918895682
70.8819198694204
70.9591007261744
71.0106369257311
71.1049656460702
71.1841373042327
71.2545571728541
71.4289691992606
71.7127640472309
71.9201933908199
72.1302745302216
72.3582904277801
72.5334910122698
72.745573669875
73.1039558918003
73.4232212428436
73.6622534125596
73.9261879823971
74.2131425828721
74.4583089550445
74.7095436770763
75.0016507010718
75.297475138239
75.5421897463396
75.7381632563473
75.90993033917
76.1778569497701
76.4928235529607
76.7276328358456
76.8827976364418
77.0488689961204
77.2398624110486
77.4116528645564
77.5717962994127
77.7100376367461
77.8258389603645
77.96172323362
78.0971463351035
78.2007944283676
78.2994766988283
78.4409643968117
78.5758839276528
78.6883031062874
78.8097977960758
78.9359946226907
79.0442637715813
79.1590471962541
79.2931431364696
79.4207301464844
79.5370865706812
79.6579355647547
79.7619572046148
79.8683925824519
79.9719762843212
80.058121798727
80.1332638760953
80.2186653045991
80.2907543746949
80.3487112670371
80.3966198111955
80.4278971267989
80.4265585937267
80.4231187774834
80.4444588483871
80.4678132281182
80.4782516043378
80.4785432036363
80.4880114972577
80.5194434560825
80.5568091339868
80.5819615028414
80.5973830562321
80.6350757473698
80.6713126827551
80.7049095857328
80.7239710805243
80.7277221750076
80.7520336874176
80.7878924676433
80.8010237818817
80.8315460715964
80.8849176084881
80.9381819172174
80.9798612807204
81.0079451587272
81.0267797410372
81.0678486316168
81.1402546178518
81.2188848691586
81.2871604944942
81.3562430947483
81.4285508199462
81.5153748801144
81.6032136835206
81.7019492742586
81.8103704864624
81.9316260980879
82.0488887648513
82.1558016150509
82.2749487061904
82.3954053250204
82.5055214359317
82.611500377712
82.7086190659473
82.8129863613772
82.9024465218818
82.9752697087033
83.024864908712
83.0736765724706
83.1327466362432
83.1646982737874
83.1818396712552
83.2058740008212
83.213101263331
83.2039905342897
83.1801738005354
83.1759870943047
83.1720566038614
83.1533072126147
83.1306787377991
83.0977481593231
83.0492683450889
83.0038586377893
82.9464420267342
82.8802040585334
82.8141193815511
82.7393565392672
82.6591655614862
82.5966210801984
82.5079558499353
82.4055352539896
82.3061404143003
82.2018645289748
82.0822190734637
81.9664788321043
81.8505316052437
81.7182740822359
81.5381650103142
81.3636652949469
81.2330805291583
81.1198783602678
80.9999044444672
80.8724728598603
80.7374549440885
80.6263288790557
80.5147769061179
80.3935096119878
80.2817503908437
80.1913713249656
80.0908997605227
79.9797690305517
79.8535717535975
79.7120326182172
79.564429208158
79.4375024366108
79.3016757725026
79.1686997948387
79.0370467427216
78.849772103817
78.6318375288919
78.4629976283778
78.3080645294176
78.1387024512163
77.9793036973395
77.8305911253123
77.6761218639767
77.5368477451117
77.4167617129082
77.3178481336682
77.2065829051298
77.0727628828654
76.9482171381485
76.8253956109221
76.7240458076083
76.6615727278423
76.5556692656078
76.4320702724124
76.3224269423446
76.2203944753337
76.1260655512986
76.043352013027
75.955195258264
75.8755572781642
75.8199141659816
75.7814888312356
75.7490438274179
75.7522721918934
75.7638762240566
75.8057493150479
75.8799066472255
75.9578335484734
76.0425519309364
76.1613822739048
76.2815239424043
76.4068223372091
76.5456401689984
76.6887330025782
76.8279760629316
76.9985610198132
77.1990247436854
77.4172904665238
77.6426223682292
77.894905295897
78.1251029127349
78.3250011707085
78.5398505597289
78.7714586775257
78.9897527540525
79.2118271469215
79.4443583136003
79.6581174108371
79.8363393855286
80.0593515893117
80.2736356325977
80.4320185111817
80.6026944627288
80.7787529792085
80.9468713986988
81.1100578799958
81.229751211113
81.3558020789343
81.4942746882632
81.6406952192173
81.7894221039
81.9254242360306
82.0500494795789
82.1804476929537
82.3206683714622
82.4578558033461
82.5956373908778
82.7449853174475
82.8945878025799
83.0292240696055
83.1454545880207
83.2637731338654
83.3663182751672
83.4880200686656
83.6327287989559
83.7311482843613
83.8245361346873
83.9693327013391
84.0851029032863
84.1638863024547
84.2160656935266
84.2717116662408
84.3296780127859
84.4086037373259
84.4877892220204
84.5097466366602
84.5091512522801
84.554883820846
84.6001351084567
84.6124719680553
84.6408027547675
84.6988382447826
84.7403844037069
84.772230888988
84.7907437425256
84.8121453290261
84.8426099921763
84.8548404314876
84.8633302774458
84.8773440786282
84.8290350914082
84.7987555815129
84.8184729758434
84.7960094880656
84.7562930623076
84.7041572654381
84.6199243681595
84.5098718327811
84.3602393668909
84.1824186596588
84.0147737861113
83.853283408693
83.6540285812955
83.4408269077173
83.2401689882046
83.0749873541126
82.9140710178649
82.7744882055191
82.6683151700741
82.6002447624582
82.550079155664
82.5484415300094
82.5995740442683
82.6567628513903
82.7052708480437
82.7680441296752
82.7743996050672
82.7345237890363
82.6745984456414
82.6034329811476
82.4656474595198
82.346334250143
82.2463566357931
82.1093023416012
81.9697490364361
81.8330971651365
81.7156458229494
81.6108762738843
81.4571322485923
81.3080720382173
81.1582506757327
81.0267976960317
80.8892147493625
80.7656123529103
80.6138967594817
80.4549013047112
80.3145852840209
80.2006400003961
80.0607375852717
79.9052211731249
79.7692028226978
79.6656374736515
79.5610917713849
79.4597291235069
79.3498805259087
79.1935410128887
79.0459674645833
78.9582274385048
78.8546530391298
78.7579724622766
78.7052562266361
78.6433451288928
78.5480948230253
78.4880332538006
78.4621210701368
78.4131872680669
78.3302850965579
78.2511883082079
78.1642804606701
78.0872697703582
78.0199514426771
77.9592866672259
77.868035659483
77.736393978545
77.6412840904144
77.6025273386429
77.519134519636
77.4391395213151
77.3064441868957
77.2038698726892
77.1450534247437
77.0566502140233
76.9892443728585
76.9564162527385
76.8493569935884
76.7038073921994
76.5647452136038
76.4699329579549
76.3784579616852
76.2372139320563
76.0932581890001
75.9948722448425
75.8467845828447
75.7069326084964
75.6166369024183
75.5775047891228
75.4706444140265
75.374415337918
75.2896132441275
75.1301755470618
74.9212784424037
74.7610645888493
74.6889283362136
74.6351865932306
74.4212099729632
74.269875901636
74.1662329742515
74.0192407657143
73.8729831803033
73.7714225841759
73.6957813441776
73.6468903519069
73.5372863356586
73.4436893043031
73.3353758112463
73.2260491785189
73.1318945362406
73.0567975368075
72.9503782629393
72.8869438435806
72.7590662416096
72.6158241715994
72.3509173764273
72.543187332466
72.6157662794894
72.2712656580917
72.113428909172
72.011043714284
71.9653455645896
71.9116997291639
71.8209066960391
71.6942616566535
71.5542541381616
