1798
3999.43349933624
650.420452594757
1
128
4
94.4390937949328
94.431884518607
94.420060493583
94.3491673169399
94.3336070997809
94.3758080391009
94.4328406274159
94.4470668668734
94.4341887508089
94.4424689562975
94.4308457956627
94.4618152246289
94.5233514584078
94.5314779703662
94.4723809017668
94.3803136190285
94.3777175773233
94.3198528545916
94.3237468639345
94.5196391817404
94.5315098770936
94.3858296768395
94.4533278046025
94.5394825194345
94.5522484340416
94.5375319636916
94.537171215132
94.4322277913108
94.463882572571
94.576124074765
94.62506859785
94.6196813754047
94.6385234237417
94.5807785168314
94.4372616410229
94.3625580573619
94.4415863404673
94.495852050651
94.5600437611258
94.5870477501174
94.5567965509325
94.6204851879996
94.6836186528637
94.6564286996097
94.6725892871655
94.7251635318528
94.7702082026388
94.7257935169284
94.5768234807037
94.4453266680576
94.4075612157482
94.512528114118
94.6470438401666
94.7016237145877
94.7080025279659
94.7157942843149
94.7944736465078
94.7225052335048
94.5983277263443
94.7341024393902
94.8702083989243
94.7952856717588
94.743175709608
94.7776813615769
94.8000876680306
94.7211418169365
94.6096344396001
94.5772797673228
94.6415269916097
94.759192520901
94.786600651721
94.8421662738453
94.9162980535765
94.9027759072625
94.7447087793322
94.5612013762265
94.5465347781
94.62475376529
94.750394035467
94.9353517128953
95.0282254727096
95.0527614528051
95.0314194706617
94.8352457292578
94.6808696986043
94.6418238231897
94.7316395432858
94.9282418002408
95.0440208743723
95.0892957923601
95.12129192491
95.0018012258607
94.9539533201743
94.8375814179289
94.6922246550815
94.7592175208956
94.9403798457464
95.0969976483318
95.2495621981945
95.2310801819551
95.1878559238026
95.0424789437303
94.8209706095846
94.7720985326037
94.8489971991829
94.9777106619157
95.1446653295452
95.2400272168717
95.3072363795422
95.2484739253697
95.1755767183143
95.0999347020037
95.0377545057762
95.0327919333031
95.1047690673808
95.2775576880754
95.2291383283115
95.0782878953854
94.8823229642278
95.0151085401434
95.2782377856329
95.0974197074884
94.7400315658979
94.9180059845438
95.1961788250756
95.1766230891286
95.0763233405417
95.1577258594856
95.1525591749358
95.1746208859178
95.035354547095
94.8719175294643
94.8319161807528
94.7050771588077
94.4866372207587
94.9987979659241
95.6935414076047
95.5196774468158
95.0668472174292
95.0984229586579
95.1937727645722
95.4405111289568
95.4174413192544
95.3701475164686
95.7918108730994
95.7675645775517
95.4753115790367
95.0199799805457
94.8322720676737
95.2934252899119
95.5990579116386
95.6014626641957
95.3730617199234
95.1231191533347
95.0878217890317
94.8790921428974
95.0770211370114
95.1893642638881
94.9772099075969
94.9262378640539
94.8649980096583
94.9859681835761
95.6537897486693
95.7280579566653
95.6438281539736
95.6751930072537
95.5288230295545
95.06350841793
94.6107124502792
95.0175662365231
95.2978910923309
95.3554593972471
95.4601986453642
95.4743081239342
95.1600674241864
95.0917715974164
95.1526379531048
95.3928317884106
95.50876959772
95.3395864776794
95.0217559271916
94.7903871773049
94.8109631363866
94.777152971025
94.7555999509797
94.5186461760713
94.324037546586
94.6805185671461
94.767175222554
94.606623257652
94.7346563505258
94.6434601120731
94.3160389945211
93.9925957628005
93.8142926110473
93.6662856958536
93.5071862518816
93.5060316954179
93.595461476278
93.4775509293485
93.4689399407894
93.3810721799197
93.3025754969588
93.1891715866521
93.0314459950481
92.839789268071
92.8195881625012
92.7822437108187
92.6393863633227
92.5770744045423
92.5354867293306
92.4739968856251
92.4476110921069
92.2094195930527
91.8379004567532
91.6779353880316
91.6216538769789
91.4785700411814
91.3945637311177
91.3381740382535
91.3657015160679
91.2236203416937
91.0601297805317
91.0981322893777
91.1388598330417
90.9204530762261
90.8749404342006
90.8184241628685
90.7284842804016
90.4532911437383
90.2705981563719
90.1391297937698
90.0305252067439
89.8830948082903
89.8860919050925
89.8402100444626
89.7663811582228
89.5813052051146
89.5058839673517
89.4443474522831
89.4149516725075
89.3386681524122
89.2320816074569
89.0708533070797
88.9858419716038
88.8334557231838
88.6786062622973
88.5690616374673
88.5265812069546
88.3761775164095
88.2351383607419
88.1407654953555
88.0490919681976
87.9208173298612
87.8106423455227
87.7785254718713
87.8223641826783
87.6353456046
87.5125417801527
87.3691813925972
87.2694571999811
87.2945547130492
87.1406949110784
86.8142143980641
86.7602615124759
86.9164987420371
86.9155425632484
86.5863659897339
86.4669323232677
86.3472471777962
86.2452921133146
86.1000879064345
86.0206908043563
85.9853358779689
85.9338165156231
85.8294854210399
85.6061532049831
85.4202848541655
85.4297820533342
85.4553985378232
85.4279397418921
85.2664619476463
85.2332745457791
85.1010652471461
84.9510803831999
84.7935837874266
84.7264751410964
84.6268229872403
84.532687689453
84.4714201891318
84.3873812956041
84.2350813669733
84.1745495611641
83.9819410149034
83.9510122396776
83.9532955944978
83.8880840064977
83.738320100334
83.6030159764967
83.5827671488859
83.5207659627749
83.3183038079798
83.2441052095201
83.225161003572
83.1867501999838
83.0694413943322
82.9390328495343
82.7884314475964
82.7219783983585
82.6427663642814
82.6104724253397
82.458142743735
82.3670300054237
82.3711857284076
82.4193830020476
82.2341198121033
82.1669556202942
82.1652336067787
82.1522236050225
81.9891329801487
81.8408051301144
81.6644671944669
81.6459434616687
81.670813973844
81.5969191152108
81.5262317381175
81.5493344252804
81.4357690170027
81.3864627026658
81.3491084703351
81.3061590082277
81.1816657926232
81.2099833321513
81.2032058748715
81.1463849859421
80.9433317753285
80.7730573730329
80.7422380552129
80.8523699897517
80.8459511060542
80.7653050741452
80.7021892910384
80.6199517595254
80.5788857978192
80.6517187248036
80.5668263870057
80.5073721230757
80.530749769562
80.5224804036503
80.4524070803529
80.4716562843762
80.3835556922083
80.3026068887378
80.2617472282279
80.3049120670685
80.2143127448477
80.1798620896721
80.2086944278364
80.1990151823265
80.1606932137954
80.1904693873089
80.132349735287
80.1150563608783
80.0715398028253
80.1427286202893
80.1799052447362
80.2266874239077
80.1550870481408
80.0596289759932
80.0618729273752
80.1944098964056
80.1308379857428
80.0649801034245
80.0286927225166
79.9890390826367
79.9641799158731
80.0414023957753
79.9445363816401
79.8444152135228
79.9430331421009
80.0556907720808
80.0243719770266
79.9257907993036
79.9010080150008
79.942573787299
79.9476624850513
80.0512037095575
79.9855280245895
79.8922545511659
79.9117119522178
79.9433854068264
80.0101475376616
80.0555766585816
79.9962577710525
79.9215526055525
79.818226262891
79.865656897802
79.8317286640315
79.9164604644097
79.9529306070849
79.9371883297267
79.931117892839
80.0099033124807
80.0088780593515
79.9760706595073
79.868671442457
79.8254970230513
79.8768027881903
79.9205303729132
79.8651187622309
79.9468555274742
79.972361023442
80.0199156382035
79.9144521300566
79.9175615888012
80.0050790031459
79.9703465041248
79.8719290720761
79.9770078363463
79.9649974966077
79.9591430327973
79.999924140438
80.0801048713116
80.0285762213547
80.051201113396
80.1066755245776
80.2435382835746
80.1666080540688
80.136257024126
80.1435457397314
80.1977472680843
80.237513484766
80.2636280548031
80.2230674289677
80.2524525750885
80.3197491432246
80.4635967249643
80.4881940971111
80.5367865703462
80.5451256151029
80.5511158958118
80.5892644317872
80.7165228542511
80.7354055086936
80.6854607962598
80.7129555850137
80.7765542107124
80.7545502312575
80.8448998214374
80.976183156606
81.1300234443388
81.0924641932188
80.9888594714592
80.9798204548212
81.0968413328449
81.1636224097973
81.2203061386997
81.3425651913603
81.4089074289154
81.3761841681166
81.4651030028191
81.6223126942297
81.7070888021227
81.6162966777749
81.6043467678827
81.6293471605285
81.7072138734273
81.8201598606758
81.8771186229602
81.8719559680682
81.9561183630154
82.0004017290341
82.0667131331288
82.1859331183669
82.3565744619739
82.3933963014207
82.365306362553
82.4211381255405
82.4499551198015
82.3998123226465
82.3892967914234
82.437881623656
82.6158485849341
82.6615527375829
82.6885320531899
82.7289549669081
82.7644222814466
82.774924325049
82.8470610068636
82.9387971123733
83.047361362125
83.086796328355
83.1382930686115
83.1965525784879
83.2959941260097
83.3290268630046
83.2826939700098
83.2724059960265
83.3926862796818
83.4799740220876
83.5469889107342
83.5720384386582
83.6110568859146
83.6439617584254
83.6688253238712
83.7302951260313
83.8349472339369
83.8691764748278
83.9325444406602
83.9770460073174
84.0567578949266
84.1084335848967
84.1757968596768
84.2437370106852
84.30642156691
84.3826574909206
84.4191138440206
84.3947225101983
84.4971134545767
84.6643519664458
84.6733796288022
84.5397494276879
84.55577915773
84.7486442729732
84.8058749882668
84.7847326879897
84.84373641258
84.9098689107991
85.037477775577
85.0778346001617
85.0935692873106
85.1042742396525
85.1420384152223
85.1638661108135
85.2018511861042
85.1754346627979
85.2620696286904
85.3700711654191
85.3867636598243
85.4026079700327
85.4923204722182
85.4752204623892
85.4141675259692
85.3613980432233
85.4106030635098
85.4492574891084
85.515308290948
85.4896126282781
85.456144714434
85.4099152664803
85.4306256192052
85.4837707277509
85.4586599782043
85.3731886908588
85.3869559235604
85.4208289155625
85.4059365451638
85.4474582299022
85.525360867928
85.5587177093098
85.5612959854942
85.5800520920071
85.6090617859914
85.585029938835
85.5827711210514
85.5605500225588
85.5619689718752
85.548552548608
85.5246998101332
85.5440667238509
85.6285111486695
85.684636657988
85.6498013265631
85.6337403041025
85.6532083595664
85.6494538477677
85.7003385358268
85.7375235126173
85.8171658733657
85.8800037186222
86.0130859960424
86.1310918922642
86.1970014272144
86.2487288231551
86.2752595148704
86.322470453256
86.3879294879009
86.4855506689842
86.5745180859103
86.5657802551502
86.6494379453207
86.7211182659242
86.8350421687667
86.8546482640701
86.9036677140901
86.9894669488107
86.9626826590264
86.9766881164092
87.0601157092388
87.1485576578522
87.1867548309132
87.2094300066176
87.2280448648896
87.2687874621576
87.3718308163057
87.3908160864269
87.3432430754078
87.374551603467
87.4673296684098
87.5048024535151
87.5855013450353
87.6908059379638
87.704485897407
87.7072974713643
87.7673951428009
87.8185941191135
87.903035471157
87.9550177661945
87.9803812311773
88.0633334671015
88.1621078600979
88.1931341962607
88.2595888838408
88.3451680497198
88.3970494784592
88.3890098295697
88.4514125359377
88.4995853499359
88.555297126475
88.6425077661144
88.6975365496576
88.7060067171483
88.6905385350262
88.712232761232
88.8152876068257
88.9308528714527
88.9549076163019
88.9534431296964
88.9843600434428
89.0996253555174
89.1244399815642
89.0998601315363
89.1586326137636
89.2177722816732
89.2815626921893
89.3230273177656
89.3074252779767
89.2776716594895
89.2707856880766
89.3261165820929
89.4153506249257
89.509188839974
89.5708603290026
89.6267380543432
89.6327487312082
89.5824625985326
89.5778827409904
89.6576693073091
89.7327067218292
89.7919691133411
89.8647005162404
89.8729945958652
89.861406933767
89.8837631827196
89.9312629161036
89.9320841735814
89.9428125048452
89.9747768961285
90.0018133130188
90.0259925725558
90.0864896564648
90.1646342460061
90.1707758231982
90.1377386108429
90.163268672669
90.1836407711541
90.2309092035357
90.3067288623778
90.348450913558
90.3313584124281
90.3379895654609
90.3948455281527
90.4224956325603
90.4283219439295
90.4352166192355
90.4371425498363
90.5168733899142
90.5889249280495
90.6126337091946
90.6179575343852
90.6256612747767
90.6167520184568
90.6345892297928
90.6763883750894
90.7420463077939
90.7936555119091
90.8212939369591
90.7822990781598
90.823933311908
90.8745031674657
90.9056385961803
90.939301261218
90.9278754516997
90.9250841489548
90.9834002732877
91.0067033058216
91.0469127693817
91.0938284930701
91.0949504534111
91.0900331595208
91.1377616975066
91.2026787125304
91.216993469375
91.2303649672555
91.2168217380173
91.219287201274
91.2509648322526
91.268417705981
91.2933394098651
91.2561202388881
91.2524153653101
91.2953901233578
91.3267767761508
91.3352186207993
91.3424066176995
91.3268564236669
91.3569560248403
91.4039438721738
91.4510382133766
91.5246115114682
91.5542136884687
91.5343816171294
91.4995284534599
91.5504706065299
91.6474616079982
91.6785072602845
91.7621006445831
91.802133420599
91.8036897016317
91.851520640729
91.8624615773332
91.8538823081506
91.9413963311359
91.9702200030916
91.9340589886857
91.9552289046212
92.037145032217
92.0381450636145
92.0454557257978
92.155425090882
92.2222911077248
92.2349274429697
92.2634965628643
92.2683891390628
92.3006225835783
92.3453234432731
92.4032867009846
92.3837596258192
92.3855195739321
92.3566221530807
92.3649557875052
92.4694430275825
92.5502042577072
92.59470507179
92.6065717687374
92.5793838706336
92.5848878938409
92.6394991626257
92.6392894317396
92.7013301211822
92.7673209722235
92.7928469566559
92.8390663898336
92.8764838546141
92.7862862968282
92.7654791352132
92.8426067019034
92.8056401166609
92.8492841266587
92.9776425500921
92.9552286975912
92.9484289257927
93.0297460862664
93.0274915457306
93.0133820124681
93.0385782479816
92.9143518163693
92.9220621393358
93.1237158926593
93.1848943235746
93.0933056651797
93.1037351315459
93.0678179784308
93.0038681622734
93.0042889273807
93.2015752580775
93.3620612032878
93.3181128408276
93.2434445800948
93.1927124575373
93.1994314398672
93.2404022297881
93.2864708813365
93.3227710354731
93.2668777012135
93.2363308286068
93.347044750658
93.4173276378172
93.3461751287326
93.3451945136953
93.399597886738
93.4247607466197
93.3808640765548
93.3606974630536
93.4048189669834
93.3496892498715
93.3197691173045
93.4276370976802
93.4421819669337
93.4731076017633
93.5598880721693
93.5473689624903
93.5279532497638
93.5143675838338
93.5028935758428
93.4643306394331
93.4963639611508
93.5682291315367
93.4995119019994
93.4369671957364
93.4622500592745
93.5057992124393
93.5283181673685
93.5876228380584
93.6336206012512
93.6738029087955
93.71022019992
93.6356918747875
93.6556562484698
93.7139231692298
93.730943938379
93.6948419758403
93.6795053810028
93.7096441370212
93.6791833470654
93.7253454897178
93.8307089835867
93.8849756845915
93.8119551875443
93.7333480742551
93.6923226006965
93.6901366192021
93.6896750414153
93.6862062509334
93.7609371406618
93.8231727634622
93.7611950308453
93.8111551347819
93.8345930193575
93.7806319056571
93.7711825896505
93.8098348959185
93.7717258264292
93.7399704050741
93.8057668887932
93.8577137106329
93.8425522634562
93.7520762763256
93.6106502545461
93.5687667254588
93.6214039684295
93.5509473928661
93.4316734413941
93.4717495096234
93.5682449307373
93.6084939677641
93.742056504061
93.901327115161
93.891429009081
93.9446507651742
94.0990606309082
94.2224176474037
94.2431115991195
94.2871454299181
94.2835029334469
94.1187579402041
93.7819008949654
93.5214639151059
93.4622798476868
93.5487796985916
93.6929778536641
93.8045329299913
93.8657617588262
93.8397433791281
93.809030857679
93.8745700054566
93.8760345549728
93.7754415262313
93.6690505217917
93.6386757237057
93.6184389137472
93.6066446481061
93.6296419437524
93.7348567450804
93.8542482202386
93.8405639863058
93.8213507854003
93.8578488062559
93.8604436101122
93.9052409480184
93.903400158161
93.8467542016018
93.8349479362184
93.7948022473736
93.8102030491096
93.8379916459137
93.8068694581388
93.8875453979525
93.9890752564413
94.0399249411477
94.009507845457
94.1093954897769
94.2538347749903
94.2849516864595
94.3883251614234
94.4355222571389
94.3845968153827
94.3397879789883
94.3795606141456
94.6471108252726
94.9731163821798
95.0402117521161
94.7597332542731
94.5775041240723
94.6773858704854
94.7545042059454
94.8702788843736
94.981561543995
94.9782968648571
95.1254608016804
95.260568184889
95.3167850275438
95.29706873593
95.1137859369486
95.0543149907335
95.2931577883555
95.5014410396906
95.4630434043943
95.4755235469717
95.5668275708848
95.5284260514247
95.5123929482781
95.6683821968766
95.601966676818
95.4902791080763
95.6576541006842
95.7311946440129
95.7777422696053
95.8195198117129
95.7952211759972
96.1203336012851
96.3253635986683
96.1513238030656
95.975575341261
96.1638480971957
96.6016990408802
96.5134915919741
96.1601247231297
96.1400961200759
96.0961434369199
96.1608853233161
96.4197087363056
96.7369213967516
97.0188959990579
97.1142303918464
97.1078397398244
97.1043561684618
97.2899087107295
97.2619007310207
97.0639091081716
97.0146351558403
97.2502700393342
97.0839458012305
97.035966785514
97.3040027234596
97.2536523156472
97.4897383311942
98.2031724689643
98.4424950591139
97.9811540724915
97.5729411221671
97.6758741184026
97.6845247511304
97.7072189716373
97.7549842809217
97.3130322590356
96.885202375722
96.8338472231229
96.7198066556836
96.7111094198989
96.6168279904429
96.5018166377888
96.6141281268114
96.6343214595624
96.2164156026463
96.0039515849409
95.9705297865879
95.9375298040194
95.7511049271938
95.729288998513
95.7672693597794
95.6616220013212
95.5463954295572
95.4665836267873
95.4320898330036
95.5747491219832
95.6389290540705
95.6715361751054
95.7558041604417
95.7816109100324
95.7580199846338
95.9024629296737
95.9724154592524
95.8899593465244
95.9776866777195
96.1593311468113
96.1387339627008
95.9642287566875
95.8239564486781
95.7000201491216
95.7709348401449
95.9556770212503
96.1092413114016
96.1785961698221
96.2285531668349
96.3107555795676
96.2931776679914
96.3258113557276
96.432492392518
96.563636469908
96.5993903026028
96.6879460144415
96.8621724310275
96.9807973801248
96.8631338621024
96.9311448032341
97.0408691437421
97.0226162836113
97.0462981227446
97.5259967050927
97.90076034439
97.9449290516155
97.8880047246078
97.8456641724592
98.0995651978022
98.4298022480804
98.4303553676307
98.4263173222738
98.7067924587836
98.6808372928569
98.5004349511786
98.70397954481
98.5378167718345
98.1913318366901
98.3560224357698
98.6954018460793
98.6112130356483
98.3051068790443
98.2231145929742
98.6746920132809
98.5783676426002
98.1153847333789
97.9449463727688
97.9430925980025
98.0885696750448
97.9539464703579
97.7349891210796
97.7678084890425
97.7110293246179
97.8434329180211
97.9131609926371
97.7621252659044
97.7454536446576
98.020874081887
98.4631707871699
98.6105739830369
98.7145457379817
98.8886669643897
98.5857687938816
98.3335110943308
98.2426320146823
98.4002358487202
98.6799717062681
98.577472247897
98.2405528063871
98.1071967410579
97.9014527537836
97.6516303507916
97.5739889399876
97.4222402984761
97.0787597152964
97.1957800940246
97.4841289770896
97.3882188271932
97.0780006922441
96.8768039213223
96.9377473538337
97.1443844956154
97.1296459771066
97.1624464261607
97.2504692432155
97.0884697555388
96.772649571425
96.6369152935322
96.7059139503822
96.8577877290063
96.7612940737371
96.613503863083
96.6731206530743
96.7556780366625
96.7519568082798
96.7296574077307
96.7345416105869
96.6970245222223
96.6551933791522
96.7148310431351
96.6862577418095
96.5522533525402
96.5081183579084
96.5868300988122
96.5946006382838
96.6343660494695
96.6412371268594
96.6441419609362
96.5938738484687
96.5256376491791
96.5305556355453
96.5429122928765
96.527392654971
96.5111488440338
96.4724564813361
96.4141584520381
96.4168319834332
96.4760272919821
96.5020332597834
96.5498004324329
96.5560947542317
96.4938974749289
96.4608992398769
96.4677297245503
96.5003241097936
96.5618465407202
96.5095190416632
96.3734430648796
96.380723285279
96.4435674734604
96.4610044191199
96.5521074077154
96.5690595231846
96.5337010846189
96.5492016559923
96.5168952056469
96.4715819295162
96.4722451023104
96.4849578108274
96.4540854571072
96.4009381082391
96.4424765479777
96.5002497268239
96.4857435392366
96.5076474482992
96.5355560142726
96.494139586197
96.4214941539867
96.3811525676802
96.3899013623446
96.3339527868618
96.3060676707294
96.2805036448251
96.2095243907504
96.1784003362891
96.1759083954965
96.1095731190612
95.9865686491626
95.967484443961
96.0378404201943
96.0098398454316
95.8876364133218
95.756249597208
95.6316249179573
95.5345444525665
95.4372268102701
95.3217541441538
95.2017189185183
95.0859548328039
95.034756535993
94.9495153679548
94.8302540764984
94.7321570399544
94.6082563906397
94.4634403937438
94.3758312782728
94.2609134704878
94.1994564360713
94.1556612915865
94.0212835229281
93.8810517787848
93.8283660902563
93.7878138589458
93.7212371979622
93.6402825431653
93.5110553047146
93.386138840976
93.3265118422638
93.1750288419648
93.0412540721687
93.0676004274816
93.0520692246948
92.871163673403
92.6286766379418
92.3153577399379
92.0332013456341
91.7546597245845
91.4583342320109
91.2697399966722
91.1849666031203
91.0341247130142
90.7781918864427
90.4467571776256
90.0497752802028
89.6524577445902
89.3698533703786
89.0309888933039
88.7513311266426
88.6225405971193
88.4488501905044
88.299730878481
88.0611832725609
87.6380545065372
87.1638453152456
86.7014303470457
86.2883812856341
86.1681159607903
86.0847330773039
85.8088639956901
85.3999303824797
84.9055923186701
84.5253030087647
84.2597847434996
83.9146950650597
83.6126649965565
83.3695714332135
82.9974895615707
82.5670098410241
82.2455612216676
81.9303083421277
81.5294816645376
80.9758768428716
80.4035519426099
80.3791124295045
80.5559534947815
80.2349813965695
79.8160114878335
79.583422624164
79.3417616151965
78.9609624861993
78.4997773941481
78.0630512049429
77.8693150535279
77.9317324649075
77.8526403412865
77.5299268260475
77.1508693752871
76.8675266111958
76.6379441181944
76.4716841369185
76.3108148379856
75.9596177135325
75.6625911552372
75.6021512449018
75.4304154356854
75.0962573467841
74.7295633231191
74.3997972415454
74.1234892215558
73.8690253901347
73.6162487836714
73.3436407343834
73.0444639324045
72.8075021840224
72.6182841369996
72.4128480330385
72.1623277664838
71.9123590046421
71.7110896224585
71.5419062380971
71.3464080598607
71.1520351090208
70.925097766227
70.6072789289427
70.5319742524541
70.8018142361255
70.7286638887918
70.4459773277614
70.4450430167421
70.4922915132212
70.3972405560599
70.216227737968
69.7751297375193
69.5960725529332
70.5482928983968
71.1856520191994
71.2687961340507
71.2499867358945
71.2743909069755
71.4191445494835
71.5185581460824
71.6144055736555
71.7790056407475
72.0641674537309
73.0002532202006
73.8517957452456
73.9372041533174
73.9916455802536
74.4144171838176
74.7093422692856
74.799764478854
75.0120478275897
75.2585644872159
75.4306285790388
75.9509506736163
76.425037759293
76.628057870835
76.8222997772454
76.8827238725165
76.8937298038198
76.7974142315823
76.7923243540363
77.592905054442
78.271529002417
78.2343018970599
78.0303639662879
77.9883257966225
78.2368639645374
78.5831092159189
78.604183228692
78.4886424558137
78.6291680438915
78.9353639839658
79.1192282921278
79.1237326082814
79.1261509509713
79.1338752578217
79.0626896964099
78.9897658342047
78.9795986704146
79.1438344281826
79.3283376232642
79.1894960643156
78.8484305907528
78.6269597720813
78.5690229577967
78.3379167552514
77.8925263345287
77.757033650555
78.0503344181893
78.0035582805366
77.6368801675208
77.2545958375508
76.9846877848935
76.8608045506015
76.6650680690423
76.4073697003063
76.122208348931
75.7498001736402
75.5457589053882
75.5605232854955
75.3169234813151
74.9047972701128
74.5756216321443
74.2663814753166
73.8751458313582
73.4883423880757
73.086267119904
72.7087463155717
72.5687518841105
72.4077278596083
72.0313349254905
71.6038211685864
71.230234722106
70.943983480727
70.6600382546409
70.3912197911495
70.1735760558683
69.9212135054949
69.7173170019111
69.6239845083131
69.5288681458519
69.5473037108691
69.5646792198328
69.4112628799516
69.2682261064536
69.340498243541
69.4869244256418
69.547430134692
69.5751179549243
69.6390830720254
69.729162720373
69.8417765851627
70.0880924685329
70.3531692761439
70.5327115767577
70.7489749972924
70.9591746693866
71.1443128315212
71.4668085833582
71.8848285008616
72.1935928707895
72.4130816895365
72.6594090540652
72.9614752317619
73.2584416449606
73.5506584018418
73.8424696637307
74.1463814492825
74.4228523337423
74.613359329811
74.8323177866503
75.1673341031911
75.4847218595758
75.7145204579478
75.8977638363036
76.0795655222331
76.2564663785066
76.431856750745
76.5970399387771
76.7354343210518
76.8448547507902
76.965365000716
77.1210332665391
77.2687087751947
77.3913048895982
77.5175055545558
77.6380503733409
77.7523281281864
77.8694726694144
77.9953560550601
78.1231803198162
78.243201756603
78.3718686169458
78.5150910341585
78.6597231591093
78.785145005465
78.8693490769442
78.9461864184654
79.0645852071554
79.1975863893556
79.2815842776919
79.3454369880538
79.4060350500276
79.4582712257919
79.4982644889595
79.5375821435179
79.5868327095796
79.6256825718114
79.6340710454041
79.6288451168622
79.6300539032201
79.6357244981296
79.630580562816
79.6443282783706
79.6878294686061
79.7224219847426
79.7472560100786
79.7769606866052
79.8050381809115
79.8302233682598
79.8351235162963
79.8408630937889
79.8788750359832
79.9170188252082
79.9434683377922
79.9694352385564
79.9889949256694
80.0283014398485
80.0803885031017
80.1175725626704
80.150272492284
80.1983014197433
80.2669078956286
80.3481225148138
80.4271491821526
80.4833279861305
80.5378334809853
80.6433679936479
80.7672808633972
80.8604175171887
80.961908879122
81.0830803868851
81.1855586048224
81.2851741181338
81.4009667040267
81.5361170343413
81.6657284251059
81.7792074030083
81.8937487170754
81.9997838948503
82.0799682640344
82.1706309383375
82.2524275504444
82.3018339809448
82.3505372643364
82.4003397961238
82.4128003509365
82.4202008058747
82.4456817184444
82.4457500484437
82.4134421654708
82.3945864712689
82.3799840058865
82.3673979730256
82.3647202752694
82.3388831134913
82.2944690028284
82.2647662024772
82.2179117202648
82.1356600720833
82.0599413223447
82.0042574315075
81.9210675523508
81.8004962706254
81.7062523780362
81.6295696799997
81.51899520116
81.3992161762837
81.3032402617861
81.1913367651071
81.0465739168477
80.9081908837881
80.7574304159321
80.6045968120659
80.4795748365067
80.3361925672753
80.1821875352999
80.0375424777077
79.8945051147922
79.7635869598502
79.6460902392449
79.5381951571439
79.4256567854233
79.3319420945951
79.2258941986667
79.1019986983558
78.9798006276014
78.8524577294267
78.7275613704266
78.5760577705274
78.4194727009051
78.2664256680993
78.0817600307753
77.9156998192504
77.744636971865
77.5651215503944
77.3990849070086
77.2301663361882
77.0639691621696
76.9215518691722
76.7923516553982
76.6483249455753
76.4813962261655
76.3169313933356
76.1777279230463
76.0767091825019
75.975759168579
75.8485674247646
75.7061196330663
75.5768790524004
75.445053702669
75.3246175372963
75.2323182665121
75.148910783293
75.0333371607323
74.9015611657796
74.7916171761715
74.6915853879504
74.5873373062762
74.5277268456161
74.4787170944142
74.4449444151003
74.4499673525833
74.4973484500094
74.5459299936295
74.6013544417965
74.6902880223621
74.7985508109476
74.8893498338914
74.9937097106659
75.1340712669104
75.2818251588106
75.4376238305864
75.634543538655
75.8519061464714
76.0720845700702
76.289334766414
76.5270632414288
76.7714674291674
77.0072796209482
77.2435604251448
77.483859913824
77.7148767211109
77.9273338839827
78.1420257891507
78.3768678657864
78.6124190023789
78.8480882901593
79.0441449074748
79.240024971953
79.4460254014359
79.6260074956304
79.7753925576642
79.9228731436424
80.0704628492384
80.2228727040274
80.3615772623164
80.5112008217797
80.656776333886
80.7978692058457
80.9168626295544
81.0535265961493
81.2113351388238
81.3714963720761
81.520881906202
81.6630671558238
81.8169922429262
81.9790062226687
82.1069821949829
82.2360754570719
82.3828357124513
82.5112492460706
82.6244847968326
82.7412588460147
82.8786817707965
83.0353426221452
83.144870190776
83.213012990879
83.273768852211
83.3470332471905
83.4361537981319
83.5142508476153
83.5536485015627
83.604445473659
83.6575270692399
83.6926855038471
83.7099972354737
83.7202545177707
83.7627205329287
83.8265092239074
83.8970442719621
83.9515956820119
83.9680547934476
83.9760303194679
84.0074327804881
84.0598401507806
84.0857293446014
84.0721311288422
84.0499988380148
84.0385200853048
84.0211113028301
84.000055639627
83.9591083616712
83.9005250772506
83.8193948307708
83.7118354854513
83.586760377464
83.4154610569319
83.2261271158188
83.02920702933
82.829597917203
82.6278965261534
82.4234493165675
82.2329820765792
82.0337541046137
81.8516958005943
81.7375250973164
81.6754321934221
81.6098028635168
81.6321482843737
81.7039195529148
81.7533764687623
81.8255879701431
81.9107692446442
81.9257842735175
81.8706156689672
81.7920592997982
81.6896061609707
81.5296778729314
81.3804052425996
81.2779030857038
81.1890811284533
81.0450969621293
80.8744190569491
80.7007784482292
80.554875491102
80.403350390425
80.2613955458736
80.1504179650269
79.9759636130242
79.7891613036763
79.6636022178203
79.5310749669884
79.3378181753573
79.1334605062965
79.0112385312827
78.8996886452766
78.7725345434228
78.6161102565621
78.4510229997135
78.3048493384099
78.1880497497109
78.0406220201929
77.9143588576078
77.7656113183572
77.6484527131509
77.5927395047265
77.5030860127728
77.4030569483116
77.3341202374654
77.2093575730009
77.1034933166187
77.0411813985657
77.0038628736746
76.9254668141887
76.8199731593533
76.7465970807242
76.677730826849
76.5601205927429
76.4628826331238
76.3870909908049
76.3058170820096
76.2223499840685
76.1374761685327
75.9859096440156
75.8814240934171
75.7774257337349
75.7010787103101
75.6144633286378
75.5037869210402
75.3892541464559
75.3130491092984
75.2125409653927
75.0749306862261
74.9461032633906
74.8273986394745
74.6747265555519
74.5126437089721
74.3950165711598
74.3330182662178
74.1919240961389
74.0172228497399
73.8853744229029
73.7898140437468
73.643690276008
73.5028517453649
73.394869896289
73.2877168230896
73.1093576063367
72.9525490702004
72.8095516940866
72.6795318958591
72.5252782482292
72.3970841661448
72.2565205126092
72.1090803391974
71.9880826820143
71.908379839295
71.7676730802544
71.6452541144077
71.5274900071324
71.457159534047
71.3715237117252
71.2641763743956
71.1223629049836
71.0089064809266
70.8624378466673
70.7305680168034
70.6088230710275
70.4396553069205
70.1462049961403
70.5130828680849
70.5784009613593
70.2122042885965
70.03401031939
69.924226743726
69.8483138833999
69.7511500487581
69.5899361203463
69.4292246698252
69.3188992498392
