1798
3999.43349933624
650.420452594757
1
128
4
102.139490229653
102.08623229663
102.179285716041
102.175296200498
102.202138840481
102.149167852598
102.000463529428
101.985972623995
102.063335154307
102.060471508879
102.172055464524
102.107058682348
101.977853814668
101.955490776971
102.04407162105
101.91136317851
101.968606443866
101.972396320899
101.926272324611
101.930694924213
101.897310510608
101.863105348064
101.97055746742
101.964849952094
102.031994210348
102.089289282715
102.195223483573
102.090822034235
101.971099689813
102.019218374656
101.92765958728
101.870673825616
101.995066815996
102.022938201991
102.014697767848
101.797980728833
101.744629102393
101.834238629547
101.984561046783
101.847989537128
101.820269012911
101.871237375409
101.894235319162
101.70254231572
101.686899894676
101.937534746092
101.992856206938
101.885332274057
101.930154353254
101.94391939528
101.799367762314
101.669454960899
101.751116030866
101.702033714551
101.84205986261
101.916399770277
101.936659483718
101.807817893356
101.880437222922
101.837275514954
101.726622893283
101.774958960936
101.822739389416
101.798990742966
101.942995789509
101.736791622293
101.691888841386
101.83907099654
101.760179296145
101.653451062355
102.01077654957
101.768594808838
101.672480081769
101.615715495121
101.77301576756
101.940638964662
102.022912106264
101.669542176972
101.486942187307
101.589422656581
101.712153365376
101.791809094504
101.696128485008
101.554015509499
101.718874963639
101.736526225765
101.654127067607
101.726004679576
101.843198461105
101.844029751892
101.857907948525
101.734242577403
101.704185389751
101.803758225273
101.709360526377
101.658336001295
101.886854177853
101.743702437372
101.729952997411
101.692856166424
101.849915743979
102.14668256825
101.904545265103
101.76840544233
101.913092305282
101.642994345344
101.797626617806
101.886799895759
101.803333310548
101.770072888136
101.694144891322
101.760747244056
101.926612079445
101.837719214889
101.727093947845
101.803587837662
101.986597352086
101.871665372439
101.864045537522
101.854188965786
101.993094837527
101.977628440376
101.755560438221
101.767684292251
101.87415571647
101.835586718785
101.919399023752
101.715401795106
101.681402838416
101.729714088768
102.008712300929
102.077560699577
101.864621303165
101.662059344188
101.814393323795
101.757762250346
101.477805350376
101.507396659689
101.576266951994
101.843417732969
101.667283958965
101.42037774855
101.374753672397
101.436977209669
101.746570022542
101.709117630287
101.708995896287
101.673973777767
101.709471728624
101.779100172787
101.866533010011
101.895917962834
101.965598544601
101.767590407407
101.788265321725
101.783917033431
101.76849784289
101.701897405997
101.714696656346
101.658177209587
101.819586735735
101.796257684984
101.766053199013
101.765586416677
101.768092644094
101.733024697028
101.81491818787
101.714345265941
101.545028585246
101.546925201149
101.734242452512
101.688526767336
101.601033188131
101.383787414797
101.5375786373
101.399147085965
101.364888521018
101.135345803418
101.089660637633
101.058926296921
100.985577192085
100.966994109044
101.114935768946
100.997912888062
101.008690892316
100.98766220094
100.920049995231
100.599898750241
100.286255868476
99.9787616201544
100.084232450976
100.298271657317
100.263430580147
99.9090349501177
99.9352868098573
99.8887652406662
99.9257007551643
99.6921207646818
99.2989898679221
99.0114573325868
99.11043077108
99.0785364347239
98.8851792706303
98.7143577136779
98.6547581622771
98.5383644997459
98.5282375109525
98.4304954458865
98.1419974929714
97.8665861798578
97.8133176298395
97.8317852036843
97.9220076508793
97.6131444728066
97.4265084181233
97.2895738954335
97.2483682588003
96.9094132336191
96.7578208206023
96.7816594440286
96.7223905011464
96.2268046675229
95.9941057832905
96.0659007637673
96.2174762949169
96.0527789130718
95.9298657610606
95.7951324826365
95.7434089168873
95.6096245901889
95.4327793307861
95.146754955698
95.0406992209523
94.9606051956711
94.9767796105385
94.6797133358054
94.48691357755
94.3679088380771
94.4522971910695
94.3629976937938
94.2703801053912
94.130077530714
93.9897409129114
93.5435028979134
93.3910071184329
93.3148525113715
93.2841499383959
93.249193621155
93.1832150986859
92.8433443465212
92.7620522629592
92.7244942419059
92.679539522135
92.5420532479674
92.4626485344095
92.189886419636
92.1110969901407
92.0763458812194
91.9502784196321
91.6822122233653
91.5843218551137
91.4143715423602
91.4047109097776
91.557343943075
91.4132020525395
90.9120152780516
90.6872602111364
90.449418796258
90.3856629185545
90.4654941002607
90.5382108795653
90.1859940872361
89.9521687022517
89.6337949868382
89.6204269552878
89.653837878027
89.5008944572046
89.5068914166327
89.6865664651658
89.3103392706929
89.2063188100605
89.2147321509918
88.9893752025453
89.0209031170393
89.0260518360624
88.4613635907915
88.4790815974773
88.2570190418423
87.740101865344
87.9816308020677
88.1735536071136
87.9205396648919
87.8981735396203
87.6252398101688
87.2372478349959
86.8067331717753
86.8763541298107
87.378088795613
87.8426100504453
87.5424503891545
87.031624387664
86.77398078881
86.6643450985083
86.4764155603967
86.6454649606107
86.7823834775996
86.546668726885
85.963218317846
85.866476287669
86.0953094436639
86.2121546180739
85.9480573513062
85.6669236967627
85.6377446825612
85.6334020285733
85.2085851465914
85.0956414802522
85.1958307090476
85.1368105440843
84.9934136632373
85.1722993474431
85.0369074500185
84.8789720502069
84.8537165316371
84.7773573024829
84.4781565077543
84.2837012766366
84.1805165423166
84.2394715861623
84.2863972351273
84.2705778394592
84.0368710947324
84.082597606922
84.1000272548791
84.0443411207179
83.8803224160694
83.8269808997178
83.8037958374654
83.8013769460647
83.5710683219377
83.3821440797062
83.4231528886343
83.6555352559122
83.5486727981469
83.4379590444383
83.368031054559
83.4183386772002
83.3389824948939
83.3174285550005
83.1704094514444
83.1133330263211
83.1809260521595
83.2094472814519
82.9786887480726
82.9994871848449
82.9892247080064
83.0275990750442
82.8378350105129
82.7557174597469
82.6000472835295
82.6248305759748
82.7931299412625
82.8827458917547
82.8025062750768
82.7568656565667
82.4928135326016
82.3963146196865
82.5454747179356
82.7306212348269
82.5382235559376
82.4545711846632
82.4790712615166
82.7577231771525
82.6840836337213
82.4756723530122
82.4594978247076
82.5914551119492
82.3799842739401
82.4635169067725
82.7016470287647
82.845597232322
82.6243206005032
82.2569201971055
82.0402498055991
82.3584297118285
82.5474494145042
82.555566920779
82.6240849255865
82.3640198232624
81.85992882295
82.1087939469773
82.4735576483266
82.8270277085896
82.9287792841413
82.5410798022489
81.9016732277561
82.2595126427659
82.9085355349905
82.7692820864856
82.2869001973703
82.3297526879716
82.4842738879023
82.5294312354732
82.3492990816477
82.2379875772779
82.1701157497879
82.2462367849403
82.1804479033243
82.1169884380487
82.2654604108712
82.5428549447691
82.4165585581968
82.1539458202201
82.1458786249571
82.3865934607265
82.2582516809828
82.2931525758577
82.486920745621
82.594535441495
82.5264513854376
82.5532441860473
82.4893609821622
82.4236988169177
82.2376154500508
82.2952468302484
82.3934305863406
82.442822170657
82.4196668370813
82.5885445239603
82.5241306380064
82.423318568814
82.4991583142647
82.7147921747627
82.720558086954
82.7263095802443
82.6912806185672
82.7781993635757
82.7902786988174
82.845473519397
82.8160669017412
82.8408143469341
82.8122532183938
83.0148296933547
83.1362592460329
83.1238802018791
83.0257022684677
83.1065862305637
83.1205296094475
83.2012407472468
83.2324872243279
83.3163783885281
83.338716961604
83.4199553085271
83.5119577041499
83.7772109102687
83.8234278871334
83.821374023089
83.7264774770517
83.7118872223306
83.7889856291205
84.0361465164696
84.0353967109071
84.0365539596203
84.0707120304623
84.1369726610575
84.1450257950572
84.2341899734713
84.1339886045502
84.1675806040942
84.2625225139346
84.4404743803256
84.5187761535923
84.6633507684478
84.7479808577945
84.7894934712454
84.6936731472819
84.7177680325136
84.7491339807771
84.8867839303367
84.8915951898451
84.9267091674768
84.8708679413257
84.9390644031782
85.0969172937058
85.2827828080601
85.278672179311
85.3387053878751
85.3148053919034
85.3286848165354
85.3423067738504
85.4848665079433
85.476728829018
85.5446672585688
85.6553729140054
85.7843698520701
85.7219720949512
85.7735715952649
85.844454214793
85.9185724674666
85.9732160038844
86.0049649170334
85.8499856581584
85.9279736418807
86.063016511376
86.1697927034863
86.1761754474573
86.3137159755027
86.34024246669
86.4612197114553
86.5012301293688
86.4877804412831
86.5252447902326
86.6761346750337
86.6682055735952
86.7500495034362
86.7750597072015
86.8633584816926
86.930634946559
87.0254045131422
86.9968721128191
87.0377411199582
87.0622946408358
87.1707536181356
87.2120737464078
87.2850709831945
87.2956250448947
87.3674804524464
87.4203043150539
87.5690892852452
87.4976721689698
87.4866693948407
87.4899919015328
87.5825121230414
87.7105123324903
87.8492189239984
87.7918468333314
87.7351343660205
87.7201007263144
87.82363316737
87.8007684174432
87.8319012625621
87.8188197047963
87.8710671625489
87.8480748556239
87.7959078743564
87.715363343788
87.7791497464455
87.7561999395373
87.805451151592
87.877003269632
87.9253655388812
87.838231128522
87.850441093514
87.7791370070841
87.7487450747422
87.72633636446
87.7893987469946
87.7348092184036
87.7559016005724
87.7526995904907
87.7619499623492
87.7877607468239
87.888942433253
87.8278229030367
87.8240805480303
87.814331185478
87.8850705040181
87.8412364849581
87.7821399653242
87.7387629899051
87.8008289824874
87.8158197949449
87.8799182521877
87.875359800024
87.9621507476751
87.9914090660372
88.0175775433818
88.0163029728654
88.1901853645084
88.2417130183392
88.2538033192055
88.3391290812637
88.5075973518924
88.5263027387958
88.5640357277766
88.6339975075601
88.7437152739865
88.7827741415022
88.8921626001544
88.9275173617227
89.0095203003855
89.0375558093754
89.083011056347
89.1349813800679
89.2466451066636
89.2839363629345
89.3716045648653
89.4195792880355
89.4703610934458
89.4655757689432
89.522893778631
89.4981982399063
89.5584174743898
89.6464726564173
89.7162028300708
89.6676377130867
89.7046706167847
89.7457752423974
89.8518544459195
89.8477100928815
89.8509910945288
89.9225367232317
90.0722456563633
90.1013456458992
90.1070980198219
90.0503359559065
90.0918588899343
90.1686558325277
90.3352156764781
90.4385247545033
90.4953761220663
90.5248056018814
90.6313982206479
90.6604422171785
90.7452721228262
90.8440276809756
90.9096341307848
90.9035653854044
91.0044353471383
91.0328450049259
91.035984858884
91.0554504680542
91.1261123331698
91.1057524551076
91.1347894739318
91.1959943345236
91.2623804717177
91.2545197565009
91.3703256207895
91.4340636015534
91.4823775159509
91.4609535293007
91.4372534251921
91.4950611115425
91.6454209305097
91.6708794681714
91.6809178255161
91.6967904523285
91.7866544182246
91.8357199802997
91.872377535003
91.8431200543587
91.9100154133797
91.9816687143485
91.9827526568673
91.9061548595306
91.9099698184289
91.9455085490176
92.0410687575755
92.1075317492657
92.1665922359061
92.1832143633169
92.2017070841446
92.1339666133601
92.1871142462735
92.2608740363403
92.3446595212903
92.3515870847425
92.4128342254727
92.374101984004
92.3380812758738
92.373506537921
92.4744262613055
92.4961467884483
92.5053697560486
92.512871395806
92.5263099964103
92.5047321708629
92.5734865994004
92.6629866045961
92.7092763654914
92.6432627545175
92.6327513245195
92.7032458378091
92.8103443588748
92.8175942729947
92.818987397442
92.8348764639048
92.869635361147
92.8298658586469
92.8638367998131
92.9549820493159
93.0263218336675
93.0129455246066
93.0249415378383
93.0562706595453
93.0830443853571
93.0592211473353
93.0746354455014
93.0795108048809
93.1458663699428
93.1913649723034
93.2097865923436
93.2222375072388
93.2571579122636
93.2277167526279
93.2163522945475
93.2215993153462
93.2856425341948
93.3451483166795
93.4225227540793
93.4232888351864
93.4000307580955
93.403266864322
93.4331128388361
93.4576366626546
93.5046053518317
93.4693395436636
93.4451189037992
93.4348481779213
93.4652803822568
93.5143315663346
93.5490341668639
93.5047672199067
93.5109227705117
93.5708201452425
93.6221371034721
93.6181185658887
93.6575399126302
93.7107804216101
93.7817774321835
93.7987169191749
93.8097622261671
93.7968319664733
93.7897523712107
93.8150258313994
93.9130547700332
93.9586998560901
94.0172353724023
94.0064036356345
94.0586424221528
94.1234273689338
94.1168630785299
94.0627893303984
94.1092122938487
94.1528463497288
94.2701892541974
94.270630843617
94.2260194640045
94.2904440116194
94.4015329865782
94.3901583690359
94.2818548336729
94.2030768741605
94.2826640022006
94.3908305263882
94.5131813937495
94.564267935583
94.6360659320096
94.7173913232102
94.6794126029623
94.5856997149896
94.6944141060412
94.7050968379081
94.7673474403788
94.8559372930486
94.8447210156487
94.7492796288299
94.7408036948959
94.78302074285
94.7528974752011
94.7438631648693
94.8100748372458
94.8361007374054
94.8454051318714
94.8576841083227
94.9414753317431
94.979364886881
95.0421900097711
94.9938401278444
94.9846233455885
95.1098911799186
95.2178036171309
95.1435002991964
95.1612152572466
95.2706823323099
95.3323973035125
95.2173590271622
95.2158454706836
95.2006851931753
95.201234106705
95.2357677206346
95.2261539803536
95.2058695416371
95.3481279061917
95.3881526427865
95.3823327311989
95.4347128211621
95.4330944624345
95.3431110080518
95.4004393017109
95.3368560531966
95.2422833149558
95.2956002319495
95.2741008115838
95.3167611384369
95.4326007768598
95.4366528840174
95.4290067587212
95.4459200099241
95.5271802957696
95.5826088472824
95.6246204394608
95.5507308452426
95.4940186179781
95.5207551029906
95.4888423009099
95.4387868823073
95.5186084361652
95.5377437791472
95.4518788361514
95.4811266315157
95.5772401670298
95.6076416149525
95.5576684295825
95.5142925752873
95.6238507058094
95.6436263090699
95.6221352297293
95.6361466384354
95.720295352502
95.7547414405067
95.67086664179
95.6702501785605
95.6766654714111
95.7413141567775
95.8191819945262
95.6639742094718
95.5882227627776
95.6243642178038
95.7042569520399
95.7755223854315
95.7820632283005
95.7706237655948
95.7542101490433
95.7957853389924
95.8638704972457
95.8250576170288
95.720498099744
95.7383347286697
95.8182227174172
95.8026126294061
95.8669132838742
95.9022249857809
95.8701908571055
95.8252852670018
95.8113640609599
95.7284516796592
95.6784424761573
95.6356594494836
95.6926187424227
95.719380492634
95.6054799475835
95.6180857872309
95.6799840404795
95.7148533744031
95.7122942548667
95.6767913536661
95.6568642927194
95.6528211843679
95.6905295687115
95.7712746980972
95.7633324258786
95.7170291400907
95.8600123972063
95.9781458216226
96.0584968389558
96.067493755287
95.9732874109145
95.959614814728
95.8970618464929
95.8796858745393
95.8844817233161
95.7407109462177
95.6698734147855
95.7700564105478
95.7850154497471
95.7670081240388
95.7967111781363
95.7251205150735
95.6677205253582
95.6672625913358
95.6609994371268
95.7269504623982
95.7821493733127
95.7399700446739
95.707682984871
95.6279022769904
95.5344077529654
95.4661070622728
95.5159625772127
95.5957968206676
95.6191318870441
95.5349485209752
95.4944912323922
95.5757300313941
95.6298160063324
95.6924118499485
95.7626092699714
95.696623852754
95.6732233633291
95.7984665811045
95.7899717137245
95.6525395399323
95.6986448963347
95.8723269362066
95.911550800615
95.8489473239708
95.8322760552971
95.8756847503217
96.0935866963385
96.2104885864622
96.0878689237641
95.9839166624105
96.2254364377756
96.423934316738
96.2999046064987
96.3862962217723
96.5500341327008
96.6321695968144
96.8495892414921
97.0216816845279
96.9005564167597
96.8913033412221
96.9716304692769
96.8648641331404
96.942903178257
97.229043539323
97.1836653728938
96.9878675422129
97.0651574205592
97.0884294085714
97.1676015835104
97.3221232915754
97.3024497041575
97.4011884438296
97.3344919873105
97.4380706933025
97.7720555301565
97.7898675707085
98.0007967726827
98.210957103593
98.1384057150206
97.9152688441852
97.9901133050187
97.9076701149649
97.7407810201179
98.1642671255917
98.283182633872
98.122247986534
98.0869891555587
98.2400295301475
98.3080224148814
98.4583350368384
98.7714215110411
98.9484188471054
98.8190069148673
98.6058867461816
98.7721675382746
99.1125369974379
98.8230718884829
98.6452062729414
98.9355284549057
99.1504152200118
99.2482513794517
99.6301198923921
99.8195027269744
99.6055597945246
99.6058390153389
100.056898740371
100.281700936751
99.8305414772884
99.587902239918
100.315991242193
100.821826366979
100.751954625322
100.941484388993
101.119378043569
100.727159986712
100.766829523244
100.913574683014
100.52593478552
100.383238184043
100.141200604581
99.9327389647971
99.6269461389881
98.9766603654201
98.8325499351529
99.1322390699129
99.1319403868141
98.5577248203479
98.3873367538996
98.5105426024997
98.0444597403632
97.7132910939464
97.5726734185738
97.6074734172803
97.7203306634689
97.9337264924148
97.881774082308
97.56438789018
97.529591517279
97.5735212846369
97.5433695200533
97.5520360277154
97.6304542513464
97.6196891035501
97.6838175907532
97.5624379258875
97.3107106731291
97.360303959362
97.4644657764341
97.4429434818989
97.5553977492423
97.5666718393922
97.4223947177566
97.397679252249
97.615761472125
97.8634259243748
97.9782057374565
97.9937548638828
97.9411545918385
98.1057851428541
98.2636284652388
98.2996386660614
98.3001508485122
98.3026201481875
98.1136526125535
97.9314959877317
98.0155448801491
98.233954343031
98.4645045777242
98.5974995907184
98.6902355838867
98.8515097677822
99.0624307575488
99.3672607422993
99.4773021584474
99.6861901598988
100.006123697191
100.287958034015
100.54834407888
100.210086199106
99.9127613713547
100.502113799139
100.806208231996
100.694347779336
100.709371968571
100.972411553802
100.785185210929
100.666974291996
100.716415267691
100.355425164251
99.6709792424354
99.8513550822478
100.157791951679
100.025851659108
100.073471431393
99.830152647425
99.8225440965384
99.7899095126228
99.5360877606945
99.217483558085
98.9036392803959
98.686396523369
98.7659143556509
99.4548769467212
99.8037161922112
99.4754855000796
99.3923273849741
99.5656971574869
99.3344726801957
99.3719939826482
99.7977574505954
100.273127378319
100.358838065385
100.036176237795
99.5485566280001
99.104431298387
99.2535947495623
99.3945554408354
99.1857427629191
99.2085616066261
99.2908951910186
99.1575753786168
99.1597967544047
98.8871258706932
98.5313049993215
98.7121243418591
98.7219467426622
98.6071187159079
98.8078212257066
98.8535160809734
98.5323577726578
98.1900340235781
98.1218717481998
98.2075744310884
98.1973519308228
98.1707082024734
98.0441233813833
97.9284876287366
97.9898804799551
97.9799086157508
97.9841558867591
97.930337361009
97.893719185589
97.8095845409613
97.821106075608
97.6918289429903
97.6490060364804
97.8191616978157
97.758005957101
97.6554469728819
97.71413612778
97.7932224165366
97.7778611103724
97.7101796173834
97.7142010105246
97.686955784647
97.6188260618951
97.7180816232751
97.6382447471755
97.5770853182962
97.5259766163277
97.4741045862597
97.5295265893295
97.6390327761443
97.5842380455238
97.5021824487045
97.4837000671226
97.5114618156651
97.5644670333364
97.5202342928747
97.4502104722451
97.4155392065298
97.4899411593894
97.5757821134821
97.4437327506799
97.5055739437348
97.4829311431494
97.4613745472197
97.5057233934498
97.5448954427837
97.4636045887711
97.4893116958743
97.4466408579968
97.4089802294534
97.4009584484461
97.4630678771445
97.4891805590843
97.4130117268732
97.4445832567711
97.5311920370904
97.5038129984119
97.446444727474
97.3170222853281
97.3393143075555
97.4217799718374
97.4017830961942
97.4467401275023
97.426304363668
97.4437613554041
97.4513813345085
97.4213008970267
97.3352216730824
97.2612427629148
97.2684030876775
97.3455194194813
97.3026646596198
97.1525072303312
97.0867530776662
97.0724756491777
97.1536608623922
97.0882212959094
96.889557437608
96.7611037322208
96.739491004472
96.7029338838254
96.6102874362453
96.5165405795038
96.4233649904327
96.3637542426674
96.1982268305296
96.155371661554
95.933398451504
95.7913854337098
95.5149783919924
95.4666971130722
95.4426098757842
95.4058734411263
95.307698904597
95.1592463132761
94.9955451956786
94.9370190900637
94.8879214086443
94.8011237883464
94.6677618504023
94.3495088864912
94.329636611613
94.3378293483659
94.3303342543846
94.2558402867275
94.0768664824512
94.0804241891854
93.9108080681294
93.7969644364865
93.4183512956407
93.1984904563851
93.2543644307663
93.1222220336905
93.0007423798481
92.7734501606891
92.5680959414328
92.2506198004236
91.9007213637568
91.320490034565
91.1575325148985
91.0610643286205
90.8757962269344
90.6115901698746
90.2739748546202
90.0292418480671
89.7006503782445
89.3973259697019
88.938382831024
88.4108601419615
88.4732875469524
87.9879733409448
87.9046862708695
87.6199603486682
87.2861304588157
86.8716519339894
86.513740118944
85.8800253292434
85.7601638871821
85.6781870464953
85.274009388565
84.8455379092488
84.3365355178692
84.0791842235597
83.677577825895
83.2672493765966
83.0786363134084
82.7897000400847
82.3556287178506
82.0054756643907
81.8163817585946
81.4212217646196
80.8521752598132
80.2163637838907
79.8907827914503
79.9827135273329
79.6467394344327
79.1619933404115
79.059826148749
78.9212381310591
78.6159590149408
78.1922645740621
77.7781155725863
77.3729368117452
77.3648982427002
77.2766942348345
76.9310936025105
76.6083170709674
76.315773505153
76.0178401121826
75.7373077265657
75.587373391477
75.2749162891269
74.8441359960437
74.6472095908583
74.5678983517008
74.1802775725662
73.8665838990493
73.5783474676446
73.331649436232
73.0016133086921
72.7045498951308
72.4597086866679
72.2385000114851
71.9510788051366
71.7030809638044
71.4849209347423
71.2937717601105
71.0695062533893
70.8763714043788
70.6855296726377
70.5295646172156
70.3739919965338
70.1372786475053
69.9363270530818
69.8277142029324
69.9594596489813
69.8694478587496
69.6325230384164
69.6440138929544
69.8680679172226
69.8778372629529
69.675971665338
69.2051349578764
69.2264751948366
69.999806036674
70.5441194874471
70.6221563688316
70.914487231465
71.1175723693779
71.3103116446839
71.4335166434583
71.4751710989106
71.6071896818903
72.1207751575595
72.9781886217881
73.4651003209841
73.6631201688234
73.9183104119319
74.4421548830109
74.6235119070323
74.8115621561341
75.0009146863577
75.1924049474513
75.4093586388666
75.7612418064736
76.2071135427367
76.3973431346985
76.7164521693528
76.8568404808993
76.7393338038227
76.5354075135186
76.8007101457204
77.5815231349199
78.0528041163548
78.0065712209071
77.885012738531
78.0186143527314
78.3257841060162
78.4913350373981
78.4339577977015
78.3528723466528
78.649059380828
78.904472963092
79.0504109810207
79.1278752151793
79.1726600660542
79.2079919857189
79.0682029821897
78.8415099685057
78.8048330782155
78.9130160793483
79.0626786309955
78.8007363025702
78.5575484710943
78.4219257431341
78.3839307570641
77.9516274750565
77.4878766902158
77.3187662260485
77.5619118149363
77.427771962414
77.0731371017062
76.8163026243991
76.6017092416243
76.4439973078373
76.2176731724988
75.9350296611824
75.5764951449625
75.1847868553523
74.906490046266
74.8952434255349
74.5356251835381
74.1160129001423
73.7827753810639
73.4738778164854
73.0821348345939
72.6258793892814
72.2185698969589
71.7426633027105
71.6035509835143
71.4297372225643
71.0209922049298
70.64917676061
70.3260482898414
70.038704919248
69.7384907133633
69.5252235929243
69.352448026807
69.1236012848171
68.8433812770586
68.7805630164698
68.6990354617635
68.7361095108119
68.7229399760671
68.5839142451966
68.5334068690228
68.6668429562436
68.7883705678634
68.8077347928732
68.9014509196828
68.9646847338133
69.0144350345702
69.1704397229617
69.4857453969241
69.7577896569871
69.9773971583376
70.1912507425936
70.3454122463207
70.536422354465
70.9418664459312
71.3480954010548
71.6145241822265
71.8689327216582
72.1501375852963
72.4299291552581
72.7327752786289
73.0448248661622
73.3435739846698
73.6110667083171
73.825321400749
74.0019339119541
74.2810033776233
74.6359006887315
74.9032982895368
75.1195281918536
75.3101514166577
75.5051110313091
75.6882878652262
75.8451813297536
76.003382618874
76.1470913043358
76.2453873118694
76.3716537103079
76.5232032027903
76.6652997931613
76.7998102913926
76.926739255782
77.061175098215
77.1990350735397
77.3380910180941
77.4647093346368
77.592879653151
77.7104249247666
77.8320605867598
77.9648131494869
78.0863034350571
78.1997036446217
78.3182264680601
78.4237717092112
78.5304897719589
78.6397554804652
78.7098068849998
78.7685098521994
78.8238782439565
78.857250810489
78.895613819697
78.918248004244
78.9490804474453
78.9838437370493
78.9987062511626
79.0109440919347
79.0158413868215
79.018148299504
79.0332728419104
79.0725448844904
79.1081505072303
79.1501071606856
79.1990835050624
79.2280008332561
79.2494607203612
79.2646946195787
79.292493398935
79.3060569355216
79.2988393610836
79.3559904222049
79.4252125257733
79.4454581817903
79.4905862679247
79.548023876796
79.6061521264468
79.6560218301878
79.6895428867979
79.7527433068834
79.8372950026854
79.9002138813581
79.9760722585197
80.058585410804
80.1198081639395
80.209887126202
80.3264301061647
80.4544289592823
80.5653862702742
80.6523967992403
80.772132675234
80.9027062899083
81.019403005241
81.1402435747734
81.2490367293345
81.3369646023753
81.4497155170646
81.552617419413
81.6215169132504
81.6996651143615
81.7707294507181
81.8159222305501
81.8517738214246
81.8625071399174
81.852707674648
81.8394041705156
81.838036965321
81.8534108316116
81.8498230657686
81.8257540429824
81.8134003914106
81.8083015629007
81.787471221503
81.7334634311
81.6771430589778
81.6324629907749
81.5627296130868
81.4639877251009
81.3776106519366
81.3158440375757
81.2537518530242
81.1719179687293
81.0970153240456
80.9864453452865
80.8442045942805
80.7146143870524
80.6011133098159
80.4849952413897
80.3530456143929
80.2072308093894
80.0520802661001
79.9000692841849
79.7454896599827
79.5743869017474
79.4430187288223
79.3299562032298
79.1930374226336
79.0627505420205
78.9622187273401
78.8649348824384
78.7372726491827
78.607002799932
78.5142168201173
78.4206433526751
78.3004566780008
78.1450965213092
78.0063779401314
77.8664283990922
77.6782278136047
77.5058661743573
77.3752647597742
77.2016982271886
77.0050455545987
76.8339631048442
76.6685829056985
76.5135990181337
76.3779637983202
76.2378435354873
76.0738148813118
75.9168898513859
75.7778472677425
75.6417689924684
75.5185099587324
75.372984985014
75.2462179660705
75.1340937535082
74.9788485942574
74.832418331423
74.7184398470742
74.6063469967103
74.5148192013181
74.4160327091267
74.2890315463978
74.1632026480965
74.0851291454649
74.0344897181119
73.9685015889107
73.9033624499164
73.8847290766877
73.9101458064805
73.9596481371348
73.9593843858759
73.981159934015
74.0994895922796
74.2368556376278
74.3369452134771
74.4370259314096
74.5604399118073
74.702527260772
74.8773304494791
75.0750603331831
75.2714966404361
75.4767093160231
75.6860274277544
75.9019403598477
76.1316262562927
76.3825034589864
76.6363109552167
76.8722857152646
77.0985499429262
77.35048554057
77.5798389851213
77.7816672021712
77.9822615286536
78.1836625346231
78.4019079229801
78.6165548051199
78.7933479794161
78.9871994196372
79.166209459003
79.3031638715371
79.4495654190823
79.6202847742547
79.7810691634636
79.9431364014579
80.0980505823125
80.2175884633102
80.3566714965363
80.5267163195258
80.6484476950826
80.756460096474
80.896522021045
81.0742070501133
81.2419851922472
81.3846685729587
81.4980601561548
81.6324885719754
81.7943925499289
81.9410397686048
82.0736638590277
82.2117052123122
82.3546139846109
82.4642790451853
82.5254417801211
82.5972668958972
82.6971752413584
82.821176746702
82.8976775578574
82.9487443287622
83.0371779612813
83.1017564421717
83.1233291831884
83.1766516003377
83.2277136638504
83.2581870475432
83.2693609058392
83.3007491720392
83.3392035148493
83.3956666755235
83.4703428999175
83.5084433483231
83.5221619215157
83.5877056457759
83.606871233304
83.5806622040973
83.5856538702763
83.6171475600673
83.6212750248565
83.5841865037558
83.5228009966933
83.4808547094151
83.422751863821
83.3278272999158
83.1876766021826
83.0171939674941
82.8571883499264
82.6669106396487
82.4337993345771
82.2233384890178
81.9842368275976
81.764371665354
81.5732769384963
81.4096873846307
81.3065303719909
81.2785693428821
81.2744658754016
81.2877118505319
81.3434955062974
81.4025527351252
81.465504780726
81.5372388135882
81.5133989344303
81.4866548512246
81.4741246961159
81.3629188432824
81.2075686425819
81.0638843952144
80.9421564205946
80.8480105251417
80.7208986034307
80.5772394603305
80.3828563390346
80.2584345531663
80.1635825199304
79.9998449910911
79.873142102242
79.7822709071037
79.6000986567883
79.404320407875
79.2316719305019
79.0791222456217
78.9747752394907
78.8850217874196
78.7080334455611
78.5310646887207
78.3987114851341
78.3063549307891
78.1951631124768
78.0436358837812
77.8898397102351
77.8015356170825
77.6956288898841
77.5568397257987
77.4528377046253
77.3484028692471
77.2178651518372
77.1530403933928
77.081928852071
76.998593499252
76.9303162705899
76.9107207919419
76.8874615954945
76.8043805588861
76.7095344835906
76.6615110192377
76.5594954518594
76.448442717058
76.3948520442971
76.3494277436738
76.3002621437322
76.2208116182099
76.0633893990154
75.9503066291707
75.9192619288377
75.8588216654411
75.6791498033363
75.5466990389173
75.4750483340716
75.3582955614734
75.2524237877792
75.1806640070639
75.0414383383663
74.9532807012053
74.8436263687734
74.663074411014
74.5267768401698
74.4095025710743
74.3287138927155
74.2518951249913
74.0579704375763
73.9080512642772
73.7974294265441
73.6744726719609
73.5352433877362
73.3705800591264
73.2500867124136
73.1224341781541
72.9510090658157
72.8325151067417
72.6756068306605
72.534446985641
72.4649357644382
72.3677621214364
72.1499332779993
71.981071994442
71.8774617157309
71.7888726743442
71.6841920716139
71.6213406773514
71.4170387287843
71.2192184090559
71.1708310258415
71.1095978613955
71.0299135431412
70.9956029443841
70.7918643957494
70.6665389373934
70.4663199588018
70.4088029480795
70.6167224135446
70.3381068859742
70.1574976946206
70.0344116872937
69.8737961103132
69.7278533259282
69.5729812386544
69.4472044026948
69.4044446386425
