1798
3999.43349933624
650.420452594757
1
128
4
95.2497452187614
95.2245786520144
95.0355109337364
94.9817631809759
95.1560570382152
95.1241263564141
95.082808007507
95.0672814005412
95.0992358794046
95.0947893456202
95.1548192222893
95.1786003495522
95.1666066841899
95.0246711415557
95.0514660667594
95.1048384350782
95.0838028799851
95.0208229784296
95.1683223172501
95.2480139978731
95.1882722235895
95.147684387899
95.1860295294902
95.1257772079278
95.1357237539096
95.1381375024254
95.1286884785945
95.037772288435
95.1278512395988
95.1969838890688
95.1584210297232
95.1539627843672
95.273537505836
95.1991593798665
95.2118910229566
95.210050546091
95.2196292835763
95.2614034611961
95.2871576863486
95.2742307319925
95.2162193764748
95.1098405209717
95.1565921284214
95.1594853809855
95.1481718051587
95.1480787518102
95.3094419818934
95.2746263256108
95.234748923313
95.206393779532
95.1748681646369
95.0677591894968
95.1130332326666
95.2435789365963
95.3237102544991
95.2525107378222
95.1973282084798
95.1780822254127
95.1894834911675
95.1916763313549
95.257635036643
95.0689433470849
95.1501679187671
95.357986071448
95.3611213346112
95.2553596171607
95.3048436192755
95.266654603073
95.2633343273805
95.235471336707
95.0905079972221
95.1223692982051
95.2238663808087
95.3196329076322
95.3817126481941
95.2042847516267
95.1481118686183
95.1804678538038
95.3078921006492
95.3667244388442
95.380871556946
95.2994021118113
95.3603585027358
95.3593313606482
95.2752108208043
95.1305715498291
95.2636716721674
95.3516352286865
95.4449283067882
95.4885914414598
95.486032143853
95.425354088564
95.456059622096
95.3818269598503
95.3004077856371
95.2028802658525
95.2532286660274
95.3951372429144
95.516368082443
95.4385401332163
95.4034741543665
95.2909064148649
95.3742443354225
95.394168758745
95.3189240096705
95.3073453295457
95.3448311955196
95.4107899170336
95.5537784690616
95.4913902197465
95.502732406985
95.5527275511584
95.6895178332712
95.6299720711814
95.4613446483992
95.3378331743884
95.4545972851118
95.5093566752506
95.4915064142297
95.5017406368834
95.5494274260442
95.4839759829242
95.5673415945732
95.4887153244892
95.4618438754194
95.6240879018493
95.7558584992364
95.6708201245979
95.6562225637963
95.6749933011992
95.6375835699509
95.5077213153795
95.5133668320695
95.4024756375507
95.3194772445706
95.3214390560435
95.4335336670031
95.3484268986497
95.5882780833278
95.565316410983
95.3560850875987
95.3138813508662
95.5686791864232
95.6627856638364
95.7359175487475
95.7583824530507
95.6726964112284
95.4989976029416
95.4570254125261
95.5761871377507
95.7550559717165
95.672307117548
95.6206701441755
95.5923134504871
95.5864649776612
95.5443388881435
95.6764240890885
95.7525842079113
95.7233634263351
95.601074225186
95.6250456223091
95.7094338991613
95.7575569720617
95.6160164978848
95.5704646755288
95.4900209980569
95.5520523997738
95.5647670217742
95.6866451264136
95.7474674332373
95.8371261406987
95.6599420079121
95.3912729740031
95.23807219037
95.2557071298061
95.4776215718081
95.6802060424685
95.5775150891629
95.5091451704952
95.3196195431673
95.300105384575
95.4637404561667
95.2726411534004
94.8267985005376
94.7001630146961
94.8084770710164
95.097282428316
95.0482862208207
94.4201607135148
94.6822538314401
95.1033546524482
94.4445172889041
94.3152651705627
94.2060073948101
94.4863130676152
94.5769325513821
94.3020390724464
94.026899326332
94.1141214303784
94.5131914352964
94.1482086261278
93.6795438532548
93.6997775879373
93.5359121337857
93.7451028366673
93.9881170087958
93.63776157607
92.8992933262261
92.608822483731
92.9931600655897
92.9655185868107
92.8043776482666
92.9747939616027
92.7829894506806
92.5378732805988
92.4667235240507
92.9244655706357
93.0955992781783
92.6180093527864
92.0574029957867
92.1161573071187
92.246487217051
92.0269693062156
91.7901406184245
91.8136008735046
91.9420037680811
92.0024010146686
91.730205155249
91.5908809700476
91.4558655463406
91.2828056051803
91.0644888397366
90.9695946267566
91.0080152403458
90.9678055371333
90.5671061271942
90.4064400121326
90.4821746488193
90.4967489081718
90.3188983163732
90.1781542313338
89.9899662980829
89.9802723508052
89.9257610369174
89.8543527197914
89.6863031358617
89.6091603591604
89.4542443615534
89.4339962676476
89.305030645804
89.1963901991158
89.1563488260387
89.0763534614017
88.8616148150488
88.7662125261583
88.6461679083395
88.5590894575662
88.4177629012687
88.3871949576651
88.4189994346767
88.378654463142
88.1136633931933
88.0457653097247
87.9989529253116
87.9486041242169
87.731836664041
87.6324495933339
87.4566756232406
87.3827333672851
87.3054265753478
87.2488241912752
87.1425636237883
87.08646133586
86.9886078039233
86.9100448104103
86.7738299344336
86.7402453567575
86.6617019151769
86.5357920266249
86.3489266076038
86.2792937636428
86.0560075973237
85.990239540382
86.073546757116
85.9868382189366
85.7742816157311
85.7873628770243
85.696165761753
85.5013925247296
85.3395301637917
85.3565549953141
85.3129455785411
85.2577046934094
85.106342653425
84.9528779197624
84.8622664992723
84.9262448670263
84.8783179732202
84.8102462944928
84.6389279843746
84.4216527959284
84.3073244391204
84.3073896909191
84.2099411404215
84.2152518887918
84.1401415009548
84.0887154225193
83.9434293934732
83.8454176358679
83.7571688367931
83.7653087481776
83.721102920001
83.6572638498297
83.4974759669453
83.4271949250765
83.4343337646312
83.4051838001718
83.1639396525918
83.022395665423
83.0293916529208
83.1015937595663
83.0560810260015
82.9590848644076
82.7641111306835
82.7313155060944
82.6925676320776
82.6027907246285
82.4645156358287
82.4477170626576
82.3531964695036
82.2932120533681
82.2436341880915
82.2075343974887
82.1613889961688
82.211542660302
82.1668735437595
82.1286577759439
82.0387916609093
82.0066155114752
81.9334053123291
81.8768500440006
81.756132084556
81.7855750658249
81.7928034236726
81.8108570255826
81.7094570432103
81.664199947851
81.6762713460387
81.6835706883245
81.5302403294878
81.5648554152035
81.5401226584033
81.4306305221944
81.4253798642413
81.5777294173689
81.5891269467894
81.5011873058502
81.3695285803477
81.4082762338293
81.3948073441161
81.417285983589
81.3805356155877
81.3480828751568
81.3014664984598
81.3195684209302
81.2800511149688
81.2822711985214
81.1862920987101
81.1452031459374
81.1681388193884
81.2782264313733
81.248079898384
81.2121180942572
81.2115387699558
81.2642594518704
81.1758888514878
81.1559681491401
81.1212373066513
81.1645436734445
81.18391210828
81.105535098718
80.9886180220289
81.0285439868575
81.031035940393
81.121164886176
81.1070668362458
81.0128264465313
81.0168022535152
81.1463893041278
81.0600672004707
81.0097168247
81.0354024007373
81.0681334359158
81.0011510720938
81.0439800573734
81.0629123029556
81.048808029967
81.0376520345961
81.1579009361822
81.1198676812504
81.0334106386803
81.0367824426866
81.1927771518494
81.2459361639082
81.2208061648507
81.0965125887718
81.1076334936854
81.1525661746519
81.184748202344
81.3055002105832
81.497742231946
81.3462268443777
81.2443633090473
81.2643119393704
81.3448971318503
81.2822863458412
81.2990527070152
81.3467185110056
81.3881434329477
81.505740703415
81.593291239175
81.4442514860522
81.4427014088337
81.4443663318467
81.551341073619
81.5762667239296
81.5455705030213
81.5209882135812
81.6381962694654
81.7295767421333
81.7659406169404
81.7455540223863
81.8354284454144
81.8201160956928
81.8400247311046
81.9377694922182
82.0173168600447
82.0220364508735
82.0610600800005
82.0877548391198
82.2203436766156
82.251937262143
82.2498884618895
82.3118867714622
82.4221079508884
82.4542925987648
82.5108337124406
82.5527831368747
82.676997441357
82.7693113007592
82.7664204782675
82.7242833024818
82.8354508479893
82.8917228849033
82.9955847980155
83.0873959505361
83.1640229176539
83.1585831274253
83.2338944009266
83.2919229957987
83.3495118637903
83.3218740390572
83.3150332756654
83.4771385351871
83.6139702396065
83.5404207690502
83.5741961874093
83.6389913536952
83.7490822521996
83.8337386788909
83.9406894493212
84.0739090129468
84.1399523978483
84.1677029925128
84.1911496951029
84.0719073000897
84.1545397652262
84.2528107633294
84.2681834462716
84.3126489052979
84.3498351845687
84.3610722348622
84.4971558704528
84.5109480117127
84.5190392367121
84.5318715147128
84.5917255511695
84.6747494023741
84.7451638292111
84.6781735285257
84.7690287707675
84.9327451763071
85.0298995378726
85.023682877275
85.0597083034068
85.0461242343584
85.0138633237978
85.0911384300875
85.1825318887144
85.1230773117914
85.2048830083382
85.3328263686453
85.3561690463054
85.3097549424276
85.3429482382474
85.4585117141733
85.6042251367169
85.6398925017283
85.6021899869599
85.5803467276976
85.7278074661405
85.8444176838419
85.8640635038292
85.8989736664178
85.9493918925591
85.9676940301661
86.0232610613531
86.058437844777
86.1196389618683
86.1200021672273
86.1721654536738
86.2192209284319
86.3547653143457
86.3954790670432
86.3885355075712
86.4261590221343
86.4798032862533
86.5128489256339
86.6055618799104
86.6851784460632
86.7123100302124
86.6574420279856
86.6525677708696
86.6683521540519
86.6984429247813
86.6727287166237
86.7154828096588
86.7530512049296
86.7827511190716
86.8458347937728
86.7957009913576
86.7056734984928
86.6522568777653
86.6270736227368
86.632266207761
86.5874038698435
86.5711853384256
86.4786015109055
86.4161141413162
86.3527859143234
86.284507144444
86.1906435008381
86.1405200661044
86.0635781993141
86.0054105817381
85.9590114044266
85.8862097087968
85.7997606298525
85.7351137302775
85.7403112439223
85.7907167762496
85.7487090769628
85.7086880179109
85.614160686695
85.591353227685
85.5922044554328
85.5669880130476
85.5210300786593
85.466436946989
85.3603408154659
85.3088192475739
85.2962602634559
85.3094519440649
85.2616130686566
85.2310300886709
85.2569887700935
85.291464317048
85.250997331699
85.2836172468565
85.3489292642395
85.5163812701612
85.6904940978941
85.8704792952418
86.0508959624137
86.0866445668139
86.0851133830188
86.1828625288932
86.2964548176131
86.3508850784567
86.382493454337
86.4921517092408
86.6044364126116
86.7354569245602
86.7892338419243
86.7851602058917
86.8243421783222
86.8807201284544
86.8593071138373
86.957127650575
87.0684003766997
87.1030060491178
87.0534700070371
87.0453380851641
87.1336366307271
87.220034338608
87.1726776478792
87.2195929823741
87.2849543321878
87.3339969693641
87.4149610467919
87.4331929313891
87.4313463073162
87.5303203169343
87.6166986929065
87.6721193210717
87.7302363916456
87.8146462008229
87.8797818534549
87.9829522467722
88.1301829332732
88.2599692745959
88.3427644421679
88.440769499073
88.5050655201594
88.5771749075555
88.6944611819098
88.7696514141929
88.7836092379162
88.8493633742832
88.8939964417783
88.9775326053078
89.048047196298
89.1008739189971
89.1114600261771
89.1390486794808
89.2469050923551
89.3177783841899
89.3729527598404
89.3889618413209
89.3993313687498
89.479540168261
89.5010225183148
89.5218753393147
89.6144549658829
89.7154073205116
89.7399065496961
89.7281944857291
89.7724809097768
89.8319208831893
89.8817225916343
89.8889358018062
89.8991555753496
89.9403442439595
89.9506889168344
89.9868375524289
90.0415284675312
90.0727297571436
90.1592897760868
90.197002323255
90.1740302694302
90.2292005045194
90.2747899939472
90.2875139987959
90.3272270836768
90.360695008206
90.357573985663
90.3876162414764
90.4449649093803
90.4804494916641
90.4563594451385
90.4711887769698
90.5714760298641
90.5982758145719
90.6257841102598
90.6428099477637
90.6405384725131
90.6776418761938
90.693768898587
90.7024723444747
90.7225219360146
90.766517947221
90.7348473355361
90.7418509576893
90.8184142355023
90.8326606450447
90.8505636764527
90.9143433772491
90.9693998082836
90.98376800067
90.9616389728998
90.975817016873
90.9991581637417
91.0401316444674
91.0868420137895
91.1387037835241
91.1756164127196
91.1617300386904
91.1714403122936
91.2524842956686
91.2525947727369
91.2112924547609
91.248442682127
91.2985068873247
91.2801933276801
91.3031655627115
91.3654773212006
91.3481865970064
91.3551318720836
91.3935800926808
91.4101997831357
91.4428587898129
91.5001999637393
91.5158509217584
91.5411128487045
91.5929105978791
91.6084895137706
91.6061751746819
91.6127041839877
91.6098860720175
91.6283392632598
91.6345587198083
91.6507486814451
91.6630372502017
91.6553850147255
91.6968247360081
91.7652708654996
91.7858464343708
91.8172200619924
91.7933239936149
91.8219741683465
91.8885925162047
91.9418932180256
91.9812108300889
91.9957655149649
92.028838272632
92.0928058223822
92.0856608514281
92.0836131004795
92.1421464953406
92.2411248972382
92.2713878711515
92.3367146683473
92.3395183429826
92.2877471322022
92.2845362465137
92.32773417854
92.4548819054409
92.5505964546815
92.483335118422
92.4991931434608
92.496425972832
92.5098789611062
92.6009505727203
92.5513618025136
92.5225857864905
92.6307706103113
92.7086996940095
92.8053968202432
92.857521528156
92.8264472747385
92.7845754870665
92.8923563207444
92.9941573557457
92.9898400148039
92.9928018106295
93.0356674569505
93.0634621668121
93.0992772102329
93.0875567542738
93.0772217214178
93.12733209073
93.1713619503472
93.2019352976885
93.1778657406315
93.1134952452166
93.1348563063482
93.1780937610135
93.2511673614498
93.3760637541033
93.4293931228806
93.3665800270818
93.3642897129273
93.3265999339134
93.3207364264729
93.3414195966742
93.3277936732037
93.3788787460308
93.4389132926333
93.3606704308304
93.4220462432962
93.5075312189829
93.553100162472
93.5091712652949
93.5406816549918
93.6283279369838
93.5794227332967
93.5392082836229
93.5498666917715
93.5739965092639
93.6462398864492
93.6632966826314
93.6029236991536
93.5745787513135
93.6230655557593
93.6586342348024
93.705287514134
93.6799318884294
93.6206800233016
93.6800316757875
93.7521814687687
93.7544760138106
93.7316621543881
93.7342872491138
93.8323359762997
93.8907721159647
93.8474858145111
93.7871275010585
93.7993346117391
93.8389097883085
93.9015265764562
93.9024084704027
93.9354162022567
93.9611995044394
93.923366247965
93.9237849867303
93.9945769580953
94.0201986908548
94.0166714398971
93.9627526639011
93.9411337901803
93.9466669903412
93.9548081271154
94.0230385741327
94.0367766041555
93.9516905367919
94.0121767223706
94.1267672685186
94.0979008765024
94.061505765098
94.1070817663848
94.0974241660789
94.1218152301615
94.1088816002992
94.0217413856532
94.0547106682506
94.0970703209649
94.1246758755151
94.2113038410302
94.2183597361891
94.2194613937901
94.2231635299986
94.194281606629
94.1488258877339
94.1859256938695
94.2180123139841
94.1830988540269
94.1443227165535
94.2163484338588
94.2918529549633
94.340876045989
94.2849702279215
94.2206206345553
94.1953014537091
94.1758835761514
94.2349021125366
94.261802111673
94.2366204033407
94.2155996385001
94.1817885984754
94.230221033763
94.2537803340124
94.2549770899607
94.2457525872921
94.2664206110708
94.3123355673938
94.4044210696759
94.4619944353951
94.4485432518325
94.445631147416
94.5459650985113
94.5855014436163
94.466508898785
94.4161117198746
94.5400523599941
94.5858838428509
94.4650261143727
94.3762841381835
94.3073414982018
94.2284934794575
94.2673398271559
94.3568515245175
94.4098849638981
94.3056440558792
94.2579077421528
94.3173978095848
94.3843769416859
94.4068170541008
94.3499366207684
94.210102060918
94.1270125006002
94.1467258401314
94.1585573184516
94.1320227917178
94.1575713530418
94.2623461880059
94.4200049263911
94.4517839557787
94.418344051585
94.3559861414764
94.3238686379358
94.3921597407353
94.5164652480414
94.5165117347218
94.461727125464
94.4441064630266
94.5023994819081
94.5682300509605
94.6294368225603
94.6200170078933
94.6718883526503
94.6476485541357
94.6257456836016
94.8058522007262
94.9382127277732
94.8813894049305
94.9447005913811
95.1106324808754
95.1364858586972
95.1104906200548
95.0265685254009
94.9569508052292
95.1162754897049
95.1821804648705
95.2037944416975
95.3202589017828
95.4625646052229
95.6507237020981
95.687789972526
95.659748017981
95.7260695723333
95.7203394702213
95.7356441667964
95.8231624780272
95.8453361954937
95.739328392846
95.8242944104585
95.8511073284089
95.9613812313456
96.173500879858
96.2973862074938
96.290872850896
96.3054198756732
96.0364955755417
96.0521567498396
96.2168859100124
96.3252709544927
96.4014215184145
96.5165620727496
96.5830044626639
96.5565099320971
96.449045890915
96.5784777334169
96.607352995276
96.6030214988645
96.7505805133337
97.0210362011022
96.8645885882932
96.6485036585617
96.7049691133773
96.7934942198304
96.8833734663289
97.229788410923
97.1204767070934
97.1031752852007
97.326721156983
97.681493615301
97.6729129885026
97.7812519815757
97.7985532590544
97.6966935242188
97.7092124914585
97.757224680447
97.7020020885716
97.974951364076
98.3426725747894
98.7851541380356
98.7294863480132
98.791067940683
98.4053776120669
98.0584734608924
97.9925970460889
98.2319930055631
98.2073845929883
97.8397987964603
97.7057537370603
97.549512725252
97.3002439628962
97.221297383219
97.1778383678358
97.0702130517516
96.8304066485779
96.8745328480129
96.8181814698282
96.590135511929
96.5349039725921
96.5872433126831
96.3832669409125
96.2187970150731
96.2503490524678
96.173843050432
96.0188448360859
96.0212886398359
95.9782714356205
96.1013149915092
96.2509535369378
96.1792346880756
96.137070918478
96.2934399450136
96.3161820823207
96.2351957937574
96.2740461971555
96.4428538933052
96.3895341812981
96.4166099367225
96.4265490369312
96.2836516134557
96.1919169822705
96.252903017854
96.3594717014507
96.4410556084239
96.3957938383957
96.3961738813686
96.4844954733748
96.6244547064851
96.6237068900629
96.751799585346
96.8642919121376
96.706544338574
96.5338235490934
96.8948886244001
97.127186487741
97.1637741766844
97.2077256627029
97.2203986364045
97.3207054434674
97.6824933823737
97.857828343165
97.8553760316781
97.8458253826837
97.8623856827291
98.0351834120703
98.4537745609021
98.6039240467067
98.7076616309147
98.5450679908827
98.27669878943
98.5163507270302
98.9871157332927
99.0513021403258
99.019312317852
98.7069835741893
98.4540437889129
98.7823423456268
99.1351348286308
98.9067051517124
98.876846015452
98.7172120272704
98.5779452920379
98.4337078656458
98.6202913118067
98.6865803583193
98.4202458992872
98.1373860977509
98.0079618493523
97.7374032264109
97.9140785823481
98.1812759448363
98.2105372675457
97.901261747317
97.88388949899
98.1006116173789
98.2994764861511
98.4527776113796
98.882429521692
99.1258341171678
98.9370866636822
98.6991375933708
98.8669706889351
99.0262135967195
98.6866513896805
98.3332988288832
98.4066519334522
98.0809841673536
97.9537633779642
98.1315237985427
98.1540513785819
98.0259392320104
98.0054974741833
97.8732527057497
97.7160628537592
97.6543057661109
97.5671447482253
97.4208303787678
97.4311551048558
97.3761712596233
97.3304429673536
97.2087997764316
97.1686144308964
97.1206444541449
97.1419000664017
97.1062415354507
97.0276957522737
97.0112705701923
97.1425747034825
97.0354308487895
96.8480000105157
96.8959637332839
96.8475350721942
96.7309745850816
96.7588159114843
96.6904206769076
96.6511139828824
96.6907302570563
96.7706709885662
96.7702164984941
96.7129062131464
96.6503316017849
96.6298101988756
96.5545772341255
96.5609625089866
96.5186868782036
96.5623678489409
96.5646419078024
96.4937922182226
96.5324477672973
96.5281885602103
96.5451768732423
96.5595115900051
96.5262584204361
96.570875558018
96.63528355348
96.6143355064064
96.5170713511676
96.5059240453431
96.4738253955075
96.4844276846947
96.5431847364145
96.5434252950435
96.4726048045892
96.4597499918035
96.5033479122689
96.5574561303213
96.594838062363
96.5359280367703
96.4313559035819
96.3462523919588
96.3773490309249
96.385128045051
96.4409842801602
96.560570818947
96.5650773943387
96.5011628592424
96.4121006883081
96.3689706700745
96.3919343365699
96.3347281417322
96.3870962892723
96.3862462330672
96.3286448644255
96.3439480389116
96.4372721154076
96.5199952864942
96.437377835747
96.3278023081829
96.3189760952638
96.3811818743054
96.3704456673604
96.3151699764832
96.2865603188741
96.2809633324988
96.3005224684936
96.2692491035079
96.1762241625216
96.1067140098528
96.0757360587473
96.0528866425656
96.1060414278231
96.0894827376588
96.0501032105067
95.9864447856219
95.9437862994982
95.891975393524
95.8412179260518
95.7420868667956
95.6241904367562
95.5355621287875
95.4870343570357
95.5919041156122
95.4953559668238
95.3796980300146
95.2375158631941
95.1257395565381
95.0799803170021
95.0682398715881
94.9068637173167
94.8553549542974
94.7412711229899
94.6012042205616
94.6244639577146
94.5783644888325
94.4323788259105
94.3194228328463
94.2372394066196
94.0938489972743
93.8839134018303
93.6709108896022
93.4031282459442
93.5087884083826
93.441379550914
93.2618366563986
93.0202242261829
92.7305139612585
92.3878786756474
92.0279030109808
91.5329330302602
91.1963023160573
91.1073366017631
90.8689601543914
90.5039133834199
90.0424732158322
89.5717622435648
89.1383027131492
88.743663035293
88.3775384441101
87.6182819930211
87.4220343771345
87.1490904971584
86.6674624851576
86.4723731437243
85.9141015693446
85.2901481759884
84.8059240405222
84.1564099958228
83.6130626453201
83.6588208846706
83.3244703145464
82.8780629349263
82.2130925927266
81.6818180551803
81.4248920054675
80.9201488080443
80.4852398661729
80.321328471806
79.9437579559107
79.3225134214848
78.9421771152311
78.6348555128602
78.1329375647384
77.521073525737
76.515448171532
76.5557698587089
76.9240713509627
76.4709679010545
75.9605900323886
76.0213209345925
75.9906729925637
75.6723882058411
75.29188697307
74.8286008390864
74.7181802719236
75.1413599581742
75.1918437463922
74.8558156504787
74.5956021464352
74.5587117748036
74.3857451810215
74.3012883846517
74.2894552725691
73.9293369499762
73.5708451160407
73.7600110370206
73.7802224591838
73.4585009285081
73.1707473315169
72.9659494759905
72.799528723039
72.5835324488466
72.4248739355084
72.2981564024784
72.1597938885407
71.9769858127962
71.8529164653226
71.7688551318767
71.6937827007
71.5778634987252
71.4983211962052
71.3932616550032
71.2661159510889
71.1050074276082
70.9650023748613
70.5811212171059
70.4963455474828
70.8667453624877
70.7796930716214
70.4655137613196
70.6854085272386
70.8523161601045
70.7355687505231
70.5539900043224
69.8306926331071
69.8581067169258
71.0826872614087
71.6203506915469
71.7548624218312
71.9575967407898
72.1183541950028
72.3756279374292
72.3949304893297
72.4281933094592
72.5415295219687
73.0912488089317
74.1296309303223
74.6705406798334
74.5966440347493
74.8451393032332
75.3340632221609
75.4456701765523
75.50675765904
75.6909635830583
75.8707233276592
76.1129090002137
76.71285217844
77.0428295072702
77.3140491918798
77.6673108906106
77.7500507893305
77.6515813408005
77.4298578307567
77.9799320706795
79.145482401106
79.5944871113065
79.458679643255
79.3055003466285
79.489507105619
79.9766280341356
80.2645010352452
80.1583966282546
80.2136595115523
80.6797698819438
81.0768767791064
81.2502068024169
81.2664321056939
81.3050249116837
81.2874073799804
81.0892445266037
80.9255566706768
80.856875399571
81.0550040245404
81.0935685324012
80.7308837558018
80.3323306823209
80.1779176523891
80.0222779056985
79.4574128528487
78.8259626267372
78.9060620367307
79.321210255268
79.1282488514133
78.7548729317306
78.4241944474848
78.3616153252399
78.3905616739644
78.2473106341235
78.0098677489805
77.7410422715933
77.317051423091
77.3145261036142
77.4691844734794
77.1600060469576
76.7628763898161
76.5222640949141
76.2355860677853
75.7625047673076
75.3636118103424
74.8234939545836
74.2804563354652
74.2429278824682
74.028383185864
73.5819126973197
73.1355775563532
72.7884196470096
72.4646669945078
72.138461193021
71.9846114000062
71.926271297343
71.6906092206325
71.5782409323235
71.6832241998532
71.7573075484446
71.9741556093433
72.082581366001
72.0053340633625
72.0473340744899
72.3280076106507
72.538633576525
72.6721454788543
72.8123166442674
72.9460631843152
73.0835192597727
73.3022157423739
73.6730880046481
73.9433644106205
74.1559598060174
74.3863589361277
74.5621282312019
74.7998239093371
75.224847318905
75.6015743806309
75.8606573198903
76.0667002065035
76.2997419585777
76.5393299167214
76.7788870859517
77.0466999730895
77.2749305948854
77.4445342777062
77.6060418100246
77.7448491154501
77.9718687791426
78.2522292437723
78.4499594631206
78.5605895764085
78.6560328411467
78.7554038790644
78.8419333560054
78.9084763316525
78.9667839665623
78.9996467171597
79.0122917976827
79.0569734822588
79.1208791143593
79.1591949698644
79.2058639392365
79.2787738055886
79.3535272904949
79.4145867416968
79.4799764532394
79.5661054373938
79.6774252915434
79.7801945580614
79.8839703404493
79.998027816268
80.1127814447181
80.2105550375065
80.2963747821326
80.3894965106715
80.4871797626746
80.5462066705943
80.576771248945
80.5960228300508
80.6091426502939
80.6064074862508
80.6072803757254
80.5848616371767
80.5332235497649
80.4690223697241
80.3913596133103
80.3236043736097
80.263055737074
80.1715573836489
80.0655112923503
79.9705881278486
79.8955481852
79.8254675056052
79.7495774899669
79.6711105957591
79.6066580257189
79.5417444974432
79.4665727558189
79.4081684836563
79.3932213072342
79.3890074462332
79.3966942319063
79.4133179336151
79.445849999201
79.5010109112369
79.5726577316446
79.6598023061066
79.7717106657942
79.8831700109399
79.9980312795496
80.1347561348575
80.2801333189527
80.4436353773225
80.6307374028318
80.8110243342872
81.0006172833262
81.1967972357506
81.4005140751042
81.6195680383187
81.8538364790691
82.0848324662475
82.3079157361592
82.5126128566511
82.7147369678707
82.9039375161178
83.086822051955
83.2463506272084
83.3744416681482
83.4788049745854
83.560086151211
83.6284397075104
83.6681129738256
83.6573507009383
83.6344964591129
83.5894913589774
83.5137358740022
83.4561864969014
83.4031490367297
83.3282286244935
83.2616665876448
83.1822759374211
83.0999090722322
83.000977883836
82.8925761364715
82.7561105560413
82.5900809806445
82.397950837092
82.1950501296055
82.0025414088168
81.8194196021287
81.628691309825
81.4127921705542
81.1740193051161
80.9291093995688
80.6746508690623
80.4270246358154
80.1683374844608
79.8833196123293
79.5806794088268
79.2969022089574
79.0369398091285
78.7868324364056
78.532974187754
78.2760498873219
78.0239126382135
77.7890140322869
77.5524254667381
77.3177645615397
77.0891418421364
76.8662177843952
76.6388970410947
76.3892171314634
76.0956879171438
75.8005119062885
75.5096744236706
75.2227062288332
74.9355640617051
74.6497077888082
74.3624722199086
74.0838375261084
73.8246694604176
73.5733649639937
73.3036642661068
73.03259110278
72.7636058056377
72.5250150119644
72.2884737777008
72.0292824154776
71.7782320033578
71.5204413725144
71.2499354535976
71.0186350265905
70.7880688679307
70.5579907125883
70.3412498027912
70.1419140634281
69.9613449461918
69.7783817722297
69.6042125571916
69.4919035830084
69.3984611477991
69.2984227492072
69.2264842149463
69.1947902678073
69.1650777783771
69.1458864018227
69.1309045985962
69.1264380507294
69.1528470536143
69.1971364752468
69.2202973198411
69.2789687502765
69.3961552806606
69.5375741418691
69.6774566103178
69.8397670335294
70.021513849229
70.2390747277018
70.4851209048617
70.7593561542472
71.054973263304
71.3650484328811
71.6883107070848
72.0466000863184
72.3989904656736
72.7120121693066
73.0242205656291
73.3548176189967
73.6502892315317
73.930146209593
74.2189171791159
74.5136821690647
74.8018789546945
75.097854438804
75.3683461631792
75.6143936831263
75.8544334032195
76.0758946539343
76.2581800980504
76.4361284207626
76.6334166109305
76.8252513144604
76.9971565291811
77.1740733257161
77.3308184412519
77.5209214306193
77.7603461009119
77.974987588966
78.1743795306565
78.383760932176
78.5912774458944
78.8330578333564
79.0831194154884
79.3450766619669
79.6031239649805
79.8569586669351
80.114635641328
80.3428687299141
80.542241426121
80.735523384366
80.9303847485664
81.129578825359
81.2964964165839
81.427434125007
81.5423039657519
81.6492109625807
81.7444291516633
81.8177880642631
81.860750911535
81.86419611612
81.8687924674552
81.9087250811538
81.937595113075
81.9747617588819
82.0366155500445
82.0883390560263
82.1192899586497
82.2035258888695
82.3226631357413
82.4296191922695
82.5076198847918
82.5613894426464
82.5780758781663
82.5991268655861
82.6231866858439
82.6172848867089
82.5942134227474
82.5707623087193
82.5614592403449
82.5627718626456
82.4920952935518
82.3852883087104
82.2916247940695
82.1919962979371
82.0771427061598
81.9922520008247
81.93429679401
81.8627718620985
81.7548179661102
81.6907855712597
81.6691360497473
81.6550362669556
81.6607865945267
81.662139949484
81.6621720709487
81.6903455164523
81.7194082077987
81.7659684571377
81.7633545153284
81.7104254642138
81.6536866187738
81.5797989956378
81.4441295795547
81.2944965497972
81.1442305115178
81.0008754973855
80.9001308815391
80.7944399688135
80.6855590581929
80.6402570056114
80.5785957532328
80.4692288799552
80.3967894694051
80.3386557405295
80.2328016340855
80.1308515976188
79.9793660586952
79.8155838044566
79.6713875937568
79.5388808423407
79.4398543576076
79.3670854656516
79.2657819279133
79.2198136106998
79.1887562058613
79.1099383076878
79.0197472215787
78.9515999937599
78.9119359376602
78.8592358336279
78.7689026162509
78.6891725002809
78.5855650919962
78.5173897050242
78.4639024020476
78.40882377541
78.3700034739705
78.3699887561578
78.3917665516375
78.4148928740117
78.4249791358656
78.4444313037641
78.3854488134422
78.2984978201925
78.2526527919769
78.2131614999622
78.1618598693712
78.1117952803714
78.0334125107334
77.9655610673392
77.9148512028249
77.8847078439895
77.8350554233192
77.778917329847
77.6975393462173
77.6074140226425
77.5621714925559
77.5146515959208
77.3843677820871
77.3058232452101
77.2537831720282
77.1362334881976
76.9914596345738
76.9056629009434
76.7795706186484
76.6026287128237
76.4509744457832
76.3407056927667
76.2283851912772
76.152254010078
76.0819441171594
75.9693943324388
75.8167356240866
75.7145410882389
75.5855740873438
75.3584071840767
75.1188923298909
75.0208207162383
74.9120470382397
74.7728907288381
74.6664890564012
74.5714535797622
74.4587170140586
74.3909499058399
74.3676986635608
74.2711378294617
74.0685507465713
73.9839773893543
73.9032083966311
73.8050067280659
73.6935029864883
73.6245421304097
73.5131968384182
73.3565900033631
73.1866811975477
73.0790761905302
72.8767745136405
73.0325438984039
73.1128244880675
72.7722955820007
72.5897077611748
72.4600590905817
72.3945027030978
72.361274569332
72.2387571191734
72.0914258028568
71.9989381322404
