1798
3999.43349933624
650.420452594757
1
128
4
93.2684496751672
93.2151107484812
93.1264736896954
93.0745441258023
93.2009762288161
93.2873390413142
93.2605295912136
93.1483042715171
93.095458614767
93.1360082839151
93.2522352411037
93.2749275612622
93.2346936855111
93.2378801540644
93.2285709671159
93.176224062152
93.2560473064064
93.2885197366784
93.2563700983781
93.1767296185673
93.1720173671173
93.2374286132859
93.3495948327408
93.3594773226712
93.3647325628603
93.3917967741704
93.4004051332258
93.3420740605386
93.2954389965114
93.2468959589984
93.2583928400834
93.1513425934088
93.0838255895093
93.1666474673779
93.2929160445563
93.3133201327944
93.3239726339704
93.2624936366438
93.1722057660302
93.1995999525182
93.316595300334
93.3657422899422
93.4544305518541
93.4007264054212
93.3888496708801
93.3929983310271
93.3227094426346
93.2274092190478
93.2772572896952
93.3558231755241
93.4167271306421
93.3362129523512
93.2665915914651
93.2966998045995
93.3561355651492
93.3462293322757
93.3647110495597
93.3753953375864
93.3824099432204
93.3348732728135
93.3120821797766
93.3331118361906
93.4205905516219
93.4599114933413
93.4567431320814
93.4350612615279
93.4544190953857
93.4717614500092
93.4438410847782
93.3374491805725
93.3101635150209
93.336357810466
93.4206443966607
93.4560988969981
93.5086883367148
93.5011201107177
93.5734490762559
93.6627348667347
93.5699271413186
93.3700897459899
93.4689694146296
93.5933847412962
93.6266646827229
93.5101230593232
93.4692256726884
93.4609304036165
93.4721312482481
93.5345823896679
93.6273421917912
93.5227821735876
93.5144182254247
93.6143467348301
93.6847547086621
93.6030395837485
93.583324721684
93.5928241887186
93.5750466597046
93.5868320691472
93.7183320163503
93.7171351877559
93.6531551681653
93.5693463919381
93.517145661624
93.470241264755
93.5802409485041
93.7422120847768
93.8790097405091
93.7727392253601
93.6734425236414
93.6669478301712
93.7524006147819
93.7009505611431
93.6877946500972
93.832494209754
93.8691959318759
93.7882542390885
93.829336008227
93.8035244750296
93.788546657389
93.7744599502033
93.8294177772982
93.926803198701
93.9284084579102
93.7501389003979
93.7074637962137
93.8612361603785
93.9184022525899
93.8081613502519
93.8591237829375
93.954230915681
93.9169038830967
93.738686960084
93.7624153731026
93.7838843301267
93.8132677264627
93.7877837523592
93.705075283465
93.5948808143066
93.726135418914
93.9245235930172
94.013576201902
93.9346849961734
93.8456943466149
93.8886627244536
94.0339760657639
94.1217146341228
94.0225411355707
93.8524082083997
93.8409619760145
93.9129328834295
94.0556967238384
94.042629041124
93.9852584015961
93.9606555604287
93.9621399754548
93.9081419318325
93.9202025505761
93.9348581438342
94.0296776793239
94.1055508127739
94.1292429158294
94.0600398844849
94.0898246346755
94.0618439832412
93.9718812025599
93.9110684651816
93.8831174677009
93.8879784826619
93.8625653610837
93.8299824620085
93.8337044848739
93.8230558466039
93.9212065455947
93.9110245768181
93.8639401591791
93.8799031146434
93.8150430816886
93.6227978191585
93.6382690413951
93.7052037824334
93.6958557312784
93.5972677654111
93.5641000363755
93.530098966154
93.4770480826645
93.3653957287878
93.3765783821163
93.2817143629885
93.1313549344979
92.9927719845335
92.9246068344195
92.9352234953467
92.9189639714106
92.7730489054663
92.6457588275226
92.4863833574758
92.477224810753
92.5184668988778
92.5481163938793
92.3391929815373
92.1433336628209
92.1332641725256
92.1106313401478
91.8178913915209
91.6367219731122
91.6524830750678
91.6104538977496
91.4305828469577
91.3514728882771
91.3579765640876
91.1800940737523
90.9651989537193
90.9929685832304
90.9679991157146
90.9542843122906
90.7173073733493
90.5206569394148
90.5466101273929
90.4624956800936
90.2297022360571
90.1481226439184
90.119428006875
89.9705699345768
89.544707264455
89.3522465708278
89.4105607264391
89.3866057484842
89.2004265139477
89.1770587182006
89.3132014409744
89.180444321857
88.7014363373314
88.3632539793429
88.5039558400223
88.8607896592232
88.3587551167947
87.7333295223541
87.6698756048624
87.9125553938267
87.9777216790239
87.6175432011896
87.461436085314
87.5692640975861
87.188413626627
86.7841738617135
86.6854913693973
86.9246040067048
86.8525543089354
86.8503247738932
86.9503658985621
86.4831086432574
86.1768965401268
86.4930298121076
86.3215390784751
85.7591413340387
85.530219761674
85.8408127632861
85.8682802850497
85.3243408457358
85.3414423069738
85.7584705285524
86.0909651056447
85.9974405627889
85.1344531911531
84.7042105974572
84.7452911984793
84.551694717282
84.1582941546123
84.3415381006737
84.7788525570333
84.5071658466513
84.0655243019345
83.9968463544286
83.63622769595
83.3052271004787
83.6377296573342
83.7673898769127
83.2237596535511
83.2214598690307
83.2896470851334
83.0031707948712
82.8482431391197
82.8856682150634
82.6886403944372
82.282319990026
82.2423212939615
82.5978616384317
82.7935779650789
82.5851020978169
81.981049089772
81.904376897436
81.869489184048
81.4571636242512
81.3717643609981
81.7270846198015
81.8964940368622
81.8250047346956
81.4446990513621
81.1670063163351
81.151720588684
81.1125593640303
80.934158631461
80.8211063574851
80.744259509306
80.6861024029582
80.5050615062745
80.4643033553339
80.5290848345228
80.4317891424775
80.2474192040766
80.1175187757902
79.8801328652584
79.7824066146839
79.6404093413572
79.5757410077052
79.6690344989697
79.6716558478226
79.4788331022354
79.3507107534922
79.3142250080061
79.2578571347342
79.0940996606712
79.095743224475
79.0757155531444
79.0064697550928
78.9218312927096
78.822429501936
78.6994057145535
78.6381657970505
78.5448514153822
78.5565911582468
78.4674294593214
78.3917606196726
78.3473586543166
78.3378766560001
78.2578765438034
78.169680464298
78.1254698767838
78.1014892173713
78.001165512455
78.004176053118
77.9702118316404
77.9026516433908
77.7817385096025
77.781630743752
77.7618426376773
77.7103583560911
77.7247321032916
77.7218810224548
77.608510835785
77.6023346280566
77.6351285432833
77.6454430804492
77.4380585259047
77.3810553915136
77.3471124309671
77.2257944971824
77.2097582206621
77.2736788922233
77.1962745398586
77.2670195527914
77.2731227939686
77.2527869595337
77.2042482478286
77.162117946151
77.1137082968903
77.1172188809797
77.0432825781785
77.0054176765308
76.9646270695083
76.9076544612627
76.894088012748
77.0790375712019
77.0688629692545
76.9921823851332
76.997645572866
76.9855156892464
76.8956721320575
76.944129144507
76.9387251039965
76.9189885479641
76.8313900564848
76.7662273643919
76.7233133077197
76.7787435998885
76.805834385256
76.8319825227163
76.7686765824158
76.7426824751783
76.7687725725642
76.756405890904
76.7404402040812
76.7356454558938
76.621970542947
76.6537479444459
76.644705666068
76.6115260501686
76.6318381621492
76.7539582870646
76.7425041764363
76.7755514054095
76.7726809991361
76.7994344686663
76.8338805920847
76.8470398756654
76.8002036338565
76.8333107356063
76.8594294158413
76.8546696744375
76.7972761569894
76.8740488724978
76.9360640506072
76.9828097382561
77.0114398363754
77.0931263354363
77.0268219180247
76.9202569250727
76.9005570495046
77.0262204346047
77.0704672949197
77.1505716604328
77.1479601168493
77.1467690846022
77.1832677694817
77.304576842193
77.2725769535679
77.2806339738062
77.3266453875023
77.3795091687041
77.3852575275237
77.449980670227
77.5401395457529
77.5961183502684
77.5433427977116
77.5632338163109
77.5366239026298
77.6053172496247
77.6937326560071
77.8638309251359
77.9645715196572
77.9413302190924
77.8398672263469
77.9107551111012
78.0314775511182
78.1445365240279
78.2233273240129
78.3329409571356
78.372495719215
78.4073046375639
78.4863350057799
78.6236326403239
78.708591931348
78.7708868141868
78.8222648693913
78.9218269751833
78.9074101530846
78.9159767225473
78.9985706090289
79.0759864591327
79.0853049866697
79.2882338050188
79.4573140255612
79.437914097361
79.3925830776007
79.3946488639403
79.4671751856723
79.6677382281903
79.7442124595316
79.7941050563059
79.7896619315208
79.8667888590229
80.0442041222375
80.1794735254261
80.1297947922653
80.1624784671411
80.1598573033612
80.2192440237289
80.348815901883
80.4553521315401
80.4338389195737
80.4178127645213
80.4221035205731
80.5360090822539
80.5806010518466
80.6080891459276
80.6194029059383
80.6493188898578
80.7159360090559
80.8445471653477
80.8902321599781
80.9247840590993
80.9732584144276
81.1215255152038
81.1526103106346
81.0999121007594
81.0839853255642
81.197295793895
81.2821906426445
81.3266655916052
81.3268300090072
81.379177979688
81.4337356418562
81.5307266491217
81.5516028740999
81.5793727499197
81.5834777555881
81.6793227795523
81.7734381752417
81.7767574593976
81.7561459707202
81.8453040759297
81.979559152316
82.0860979361083
82.133737742732
82.1934065709864
82.279050189392
82.4156294048609
82.4968037036525
82.5127910355238
82.4942602347272
82.5347792100556
82.6255813364164
82.7159357172652
82.7303649791996
82.7376210260932
82.7756725792829
82.9146190792953
82.95885692262
83.0609646042546
83.1371436849625
83.1848390462121
83.2101940391551
83.2199367921161
83.2148873494306
83.2694290753714
83.2988139195651
83.3307391844862
83.3783369028803
83.442965111393
83.4098148458247
83.3926614273309
83.3493829657685
83.2666056031321
83.2149328457138
83.2623358596479
83.2511991919047
83.1926672203885
82.9849529049059
82.9431665658931
82.9604089430338
82.9228719114265
82.7742728683041
82.5669124084419
82.3976845497513
82.3945026867576
82.3721072229772
82.2999167449215
82.1944660665052
82.1048327578682
82.0768447163131
82.1677028770442
82.1129627317304
82.0099875832994
81.9714373947329
82.0288144394935
82.0097645266929
81.909818513281
81.7736669124129
81.6992568661379
81.6283474721359
81.5974106058647
81.51734081859
81.4755221567945
81.5366666920745
81.6244271147885
81.5866691972194
81.5674527953918
81.5566924312635
81.6133081680804
81.6566990385809
81.6633218599086
81.6596424024673
81.767176542157
81.8816415398585
82.0004057938399
82.0611726688319
82.1241566171596
82.2221608589025
82.3405417778773
82.3813195348938
82.4728102161597
82.5888845254611
82.7018150772969
82.7116361805863
82.7608611745305
82.8584236349533
82.8894381537967
82.9305167785869
83.0047868730097
83.0747434522777
83.107966344052
83.0791836925092
83.1093815415595
83.1623729327347
83.2159419546669
83.1942119392413
83.2013408131797
83.2514440779759
83.3275597969227
83.4569133970752
83.5617366866255
83.6308408521101
83.7453781992628
83.8521813954553
83.91371090562
83.8575499504962
83.8630777372
83.9581864115506
84.0040804851752
84.0792361958755
84.2795622924471
84.3801078389603
84.4353493064227
84.5914187737708
84.7144883934439
84.7292107822439
84.7829779061848
84.9062851035052
85.008070467902
85.0316514545737
85.0842131755092
85.1710423074109
85.2532685072609
85.2477328808684
85.262923852999
85.3362835654404
85.4613003867869
85.5020824411829
85.5656609258716
85.6047442335823
85.6693429891616
85.7613190433638
85.7791691871062
85.7849211492622
85.8780082570886
85.954568282372
86.0079767436076
86.0448177106531
86.1002778571747
86.0985197167276
86.1300036022272
86.1659266603021
86.2274729895694
86.3115431739166
86.3373034051801
86.2942432789992
86.3092977522279
86.3370547342183
86.3783117265401
86.48718601312
86.5207258720139
86.5082039116752
86.5519394241338
86.5884748634858
86.6646932752322
86.6819094314847
86.7025141388294
86.7633939258393
86.8100028556168
86.7819145981327
86.8185975398092
86.8909423744283
86.9007638299889
86.9175758862221
86.9188706607468
86.937721274232
86.9627424096799
86.9789141060514
87.0350749632576
87.0690352351156
87.0830687344836
87.1052583279447
87.1351070922164
87.1802561847587
87.2372321505256
87.2194547484548
87.2554766091224
87.3533868605281
87.4195881348306
87.4021086435173
87.3593380351669
87.3674191258462
87.4501545422207
87.4770762665212
87.5095330610108
87.5389887048071
87.5735532791708
87.6582038665924
87.6673669843536
87.6145788718427
87.6600669313999
87.7124700852067
87.740250516901
87.7303853441831
87.7400774514464
87.7834052692211
87.8330601740013
87.8354648559857
87.8804362238744
87.9541334574629
87.94874904012
87.9771064039208
88.009514387064
88.0074712226367
88.0457697069181
88.0766725781725
88.1077229254266
88.128540765923
88.1203553491913
88.1138661459113
88.1122732214568
88.1392588402283
88.198012530017
88.2340110991823
88.2849820956788
88.3473021265975
88.336060232471
88.3172733481906
88.3718813167445
88.4241503583726
88.4634495796662
88.5086124562989
88.5414338114615
88.6428182869104
88.7084373858301
88.6658744507305
88.6878871733628
88.7292280995627
88.7509629896794
88.789128560625
88.8891349361584
88.882677123938
88.8142278512351
88.8842391953074
89.002056953765
89.0117760736197
89.0074611701567
89.061996683458
89.1055314551248
89.1889869558092
89.2452670217944
89.2422756345261
89.2914233725849
89.3816255800251
89.4069677667001
89.4766367154869
89.5695427692683
89.6209093460538
89.601732181135
89.6130333502238
89.6590175807814
89.6397778121419
89.6068247514238
89.6353674504314
89.6941918641391
89.7657774784864
89.8229320879099
89.8170401488996
89.8222198331632
89.8694728608359
89.8937241650528
89.9366089613367
89.9469842333518
89.9266988960838
89.9809433454333
90.0408019362791
90.0043824260735
90.0548336185054
90.0816711613738
90.1395019308047
90.1217634557347
90.1249890875607
90.2153737932732
90.1808182321899
90.125487046954
90.1803259757509
90.2379330244388
90.2682425120529
90.3664472938552
90.4565092155083
90.4448609638819
90.3859402910502
90.3389526131807
90.3809196243327
90.4187541005629
90.4262181066282
90.3768740628222
90.3570240577945
90.4411668439939
90.5806527963051
90.5431954787775
90.5025194725222
90.5839423012578
90.5699475348896
90.5817510447512
90.5654529884526
90.6010971802365
90.6465378064026
90.5841849885288
90.6120745213946
90.6891758857506
90.7402627500137
90.7400942199911
90.6923085131472
90.7374369410054
90.7630276367923
90.7042172662704
90.7559061231439
90.7757596179628
90.736926100579
90.7266496356048
90.7335976254028
90.8122436487292
90.8662913379088
90.815093436578
90.8892775537566
90.9299876841382
90.8155100651409
90.8299691646037
90.9118731781786
90.9471848585282
90.9788460364495
90.9912328750561
91.0275261830664
91.0309477737283
90.9862369903865
90.9885460185039
91.0043894464935
91.0301416194975
91.0936895179093
91.1179695041821
91.026644271908
91.0631102120997
91.1997699056745
91.1803005364253
91.1469282976328
91.1389713901896
91.2181928852811
91.2408776329159
91.1711023098579
91.1652139799546
91.2093848049026
91.2355680285259
91.2244900077674
91.2008128793677
91.273275796691
91.2532330740146
91.1684899008504
91.2108638018534
91.2921829260802
91.2729635071162
91.2696145419107
91.2766254833246
91.2657456088969
91.2285986194363
91.2490545912715
91.3240782746512
91.2667210594972
91.1676498278061
91.2179968533019
91.2225807592432
91.1929201369921
91.1449224018076
91.2523153984924
91.3802296723194
91.4068807465743
91.3179524585202
91.3873303052664
91.5002776376267
91.5756697731414
91.5873908141686
91.5587274621619
91.5723022770795
91.5390997937874
91.5541604807265
91.5203370691913
91.3926487954453
91.2928922513985
91.3161168748913
91.3655502678566
91.3368531648644
91.3999088812322
91.4203138281542
91.4274461411332
91.4102663095914
91.421843558977
91.4609343219819
91.4618269747142
91.3421650635506
91.2818893082001
91.3052314371207
91.356769057797
91.3902144061718
91.4745880565188
91.4825814295912
91.4563660833417
91.5294608744354
91.664401499045
91.7210021793537
91.6934731428677
91.6230699609267
91.6498841578495
91.6674727965606
91.7212802828434
91.7537154527754
91.750778541855
91.7216843406592
91.7244707239117
91.763520749688
91.9042254384669
92.0575433548798
92.0844698501577
92.0229233335925
92.1854103511768
92.367723454068
92.3906360349442
92.2960468047062
92.3454814470053
92.4146548742753
92.6211929119069
92.7814061855577
92.7496674524629
92.7699538576682
92.9031793522824
93.0520146658805
93.0402156124227
93.0599798586875
93.2452790285316
93.3183935517342
93.2493569653761
93.4700799547009
93.5724530463988
93.5356695809859
93.5855671874286
93.5331470995772
93.4147394391784
93.3952458747432
93.6130514507999
93.6749773199873
93.6793023844325
93.9548011781386
94.2462510507977
94.1071602136487
94.1811592793656
94.3184912345984
94.4109148474122
94.4373896895941
94.6270180364927
94.7969344664604
94.6870010349584
94.5756335459888
94.8624481844217
94.8927652457436
94.689243496596
94.7632203072548
94.933420209536
94.9706216077586
95.1576046875503
95.3212977769344
95.268020241635
95.3208182238247
95.6675096994663
95.6969329948057
95.4184341476058
95.5773032870426
96.0873717064091
96.1237412466274
96.0004970405214
95.920127540051
95.725468115412
95.5990125878299
96.0451496053482
96.4905723130501
96.5200579380204
96.6511766107072
97.0585586458083
97.1807902614779
97.8156290381801
98.1229085368536
97.8510570905252
97.2933607380189
96.7919365380246
96.1717232694976
96.0353744794627
95.8086424617436
95.6409569367848
95.5987194357418
95.2339559401743
95.0812027567313
95.2020375316388
95.031089544542
94.7873609941815
94.5670412777923
94.3029737429276
94.1429866350558
94.133290756667
94.0625624401527
93.9037380308633
93.7970691455036
93.8807410280481
93.7986008046406
93.7075937651814
93.737691575906
93.7100773065043
93.7602877136424
93.8549902933775
93.7861442037548
93.6971118260654
93.6382509150822
93.7797229865805
93.9692684268575
94.0971496107286
94.2544319347336
94.2390941967394
94.172306792966
94.106703553222
93.9595239221552
93.8721933874846
93.9732498895463
94.1992424284794
94.1594501169747
94.1845297500941
94.258902811848
94.5052563518062
94.4922827138886
94.5397061434658
94.924608673565
94.9636282083108
94.6697472835238
94.6470392921988
94.8761475460858
95.1755214057317
95.3687501709634
95.3945574912912
95.2887275932354
95.3939752814942
95.6714312555663
95.9850004444145
96.1439769638418
96.4511168775253
96.9686824544858
97.1263128784806
97.047576864194
97.1784397158492
97.1865391086383
97.5768700863378
97.7852044466804
97.8319750204993
97.5716015716944
97.6142000826024
97.6663939025084
97.4228156535549
97.2853006927264
97.4455651329381
97.5352394856394
97.5454199046005
97.2268251116471
97.1236432188719
97.2651424515643
97.1743647962003
96.9385124935267
96.8295293735895
96.7003090431926
96.689528089083
96.4581012407512
96.4362759877121
96.7554034741069
96.8565881455457
96.4706755095347
96.2779087620116
96.4276021265679
96.5449830213663
96.3407951229304
96.6207812918499
97.1861127554823
97.6002251337251
97.6403068068426
97.6436651207729
97.2362468816896
96.7887167730064
96.6865925573526
96.5820945978627
96.4936336744857
96.7388216996513
96.7827334889432
96.4566807518511
96.082112119454
95.7596398058078
95.6011123134168
95.7052831154896
95.8348123329466
95.7558130275441
95.5951309042924
95.5338444592477
95.4494891685435
95.3727703431992
95.3959597029921
95.2758454837337
95.0727444979215
95.0176743273542
95.0910751275106
95.0515129521432
94.8395381273717
94.7570669710318
94.7673268060561
94.762991942068
94.6890430144739
94.7395391841476
94.6822788551612
94.5326567954237
94.5302023703388
94.5397778005131
94.421422792208
94.4737920817612
94.4896078473379
94.3817770282548
94.3845539103682
94.4222819454252
94.4778705801201
94.4649452537838
94.3498911795273
94.247313516658
94.2770116168577
94.291677958407
94.2572194971888
94.3253564224782
94.2677886821452
94.2474938973401
94.2705271463658
94.2843537221967
94.3514612862728
94.4055815202126
94.2846185083829
94.169410332759
94.199138208498
94.2801581283128
94.3183029613771
94.2985710086856
94.2453645795078
94.2436817618333
94.2487347014039
94.2554965860332
94.2414211944717
94.2050008359874
94.1934652143743
94.1852661052715
94.1729699152056
94.1584434366757
94.1934288518044
94.2327004433331
94.2314997748454
94.2735439678881
94.2864682973396
94.2105465661041
94.2053733390353
94.2448607029984
94.2884133471978
94.297238016495
94.226807559336
94.1721337583513
94.1884956687991
94.2408714236599
94.2421179769263
94.2059966446689
94.2122680356624
94.2567683934377
94.2688708092329
94.2221565476362
94.1731520785592
94.1770089805243
94.1599371960751
94.1346787587974
94.1433181896939
94.1224476797675
94.1476924635768
94.2340990233963
94.2157204479685
94.1028705614292
94.0514974523104
94.0333141344488
94.0236639548847
94.0373670979996
93.9813427530821
93.9141518958284
93.8476866004773
93.8566452160169
93.8091627569273
93.7921395888686
93.7469660131473
93.7051280721575
93.6463313399848
93.5798796308204
93.4940081809994
93.4605960376859
93.3987698390792
93.2855566925096
93.1799235616405
93.1153162747164
93.0370577514838
92.9336630884126
92.8579720721144
92.7235682572413
92.5756689741263
92.4816171795856
92.2348552143345
92.0335300751446
91.8276356623111
91.6146210187935
91.3731681703817
91.1119515614207
90.8322012124126
90.5041210248938
90.1343292566691
89.6969639111969
89.2313630606728
88.7856306456315
88.4284060485283
88.0524048018539
87.5906805291762
87.063112865525
86.5552060255196
86.1029970452858
85.5530673453984
85.0234541136049
84.4796726420702
84.0509519065711
83.6173395473512
83.0564741646753
82.6064258425252
82.0610758725939
81.4690468796366
80.8269151567036
80.2648807028899
79.8232254774845
79.4889717954868
78.9490081447187
78.3490276042734
77.7895731762045
77.2834927092953
76.7895856447518
76.2304200527812
75.7511734984211
75.2533561471569
74.6693850939264
74.1249073213053
73.6488222393097
73.1861134108709
72.5621234979376
71.8174177841709
71.2862402482943
71.1862111567561
70.9506002526481
70.4697970906998
70.1949875562172
70.0929596390204
69.9011712977965
69.629520249339
69.3224399540495
69.102509985237
69.2028612946878
69.3932874924594
69.3244336595925
69.1765758012098
69.0920055904962
69.0315063607896
69.0657878098773
69.1757901591892
69.1042342773817
68.8789912938739
68.8873569968874
68.9775328231138
68.8550507156853
68.629946318084
68.4760822633605
68.3315985772184
68.1744196964995
67.9876636751868
67.8296824722307
67.6852173704665
67.5756408276928
67.4862324988818
67.4242754975189
67.3561182650227
67.2939177176857
67.2226714740827
67.1395782695755
67.0291973380776
66.9051510774589
66.6868457074643
66.3401480031381
66.0781116009584
66.1168771086652
66.0930124406245
65.7893161179448
65.5806169837271
65.577873357294
65.51975865548
65.3577674744046
64.9780841518907
64.5411543053645
64.9709742453421
65.5638729612001
65.7578358554983
65.8341494818195
65.9408261428126
66.1128104916034
66.2692848971632
66.3539566909543
66.4662477517574
66.63243497481
67.3914785607634
68.2775144094276
68.5020847341211
68.5734890721831
68.9870945951298
69.3751276369888
69.5497469673574
69.8360537200794
70.1613848614177
70.3932623957195
70.9175645315695
71.5152016656731
71.8768305078217
72.2512159599537
72.6537145006115
73.0127601173837
73.1773845681616
73.254483568339
74.1344392955284
75.1892546859207
75.541169241845
75.5420841274297
75.617857488199
76.0025242737216
76.582107379418
76.8668653136116
76.9278935504319
77.1992535944429
77.6700853771755
78.0426751570799
78.2688189014123
78.4283201220146
78.5657553640484
78.6062659433463
78.5476772833547
78.4436272527212
78.4417663485192
78.5336978816464
78.3996209414712
78.002592750547
77.6576851032299
77.4855229255058
77.2433239751891
76.6993700575213
76.2527556072239
76.2866233840921
76.3603309922434
76.1441164759628
75.897194754344
75.749608431972
75.7255284216998
75.7148711996124
75.669380161699
75.5857923272865
75.3692215386913
75.2328287124027
75.4135235151729
75.4827509479718
75.2596173409308
75.0356364348044
74.8313917164358
74.5300231040409
74.1360780929945
73.6945595579733
73.178599798568
72.7419424132428
72.4384237175227
71.9563276801437
71.3327486092695
70.7470228703616
70.2112631114886
69.6701737115629
69.1877682591739
68.8421840198368
68.5374285049796
68.2595864503174
68.1308633236133
68.1055433203667
68.1622365817485
68.3059080936747
68.3129548072335
68.2703788122058
68.4094483823219
68.6614690880609
68.8481492297882
68.999084356517
69.170678827597
69.3335176127229
69.4886412171219
69.7685312190871
70.1256210859173
70.3765558088642
70.6237812301018
70.8855339872258
71.1065879730576
71.4060367146082
71.7969626333146
72.1271201316084
72.3813025756085
72.6118761754607
72.8322382297226
73.0436097359643
73.2619735885297
73.4902529167956
73.7093692350736
73.8890418745827
74.0179035173952
74.1350314808957
74.3171575250132
74.5268514746093
74.6817419394808
74.7743351042137
74.8516009774608
74.931333077529
75.0089539623685
75.0613893607263
75.0796894978585
75.0826961632194
75.0834662926796
75.0778247007085
75.061193463592
75.0466581446048
75.0330918906944
75.026353136304
75.0584199981719
75.1067337533522
75.1375049337859
75.1841571572177
75.256125865554
75.3350392802338
75.4264674689171
75.5385337246972
75.6558039463388
75.7421608355025
75.8209427389215
75.9123012687338
76.0061432285107
76.074429357048
76.0933114408801
76.0889206011659
76.094866946228
76.0844049805506
76.0334692686839
75.9737448594925
75.9156399946836
75.8192703840526
75.6892151113974
75.5375618434868
75.3657229326127
75.1860468653363
74.9921565588203
74.81426928505
74.6552494081254
74.4789897678054
74.3056298192907
74.1349201324397
73.9473712898096
73.775060282841
73.6270231532681
73.4834434652406
73.3674395521553
73.2751785626712
73.2142121840415
73.1944396948661
73.2059711280086
73.2522538392425
73.3169067921124
73.3823035135552
73.4740902505752
73.5760059764077
73.6857162890339
73.8193916415663
73.9726906496666
74.1386896421888
74.3384982804551
74.5822830986962
74.8279916396846
75.0827787390496
75.3663331960302
75.6644720188303
75.973523368967
76.2934880018974
76.6211137218715
76.9461328117815
77.265146855756
77.5469915437962
77.8124293464576
78.0613198166258
78.2785048056503
78.4725010681701
78.6180045216404
78.7209835810746
78.7800260230275
78.7958918085097
78.8093360249089
78.7997705861013
78.7435473664449
78.6727561480058
78.6295180970392
78.5877454393898
78.5244975382096
78.4480648910548
78.3511921660438
78.2434342604282
78.1357725053508
77.992273407466
77.8090080514852
77.619239664901
77.4225292870174
77.2072777911066
77.0017095643528
76.7935010161506
76.5589270073193
76.3165730695257
76.0829336329309
75.8210434050318
75.5469780776338
75.2765897033753
74.9914975101338
74.7153865009539
74.4560374680181
74.1838001908941
73.9107759479273
73.6630947535605
73.4316583095344
73.1959415012645
72.9692145213433
72.7523726852696
72.5407308675966
72.3022623373768
72.0507161897589
71.8040664126679
71.507665678256
71.1426183935396
70.7711201035262
70.3917972735807
69.9914156024831
69.6049206741429
69.2494416148498
68.884783854752
68.4940760765995
68.1108416007419
67.7506755720214
67.3965093346883
67.0827792947348
66.7867496266787
66.4982355736326
66.2462108619892
65.9957174047056
65.7319026688903
65.4610656723555
65.1801860702531
64.9155486994558
64.641543396795
64.3456000926123
64.0645762946549
63.8022116793992
63.5490999317842
63.3389679783699
63.1773265733338
63.0554931366692
62.9814930172463
62.9824228948155
63.0256289217216
63.0633986870119
63.0635516549943
63.048418445485
63.064420370991
63.0933454057593
63.1206427146621
63.1980909712305
63.3032907994131
63.4208880270908
63.5652636946193
63.7476285342144
63.9737291427584
64.2367424172021
64.5318942670589
64.8909040885675
65.2979231826404
65.7373819520674
66.193248104363
66.657723605533
67.1434049466224
67.6657368659992
68.1927089353508
68.6846551011541
69.1025685454654
69.4498962680262
69.7798905296037
70.0956689570816
70.3616393125361
70.6061923881309
70.8308567767967
71.0285881287765
71.2056365678976
71.3514565972314
71.4632881578706
71.5237757016361
71.5384944147886
71.5779243496482
71.624406732937
71.6576673190332
71.7185083622538
71.831916132004
71.9426228944382
72.0497380854062
72.1998617060542
72.4117955424089
72.653584984389
72.9145123092824
73.1881518461634
73.5020189596335
73.8912105184617
74.2969399107137
74.6838616692901
75.0854359439523
75.4544933416263
75.7940080814333
76.1067041143445
76.384707704691
76.6213662416084
76.8095498513064
76.9607059563396
77.134272515465
77.2696926315402
77.3657175549518
77.4691548597719
77.5249630582764
77.5230895238333
77.4887423604454
77.4295971615592
77.3964692282062
77.3779216902335
77.3333815247718
77.3022165708907
77.3416306426776
77.4418480012976
77.5832575434052
77.7206814952782
77.9004521799716
78.0794940970233
78.1511187385216
78.2070330572249
78.288101715828
78.3052178706668
78.3072919845871
78.3165966511629
78.2884647316349
78.2490642777158
78.2459263957449
78.2293432709139
78.2253966063883
78.2297863596187
78.2145158739773
78.199364448505
78.1881030775415
78.1789315941048
78.1637634418425
78.1447081968214
78.0950978258846
78.025774475694
77.9943890010066
77.9487377152794
77.8669587503809
77.7963097371558
77.7657361551856
77.751840295604
77.7342328472591
77.6910735260068
77.6809175903659
77.6530515557151
77.5280412732955
77.3676619101071
77.2022332697624
77.030244518484
76.9245994267889
76.8318081109149
76.7339755694207
76.6673336899279
76.5882192014151
76.4549626929768
76.3460893805263
76.2200254496456
76.0890247631332
75.9670942988259
75.7899797558319
75.5538764610158
75.3529495979571
75.1544779810669
74.9417976110764
74.7761307485474
74.6599172339824
74.5596725527182
74.5029011790897
74.4629709909382
74.4127468680838
74.3432609728744
74.2552454919136
74.1838328771926
74.1611370406272
74.1332943792851
74.0310514953907
73.8678733803083
73.7444075893067
73.6279958095484
73.4740914614509
73.3731138242588
73.3771294508026
73.4629346792081
73.5717799755514
73.6150187872925
73.5898687574596
73.5177839301928
73.4579233767414
73.3639503982248
73.2533619987944
73.1994005656138
73.2021449312206
73.1667235955848
73.086685679499
72.993695298382
72.9230172739357
72.8272766999519
72.7580393850891
72.6996125637093
72.6284144183635
72.5438040673912
72.4601131273538
72.3528026112572
72.2552121259562
72.1309856970054
71.9876199538919
71.8443418600066
71.6904028123062
71.4878639397415
71.2808757714757
71.121917197794
71.0051489897021
70.8834680019281
70.7549129595678
70.6064749065319
70.5410318618208
70.4381528313936
70.2359908697409
70.0382097437362
69.8900012660852
69.6658433434928
69.4704427845009
69.2755133528315
69.1175900565815
69.0229274731735
68.9260888032954
68.7964194149486
68.7124994030121
68.607981460282
68.5101482015291
68.4094127156344
68.3150321266512
68.1883855277484
68.0798250331881
67.8867043313091
67.7012520433413
67.561426757322
67.4759394510652
67.3356764763081
67.1770870930072
66.952154751348
67.0383144267562
67.0220401147844
66.7081139923499
66.5631724632563
66.4636009402599
66.3685715895567
66.2488111431825
66.0640394061914
65.8543679112344
65.6652680160964
