1798
3999.43349933624
650.420452594757
1
128
4
98.8135568071591
98.8955918086161
98.9446241621786
98.9202809446272
98.9237410250118
98.8687157928175
98.8976593453798
98.9335202454172
99.0123051769302
99.0685810812009
99.0200970923398
98.9190779629043
98.8204513133398
98.7813553044904
98.8851841346268
98.8965279058109
98.9827246694992
99.0449241141873
99.0808170028495
98.9916114617546
98.8674734946176
98.7990507621565
98.8552123582582
98.8388706794782
98.844876440418
98.8068470457009
98.8698211367628
98.8717783921419
98.8756872318512
98.8230864340257
98.9188655965798
98.9949460290119
98.9014572112573
98.7809643070633
98.8356101752824
98.8221755714759
98.8487447411875
98.8695230342526
98.8237483895075
98.7816228763835
98.8021743652508
98.8354930343024
98.9754148073219
98.8981436659432
98.8396968394525
98.8880647527353
98.9685188951733
98.8744491753973
98.82406548965
98.7000209101314
98.6085114635604
98.5882528629564
98.7017603445188
98.9065914166546
99.0140637331683
98.8886351240899
98.7572899996661
98.6516743447234
98.7585255117133
98.853190054614
98.8254637806477
98.8604975516814
98.8265291138479
98.8038425098717
98.9400154397164
98.7792874907572
98.6613413632664
98.756875377445
98.8051865622483
98.7027269479603
98.8241372382307
98.799894496507
98.979153191081
98.9729892101537
98.9274899960206
98.8399856345874
98.667116151363
98.5117949405664
98.8648140631426
99.0735368903893
99.0941040843556
99.0219941956597
98.8145084512417
98.7006972829144
98.7976271521121
98.6571117088915
98.697928063692
98.7266817526529
98.8457997834666
99.0512845287974
99.0915609477148
98.9384355695224
98.8746791085106
98.8641047005442
98.604829694531
98.5272330900312
98.852412702824
98.824833680506
98.9692044965313
99.0820722261237
99.0355711758907
99.041360616979
98.8756277024409
98.7996089201564
98.7834426088401
98.6157800747127
98.836458465969
98.8560709858736
98.9133139221734
99.1210343267557
99.0899620038004
99.0330961177742
99.1006896346123
99.0403217087765
99.025195520555
99.0192028769092
98.948879175199
98.8162561492529
98.9499930851896
99.0536196915453
99.0703591445887
98.9218572422388
98.8293937903416
98.8361615031318
98.8651236111702
98.9576631365907
99.1219934148128
98.9097235860665
98.7757178765456
98.7060177497465
98.7572205150464
98.6304828159264
98.5699184181101
98.5558854738101
98.8386119427467
98.7411749094879
98.6763820495837
99.1178477217765
99.0967202592638
98.9677815184428
98.8119791099479
98.7771659612676
98.7828609011092
98.9003011491025
99.0262737510502
98.9623591675811
98.9440888184664
99.012329424376
99.1063940898069
99.0718545909214
99.1068711968632
99.1020725876644
99.0433757880535
98.8043590658059
98.8280297347984
98.8872726560599
98.9494410458678
99.0186135880107
99.06737128855
99.0484599042681
99.065982336783
98.9970872419893
99.0491494905144
98.976664147588
98.9240179170875
98.8481496715633
98.9055754108194
98.9934677974106
98.9411063989992
98.9156563929093
98.8737695725823
98.7609241620516
98.6182548041014
98.5678203431616
98.7970545425104
98.6182152116282
98.731892681891
98.6630769159716
98.7305892953729
98.8512811191902
98.7315967690267
98.4200987537344
98.3958380373184
98.3852099831592
98.3576191923372
98.1737699108693
98.1032918743013
97.9804443489343
97.9807273996887
98.1627437191374
98.3458421659577
98.1629986192821
97.8242276357527
97.5680094114774
97.5530544899967
97.4319344193509
97.4303580871712
97.2993718305297
97.1194417629728
97.0466878355467
97.1243549452456
97.107993867723
96.959730151155
96.8019559603757
96.6843550781254
96.60403409211
96.5582533573792
96.4224682836817
96.323893125551
96.1849289162546
96.1733818260917
96.1131060209376
95.9974350127588
95.6840131455671
95.6465929842591
95.6493437955699
95.5620715036502
95.3406212366509
95.1825671535056
95.0384396905652
95.083090192874
95.0998715455444
95.1036314953552
94.9701088213754
94.8124408083507
94.5800570807336
94.4607255330499
94.350309568074
94.2982076705889
94.1162561092029
93.9791798680804
93.7687556787319
93.6869160805291
93.6650476797494
93.7657379937549
93.5696106598306
93.2427058323021
93.0904915573341
93.062948016773
92.8989065757126
92.8555395321781
92.6860416963712
92.6235003848445
92.5343676379766
92.446450109763
92.3874100749398
92.3645241681868
92.1673015294157
92.0400722983396
91.7314350827079
91.6545801918266
91.6475988873798
91.5188198113385
91.4057567185643
91.3440613051947
91.0490691532748
90.9410073330636
90.9910985690508
90.9836536457493
90.6841589461136
90.4561764442983
90.3670486787329
90.3869618976151
90.1737330382241
90.0208284551236
90.0594391698842
89.993696836099
89.6067580124989
89.6167023883902
89.646449437608
89.4591877943075
89.1866374739246
89.0261317497393
89.0757488708839
89.1347571033866
88.8834544521218
88.7465650475846
88.7487809714987
88.8040379393897
88.7058034644159
88.5969571478471
88.2112609684872
87.921577515126
88.0118107330642
88.2065947887593
87.9977317207325
87.8602696595206
87.8240575483285
87.7222364312435
87.3294506765592
86.9571948406027
87.0749936898326
87.5950974566437
87.4859956519119
87.0679874066215
86.7633618663181
86.6742990208196
86.5784281777873
86.4643877644356
86.4514985649753
86.5686107649035
86.0841756807467
85.5526921686916
85.7743159695558
86.0924976804393
85.7785085786653
85.74973659725
85.9636358784684
85.7668101596019
85.5139659189949
85.9539194327819
85.9509397869869
85.5073844692514
85.2306614305054
85.3884255471841
84.9800555080512
84.3020179514362
84.5163610512701
85.0378522988453
84.9863753957158
84.8346624334627
84.5444965746876
84.3516166237562
84.4214017740424
84.4460530598316
84.1154345922191
84.0702812695001
84.4006080841699
84.3866251101375
83.9183753052533
83.9853498660263
83.9506800563079
83.6416811741292
83.6858704840965
84.0527576030005
84.0797013044047
83.8649400047153
83.5004131138302
83.2828598967418
83.3084206759764
83.5155673352078
83.4519069347833
83.3856605808754
83.2281534772512
83.1562337451973
83.320950319739
83.3784514006829
83.1504979136053
83.1025546527209
83.0668062124224
83.2424258254223
83.3055646660877
83.0284739326728
82.8568869029281
83.0203240403968
82.8698770983414
82.6412931265546
82.3880476140012
82.5344957703321
82.7392796102206
82.901389646079
83.0824551236607
82.9376487042948
82.4555472214904
82.4992170661209
82.6923308069726
82.6815269563509
82.5742324710918
82.4900711040989
82.400369200365
82.5360429872336
82.4674107998175
82.2899210365152
82.3808189724257
82.5452223098665
82.3481539526209
82.3157374960834
82.3418974029172
82.2941567012413
82.3289957084602
82.5273008903489
82.4606164568076
82.3063314296039
82.2276918774161
82.3295372452912
82.0462486901734
81.8721096334717
81.9824809083593
82.0423981083411
81.9791758053616
82.0102523355821
82.0564842266956
82.2810540823832
82.3102952069278
82.1512846584837
82.0202440625516
82.0417747838667
82.0201429362931
82.1453412824817
82.1557335559457
82.1181947000429
82.0444558732354
82.05001786528
82.1044964232396
82.1583013012457
82.0869487600056
82.1174424604957
82.1786710611671
82.3172588978874
82.249640394011
82.1930101559785
82.1272436183945
82.1465347852067
82.1974997788754
82.3043404441582
82.2540180290209
82.2428337487456
82.2926427276102
82.3583325025753
82.3245259651372
82.3779976451286
82.4535070714048
82.6152180833378
82.6294288748152
82.6169087704794
82.5534976116142
82.5889167852055
82.5907912738738
82.6280166079328
82.6072759598508
82.6978757861262
82.6943587039602
82.7207982066998
82.7854201131358
82.9321221072042
82.9834710058108
83.0836509266801
83.0531388435437
83.1161215999105
83.1727379165684
83.1714015112741
83.1909223444434
83.3276005853848
83.3195744617364
83.3630961444087
83.4066676229998
83.5009216606403
83.5348033497544
83.6108992343917
83.6321897006691
83.706307667648
83.7160942435021
83.893064765811
83.9758998261295
84.0503807156112
84.1326313888856
84.2014156009523
84.1550164647327
84.2254361648704
84.3558293502727
84.4316842723342
84.4263320183166
84.5803304626725
84.5878973437764
84.5963971046078
84.5955997154231
84.6068331758505
84.6111441844359
84.7885381986183
84.8410555725633
84.9064831042437
85.0229805092529
85.1626901062607
85.1404105226618
85.2103491088652
85.2586300332882
85.3056991252841
85.2924583590734
85.3815985993623
85.3805253943527
85.4073766693995
85.4155258766661
85.4426062025442
85.4629910757444
85.5199337863236
85.4979683068323
85.622381556296
85.7432434739597
85.8210846950613
85.8003174009221
85.8789144982354
85.9112448376895
85.990327574732
86.0132993891668
86.0533039571734
86.0699544298306
86.0774642891874
86.0253089052177
86.1192139013217
86.1952514243637
86.2346183736521
86.2169204306795
86.2735812121731
86.2211510990887
86.2731211546545
86.3721763729658
86.441688024133
86.4553238557567
86.590077362835
86.6510308658558
86.6879085998684
86.7152193572067
86.794985841146
86.8306141183395
86.8949576977953
86.879545121179
86.9800668565413
87.0320526208561
87.0900207329796
87.1184811596446
87.1601066017114
87.0899480195308
87.1206184225708
87.2061548248584
87.3181248482645
87.3561973926284
87.4612842321775
87.5257370415507
87.6380635193232
87.7228586262144
87.7132727422247
87.5902027994165
87.6458092893056
87.6822685102351
87.6832981720446
87.6678830829832
87.7685574368988
87.7948707662101
87.7932935067759
87.7680064916044
87.7869667219084
87.6799213277182
87.6233924056596
87.6204553023364
87.6216387305873
87.5803235721479
87.5452428085879
87.3721430849612
87.2622142587457
87.1903521301598
87.1615634907344
86.9747995361923
86.836902240646
86.7515921566281
86.6543157665758
86.5848227299931
86.5578089914566
86.4215934994637
86.4122430336717
86.3926915779809
86.3578566707717
86.2505300039019
86.2313328208812
86.2023416909904
86.2176829115982
86.1793063050886
86.0982659741686
85.9341011709356
85.8207632506262
85.7011789380007
85.6575314912431
85.5432982212896
85.4866346366229
85.4311020235948
85.4248504109666
85.4165261387988
85.4816655998393
85.4709232178635
85.5154063166831
85.5426438554811
85.61429134912
85.7004402294132
85.9089138506151
86.0868298710003
86.2077231602373
86.2426943680061
86.3623384951733
86.5248399788901
86.6720208048796
86.6824068878661
86.7400801486215
86.8278352274282
86.9166546733119
86.9505417667427
87.0587991395449
87.1005184746908
87.1860139436904
87.2685010627142
87.3010535528904
87.2366448794845
87.2496378403297
87.2657656920621
87.2932156919175
87.2595213795514
87.3122167897518
87.3067614402365
87.333732099694
87.4347912881065
87.5077577765106
87.5332930320185
87.6280500681107
87.6852494775665
87.7537363007603
87.739107466239
87.7576129210431
87.8194202679106
87.9142147656518
87.9906789784452
88.1171718677953
88.2303618146979
88.4040499551288
88.4813814886717
88.5948246576456
88.6916612547529
88.7988062895205
88.9018866954378
88.979542589
88.9850761906642
89.0733418127192
89.148899882524
89.2179416160191
89.2236028924828
89.2707774006051
89.300483810266
89.3567181370211
89.469658871224
89.5673346595856
89.5802674350366
89.6332713011344
89.6334737614037
89.6470886791926
89.6975967072792
89.7150277042367
89.722370867056
89.8525538782594
89.8977836670996
89.905231542994
89.9028876354902
90.0136224448512
90.0567910869283
90.0850698674377
90.1247721250225
90.1611305534197
90.1729507934527
90.2226310569299
90.2329988762737
90.2964671384164
90.3591195886383
90.3779194312482
90.3605241555333
90.365119560284
90.3785078335656
90.4196423325967
90.4406690595121
90.5022435855419
90.5026028481609
90.520981224891
90.559000224448
90.6284208699617
90.6077592863226
90.6096310851552
90.6822944229527
90.7224197607416
90.6706139125758
90.6983563531084
90.73959939735
90.7591920436259
90.7657899012016
90.8188166631419
90.8230384193127
90.8530616020724
90.8361397162038
90.8197743928557
90.8692027955344
90.9559565681916
90.9544670254171
90.9882252069674
90.9928611325444
91.019748816681
91.0907701023611
91.1093271888667
91.0896702801618
91.1196375187965
91.1593208542687
91.2083817146594
91.1747786516223
91.1848788147234
91.211791694655
91.2564511754478
91.2703326315728
91.2924541690804
91.3199458472219
91.3314588036459
91.3278324612777
91.3780902539976
91.3940233635058
91.4313075415862
91.4562480460999
91.470222806186
91.4824365865503
91.5112104429684
91.5098527631899
91.5272060084908
91.5205377439538
91.5377494798279
91.5571607479151
91.5471859231027
91.5109428876814
91.5401793023732
91.5896742349787
91.6197463977734
91.6109556911293
91.6044527388947
91.6209990491217
91.6994227478744
91.6601248523934
91.5937926682141
91.6300109989683
91.7282487513895
91.7345074115501
91.7610754908622
91.8290147024917
91.8708244121259
91.8769413461465
91.9186606118242
91.9257313561242
91.9703263390594
91.9784196202226
92.0091534706217
92.1124680743259
92.1971968347989
92.1931964418376
92.1879137518803
92.1938688823189
92.2899527377499
92.339192479253
92.3510671077998
92.3778085472698
92.4553307281499
92.4341405871256
92.3473359527497
92.3952123345811
92.5737342248735
92.6561196784486
92.6158141387722
92.5570049553063
92.6690065722198
92.7206831041456
92.7272206047911
92.7898427219219
92.8220789099006
92.7651602942221
92.7340061912988
92.7771732172662
92.8474631625136
92.8810827168282
92.9047222209767
92.935254943627
93.0013356190021
93.1248984604665
93.194663489656
93.1492872122695
93.2025186486763
93.2312251927351
93.2267568732351
93.1957026746284
93.2372858803862
93.2486693284077
93.2186632036245
93.1651232637909
93.2024134786695
93.2517178728178
93.2692054699868
93.3936819776163
93.4751897434128
93.4252758709754
93.3935874344156
93.3623222361729
93.4247219023188
93.533928310613
93.5375791256066
93.4988169429113
93.4876759317998
93.4857477679166
93.5123972731055
93.5684356531117
93.6841972885737
93.5590260213705
93.4838172806823
93.5366088944009
93.6063932841381
93.5815097757596
93.5561262857292
93.5875509568311
93.6345666069148
93.6516241785408
93.6727698098924
93.6853983374441
93.7552095891306
93.7441896003358
93.737501398946
93.764789726302
93.8448204213112
93.8629736557408
93.8175329741608
93.7053870222222
93.6721066705998
93.7766830867789
93.8066410440249
93.7334701966018
93.7351539958458
93.8062219158578
93.8752245949785
93.8492525638005
93.8368324255605
93.8362936308332
93.842727124032
93.8873762429333
93.8544862255929
93.8195993041296
93.8343513761919
93.8137164406443
93.8017664765267
93.9826774716825
94.0180173539448
93.9370350028195
93.9596507514095
94.0495711526571
94.0800058838976
94.0489615422471
94.0869061991009
94.0258680299943
93.9832546783122
93.9570121401188
94.020027320028
94.029746715148
93.9621819692863
94.0335939255402
94.0680399974147
94.0191199210018
94.0350018394521
94.10847271943
94.1311089714575
94.146278215193
94.1794883971086
94.1914652162544
94.1646668679182
94.1126843521738
94.1087137959521
94.1251351302773
94.0894553066837
94.0472214596217
94.062813924555
94.1579632970321
94.1726998587996
94.0520233474136
94.0247989669336
94.0504918190251
93.9805930219809
93.9047861449093
93.9172063965357
93.9630878191489
93.9185508566453
93.8366765300429
93.8601910602606
93.9912754263462
94.1513376616123
94.267472582183
94.3530357618489
94.4766233742046
94.5195654556243
94.5302764731287
94.5656461249566
94.5638135842037
94.5850039432875
94.5267271921621
94.2490405966639
94.0640498152177
94.0718392992254
94.064309203405
94.0518554043928
94.1143071854941
94.1764788075547
94.249224713154
94.2272009384027
94.2470659705232
94.2684688210263
94.1875468656982
93.9767679505687
93.8904509761237
93.9197442250296
93.9148886948483
93.865223514641
93.9831122062013
94.1679225325274
94.1817419921753
94.2062362292242
94.1632012844874
94.0616149193721
94.1005623547425
94.1786179941702
94.1661056833718
94.1930709368891
94.2425581242441
94.1869013857652
94.2798134127742
94.3474299806912
94.3365870690766
94.3405273854816
94.2665988307474
94.3217027492002
94.4264000565506
94.4631960854004
94.5938652441832
94.7311765359174
94.7067211630917
94.6639608251596
94.7612200732958
94.9010536020688
94.9402556719263
95.0500516237593
95.147700895294
95.1525676550475
95.1471684272266
94.9923338826017
95.0288690475637
95.4073832383189
95.5411640000147
95.427539739382
95.4433538838883
95.6090498544342
95.8216911295195
95.7792563170625
95.7987830037315
95.8350532857836
95.9523523779363
95.9796212827205
95.7482552049584
95.659012636908
95.7056277462635
95.8117745227616
95.9940685184819
96.0472928650039
96.0047546413079
96.2677115351595
96.5237231625837
96.5730990899987
96.5427259665496
96.6281510041394
96.8292336997767
96.9803568579774
96.8957671852726
96.945124330798
97.0679890783931
96.9642373097455
96.9991396347945
97.0692274588571
97.3308026502685
97.4765809557075
97.3663918770363
97.2651056092791
97.1360266632491
97.0582868480631
97.2276257280217
97.4329106310023
97.7654374189252
97.768553435535
97.86914274026
98.0365642629644
98.1630402113432
98.3072826862725
98.5481486884179
98.2536207963579
98.084907316005
98.4564673380929
98.5405054753967
98.7697833155057
99.0653753648492
99.3718373884491
99.4163998581793
98.9324082110056
98.6394288569273
98.6914956495043
98.1633638046897
97.7738768851471
97.8365793411087
97.7502535856793
97.3517326822413
97.1580389195658
96.9975488136273
96.9271626293957
96.9152224423528
96.7752692746322
96.789656930375
96.8041425895332
96.5081756206346
96.3283458521351
96.1810139118548
96.0651761158946
95.9013555179675
95.7559266490234
95.7665234260818
95.6821541316216
95.763554912683
95.9518813467315
95.8379809543633
95.6962420003013
95.812849416641
95.8501182637729
95.8084721273247
95.7415208688156
95.9092784285952
96.2703456200197
96.2305758925286
95.8413063566129
95.9001119935787
96.0190206195919
95.9459389280558
95.8012744145271
95.786445449644
95.861031063367
96.0519478976013
96.2370856288722
96.3208874009911
96.5194129780535
96.5909173649195
96.4304926199463
96.4481725433243
96.4786769932789
96.5316706640195
96.926828617908
97.2203849134112
97.1807673830144
97.0457174211349
96.9631394574488
96.8089289855267
97.0076368248759
97.4781353289918
97.7134926767422
98.0639790624295
98.3202080094868
98.4379849002008
98.6005372676469
98.9916066702448
99.0181881924408
98.92082844971
98.9470666173188
99.251770032463
99.034203701874
98.517856485445
98.8705742554073
99.1660540267031
99.2608106582862
98.976990776672
98.7168870082644
99.4050696922962
99.484081940881
99.0691348654519
98.4130201882112
98.4214762899483
98.372530480314
98.256121854721
98.3072173277057
98.4121313809898
98.2074333974074
97.8482291651849
97.9643936996748
98.057248389595
97.7255720690159
97.7492080784567
98.1638769155857
98.3780318754563
97.9940530719471
97.8835142408901
98.4723348784089
98.9432436689272
98.9386777744075
98.8971307275496
98.9190197909123
98.7237249667347
98.5853860512136
98.3746446356167
98.3254276476919
98.4064354070603
98.4361066457292
98.2828510751272
97.9123405334374
97.9556888910187
98.0016806043837
97.6223330058214
97.3675483981904
97.4740939812572
97.4691463977839
97.185028986692
96.9853159996357
96.8583017866196
96.87555400892
97.0593617519996
97.0224935550952
96.8402162734325
96.8015295812201
96.7065489186019
96.620452769495
96.6264084160306
96.6058707538264
96.4831200472246
96.347394187955
96.332547318976
96.2512612234107
96.3084243736216
96.3698848543207
96.3048172851678
96.2391685014845
96.1899501762529
96.2170192729686
96.1330952648953
96.1759857687206
96.2859225682997
96.2943804350673
96.2071559644104
96.118237205621
96.0503129836674
96.0803770679314
96.0901842655872
96.1405446628907
96.0590388407314
95.9229921660864
95.8951922988378
96.0260614047807
96.0990085522734
95.9774384662662
95.9053511256167
95.9812452264432
95.9968790523613
95.9479590058525
95.9042050167704
95.9481903102264
95.9857558948191
95.9759778533075
95.9572024524746
95.9784374791912
95.9745817988994
95.9177844848061
95.8563307406513
95.9089219606156
95.8426499637036
95.7381840340017
95.8123957482061
95.920738665377
96.0126422855107
96.0309975875817
95.9630850093228
95.9455368179686
95.8681772186949
95.8081016528048
95.8137406632185
95.8026112919231
95.8296277158285
95.8306922974799
95.8979032540884
95.9416523124817
96.0073281064963
95.9667023080842
95.8670630127636
95.8745848999114
95.874069803817
95.8631476081992
95.8687523570834
95.8408657961549
95.7593427364856
95.7363358705943
95.7522813255235
95.7787668239766
95.6950767685813
95.6160540577746
95.6596693996553
95.7411632072097
95.7256181111313
95.6699227139016
95.64738488166
95.6232308920886
95.6190189669437
95.543699173759
95.5098206748926
95.3768960266757
95.3907246132824
95.306476112139
95.3194829988227
95.3839386656113
95.3548455610296
95.2467010061201
95.1312994960404
94.9874930013717
94.9562430739208
94.9641505232201
94.8336959372604
94.683323717986
94.5054582221961
94.4175360074348
94.3647687672171
94.3258445980086
94.1541896063031
93.9177092156746
93.9324160854285
93.6941548309389
93.4753210266894
93.3524275136204
93.2575643148726
93.1911215630745
92.9195616130536
92.631122905028
92.3035517522768
91.9927681102456
91.5457908277623
91.1204701540414
90.5877400326129
90.2724157434989
89.9869654172863
89.6647193490177
89.2761516246149
88.7724859549684
88.4260906417582
87.9667467057193
87.4595704790464
87.044084520366
86.5501383704514
86.362973483793
85.9259541935678
85.5798620471086
85.0671967286651
84.6076643944782
84.0104383510768
83.3781076246629
82.8695931644684
82.7338683245625
82.436214810263
81.8521602634097
81.2575059010613
80.7392331476495
80.3449020870431
79.8279540082267
79.3985710424378
79.0682665901283
78.5900565266458
77.9991580064709
77.4733206566935
77.1057666645312
76.6131064205791
75.8079630801078
75.0384344559597
75.0475656790924
75.2299827015215
74.841806522962
74.4071466532279
74.3256764452946
74.2268006123117
74.0026280209409
73.6346049366022
73.2561212571493
73.2261300015239
73.5241227903215
73.5775702275972
73.4068389152072
73.2825630495987
73.1521477208414
73.1113827751582
73.2405164091123
73.2761594121396
73.0076761090221
72.8283199705795
72.9863973766405
73.095247206008
72.8613918334745
72.6370923185531
72.4736683438167
72.3677605610328
72.2262784655926
72.123316059913
72.0280878233377
71.9278169599141
71.8168859787947
71.7709540840677
71.734320831813
71.6899481510795
71.6176640576322
71.5188222433943
71.380577525413
71.2695257868817
71.139832974436
70.8184316847934
70.4320205830819
70.419906610631
70.5863185800439
70.3795368417922
70.0985370990477
70.0332049277147
70.021636231519
69.9228595830448
69.5906753703056
68.970676262333
69.1374289724428
69.914243927842
70.2969344029391
70.3478372495323
70.4337517092942
70.5291880607171
70.6414899455264
70.7138202987169
70.7568977023699
70.7853124004076
71.3538077760172
72.3350469731401
72.7056514283795
72.7259453886628
72.9942202981037
73.3836185198489
73.4889253642971
73.7290901449163
73.9849967547505
74.1292200902203
74.5508641853135
75.1180284407492
75.5334931521706
75.8542983261513
76.2079088041165
76.4932212498935
76.6169237520199
76.5714825781399
77.2521137014765
78.3476189026415
78.8923098596522
78.9348262762395
78.9011971998829
79.1449107048524
79.6669350269406
79.9946509145567
80.0448010539499
80.1740863298785
80.6124076987155
81.0143221851646
81.2746222744889
81.3927197090768
81.4540402455986
81.471937359334
81.3752569710066
81.1888759817052
81.1425050509784
81.249969615224
81.2658794308489
80.8695690060571
80.4690007052267
80.2861497690241
80.1442507400685
79.564089221856
79.0263926917174
79.0802353142521
79.3686095221674
79.2778412586065
79.0142249915118
78.8343741139175
78.8037808186646
78.8061617941205
78.7305129707373
78.651361952822
78.4407861405326
78.2381877729262
78.3373824346728
78.4926038935917
78.2995628381881
78.0854568753383
77.8931992473019
77.617768496112
77.2499534190294
76.7970096544698
76.2561999061659
75.7867525814982
75.6372565373439
75.3271443593016
74.7520023194652
74.1990861577862
73.72392103619
73.2578873957426
72.8158955152645
72.5552502683044
72.3377159225386
72.1095527222931
71.9876188037771
72.0010153497762
72.0386892858566
72.223978436432
72.299116497356
72.2452357661027
72.3094983263717
72.5468765655854
72.7647493855679
72.8840931934751
73.0403062308934
73.1829627134241
73.3228293285078
73.5574516233693
73.8537048370082
74.0499853805422
74.2532725854787
74.5157949963826
74.7165575985107
74.9294880660243
75.2661507842049
75.5806764967548
75.7988601458144
75.980371039626
76.160164209269
76.345300918398
76.5295005644419
76.7058780818525
76.8939003723558
77.0505554899446
77.132751228477
77.2107335717282
77.3630688096588
77.5471898934889
77.6759043075317
77.769515755054
77.8374049817955
77.8972083987078
77.964966906857
78.0208876463573
78.0347665796969
77.9942495498001
77.9613039853492
77.9570262508768
77.9585937525432
77.9610500038857
77.9486099165032
77.9360568895368
77.9529444839864
78.0030871472361
78.0483386168073
78.1024571214408
78.1740578428786
78.2390533325856
78.3258719823708
78.4159559315326
78.4899524613168
78.5708338073634
78.6766260512693
78.7652924647664
78.823457946571
78.875663218865
78.8958554356129
78.8892235097567
78.876982546605
78.8493318037638
78.8233258079697
78.777747227167
78.6846187042969
78.5893837527427
78.4931933142839
78.3606941219728
78.2072502971212
78.045216128983
77.8965111195854
77.7385042606389
77.5925614865718
77.4493718147329
77.2938180326755
77.1587171255227
77.0272194570689
76.8993516289601
76.7768221159034
76.6570825979985
76.5804953487959
76.5283459589424
76.4817892132456
76.4728874797957
76.5238469545822
76.5925536418543
76.6623801456112
76.730918434679
76.8048244933391
76.8971871722433
77.0138961573414
77.1549023489204
77.301986568069
77.4515647683145
77.6295969138192
77.8164037239598
78.0207070165841
78.252618132731
78.4861074181144
78.7418518613139
79.0226743858256
79.2896992328742
79.5396522347208
79.8088423471729
80.070866882564
80.2987361276446
80.5407516973961
80.7452328840014
80.888395233186
81.0327234630073
81.1603215706046
81.2402233925394
81.2978410870654
81.3412644958422
81.3416331380817
81.2966987538092
81.2722138822106
81.2409195370121
81.1743388584247
81.098523283431
81.0493253051744
80.9965573941959
80.9242568071858
80.8331962456593
80.709257623329
80.5657743410318
80.4242320452677
80.2763783622973
80.1015162115322
79.9107829716544
79.723714321713
79.5159278437108
79.3115359461949
79.1218462413907
78.9345456352222
78.7121312018327
78.4675222702493
78.2147308255212
77.961154070785
77.7122495949203
77.4504442731024
77.2007957898489
76.9930002906238
76.789410398993
76.5684781472221
76.3398304900013
76.1257498254111
75.9512512827199
75.7990671746083
75.621029226202
75.4227103032812
75.2016753265103
74.9324492495019
74.6144006031989
74.2988441385132
73.9898125196389
73.6654493847372
73.3627471358471
73.0837902952875
72.783745729342
72.4543393363035
72.1375000965734
71.8229642680824
71.5044634017955
71.235630880354
70.9906246019266
70.76763621583
70.5646885645043
70.3666155935887
70.1638194197584
69.9465017425392
69.6779915335909
69.3914284474792
69.1393153038557
68.9114477100489
68.6750363820625
68.4341766257522
68.1909891431404
67.9829107144339
67.8068915616857
67.6802106575425
67.6398590837044
67.6602921523394
67.6529938915915
67.6176158848709
67.5914285426853
67.5606103395389
67.5333309047697
67.518481216343
67.5434749355097
67.6026979887316
67.6765154447511
67.7741305558708
67.8867318400445
68.0096341549471
68.1700852125934
68.3942935947804
68.6362822980118
68.9158906907952
69.2359393993965
69.5861651555526
69.9543962357985
70.3630649505601
70.8108808159682
71.2360219536182
71.6321642682165
72.0381148504309
72.4048441688503
72.7125060815748
73.0052653610519
73.272082362744
73.495160407098
73.690686910374
73.8263974604601
73.9612042738404
74.1455558460889
74.2914477514835
74.319027832618
74.3557703644805
74.4152102689477
74.4240924314541
74.4365492627247
74.4962755046314
74.5768974971001
74.6589957710745
74.7430059337374
74.8423851851666
74.9753033396589
75.1612696228671
75.3676935934607
75.609973572872
75.9017845329998
76.2006311144919
76.4992578361987
76.8232187694327
77.1514945583644
77.4672322955922
77.7659963381102
78.0686180667703
78.3426036425141
78.5461203670711
78.7458129314511
78.9681396127015
79.1204060883147
79.2158456094009
79.2909065262522
79.390879133242
79.4783684113316
79.5393682234976
79.5595746002833
79.5428661619129
79.518371889655
79.4970963839869
79.4672790333106
79.399413202018
79.3534155065888
79.3960868993935
79.4830264914582
79.5897291017963
79.7190652068123
79.8781618757732
80.0198590155103
80.1290041685586
80.2051026973281
80.2559907005451
80.2920041638274
80.3341481507374
80.3214251338311
80.2894940348349
80.3037678064422
80.3205598939674
80.2915855354731
80.2677234477005
80.2699379784895
80.2884285237271
80.3102259117619
80.2982926761894
80.2655082735557
80.2820728043572
80.278086983919
80.2323186216651
80.1590640366507
80.1072313909455
80.0817136287062
80.0071563141518
79.9442365485728
79.9409456344583
79.946007114336
79.9145164013732
79.851189899526
79.794185685454
79.7477164089504
79.7315017450414
79.6677096324033
79.5544134477309
79.4454218141566
79.3425115094153
79.254900851667
79.1994320787144
79.1414997735157
79.1068435854558
79.0177264219032
78.8921433572884
78.7976756620956
78.6925644565916
78.5665381346808
78.4467999793226
78.2799716713115
78.1036092261896
77.9099629354378
77.7263069665946
77.5694760057728
77.4547898854792
77.3732679683573
77.3349592202451
77.3181891744969
77.2639620076118
77.1675239024752
77.137110765921
77.1443071351224
77.1358255053573
77.0765575436376
76.9972894418903
76.9173152118195
76.8182561521199
76.70848604966
76.6076490600898
76.4511591189228
76.4107642035342
76.5229165723223
76.6122694807899
76.6272363828482
76.6056243617556
76.5519563828741
76.5125124792902
76.418281997041
76.3198605295796
76.2981790152952
76.3039673885206
76.2574725292128
76.1526248672363
76.092929701354
76.0793485305236
76.0125441934923
75.9395081388731
75.8849772943083
75.8454440209373
75.7748520852635
75.7191641140226
75.6428687063729
75.5232652881621
75.4109691586189
75.3269621215927
75.1667722402476
75.0251123044798
74.8805731885566
74.7296292926809
74.537786245445
74.3922201492689
74.2680445130181
74.1991141184574
74.1331186745306
74.0352411934953
73.9102603918243
73.7648510603412
73.5855575318761
73.4181677931207
73.2327044861226
73.0395096090421
72.8731011279997
72.7576733957711
72.6532251318837
72.5887546988226
72.5218191290832
72.4136162140717
72.2867154517922
72.2330127906356
72.1615913011637
72.0535660935017
71.9169191856236
71.7988189484997
71.6700590494768
71.5720585169084
71.4401127425991
71.3414029620247
71.1670583215342
71.0046764646362
70.8166250547581
70.8507374822463
70.9850090058025
70.7400473196598
70.6074609535474
70.4614724830915
70.2868649088153
70.0969616814383
69.966526141219
69.8345221010275
69.6645515207248
