1798
3999.43349933624
650.420452594757
1
128
4
95.0809462516232
95.1697854239934
95.3590264513889
95.347021873309
95.1734534616961
95.0372915638206
95.0824866160427
95.2020983569165
95.199401033756
95.1519413581704
95.2434919268076
95.1964368355227
95.2673047298137
95.2520201200109
95.1385916259047
95.133807625961
95.1747526977321
95.1471311109284
95.1489546992995
95.1999799914452
95.2584462299768
95.2586992475013
95.2300560921949
95.2330846804648
95.2940408223276
95.3614841323382
95.3468767174514
95.1244643968145
95.073693490238
95.1283814068281
95.2793396416641
95.3863163769324
95.2751624643856
95.174079440615
95.2909576550184
95.3576209652685
95.3501045801972
95.3498426824584
95.2932373174205
95.2581682879585
95.2843949618263
95.2203316641914
95.3070353100201
95.2908131858603
95.2781203140239
95.3350924648221
95.3645724822725
95.316421175065
95.2463447767093
95.1137472018373
95.1147467846593
95.1465757176927
95.3291085074437
95.4553414196962
95.3874051587126
95.3124603222869
95.244479969658
95.2034899839059
95.2891890959585
95.329302127244
95.3333043522439
95.2685630396313
95.3168897683023
95.3814763539426
95.2993271103312
95.1981193915432
95.2754940815421
95.3068090950463
95.3688045048218
95.414687345397
95.3810177887409
95.2889789989994
95.3415000169589
95.3993476278068
95.5394309879055
95.4739984807519
95.2674521499111
95.1559435617134
95.2778751361112
95.4292605542199
95.5619228960055
95.5182452690846
95.4852389728596
95.4296867875734
95.5760813174579
95.489140346244
95.2141884244701
95.3609405115936
95.6653222541448
95.3682043150689
95.2729627797184
95.5435731757261
95.5500685975321
95.2886306247603
95.1446120084606
95.1231415326742
95.2740789630236
95.5581608501997
95.896722346517
95.7780228115616
95.4851876249194
95.6285450926269
95.6036708772098
95.3686341317072
95.2501900194383
95.6924151355458
95.8401691049882
95.4996654561934
95.1318066451758
95.0367761821071
95.4580468289463
95.8141374186139
95.8875595294507
95.7805462066346
95.6739732561226
95.7425984179077
95.7181886833755
95.6811850655201
95.8412488899115
95.4148216730321
95.2491712411372
95.5780372969512
95.7832262898059
95.6329551490536
95.6722990130876
95.8673315892151
95.8645329042304
95.7513093309752
95.6754769212171
95.6436075292912
95.3004642906506
95.2321512024207
95.4579420961929
95.8689874182835
96.4035533088882
96.0967704675256
95.2130253078448
95.3757661504653
95.659648253175
95.7577575681984
95.6752592387017
95.7230359937829
96.0596530799708
95.8683401625129
95.5508432960743
95.5651397150961
95.8246880644054
96.019419672442
95.9546813036955
95.9771254254545
95.9704722715675
95.7505551821054
95.7019948965522
95.7594551129715
95.9020544947113
95.8947150782101
95.8317720129192
95.9386611101945
95.8175995167512
95.7488853370084
95.7459146079281
95.9667718843811
96.0033136767408
95.7003965825888
95.4657873091931
95.6495318569123
95.988285238942
95.8729666435827
95.8119679149221
95.8233558312725
95.7406766868604
95.6766488433673
95.6297481156379
95.584460912533
95.5965341852116
95.5550476014634
95.5915393761948
95.6007139301544
95.6225628495462
95.5646609741996
95.4234928852904
95.4664617437836
95.5244096842793
95.4323398720117
95.4072759534937
95.2092304158517
95.1284679400873
95.2164939416081
95.1679071842685
95.1455820287032
95.298173187039
95.0796862273088
94.9090758976752
95.0325343361711
95.1542004683942
94.9778219740827
94.7456018403845
94.6794616949878
94.6545561072197
94.5530339479354
94.523778423299
94.4789919102923
94.4422120571541
94.2758998833628
94.1830135162995
94.2672058603084
94.2925673047655
94.1027375099662
93.955797094807
93.8653870260271
93.8908939737446
93.8930080964681
93.8229759599774
93.6591998090144
93.5851295470624
93.6640696403214
93.6748695472962
93.5056504025997
93.3439873563945
93.2253065499232
93.1869572012992
93.083915167546
92.9022051755274
92.871066345268
92.9170003106704
92.8509830850317
92.7939064148849
92.7697309024798
92.7769966468558
92.5427806409262
92.3606250509203
92.3011941463496
92.2072258373942
92.2290570188391
92.2984709227815
92.1748340549063
92.0767658958423
91.9802637872737
91.8073651805009
91.7580285661752
91.831176411579
91.7014359985538
91.6383536368625
91.5492061876661
91.4440198331698
91.2630008737203
91.1072727747649
91.0725525013964
91.1365218415747
91.1310625839363
90.9718455317644
90.7881651896949
90.746007320126
90.655465013406
90.568825060839
90.4943930432365
90.5038968738677
90.3754941989856
90.2509367360549
90.2401418237389
90.1430382259307
90.0275911369321
90.0998021967124
90.0210794818765
89.834548276003
89.7332097117433
89.7209815427707
89.6323945651517
89.5020966133865
89.4055778735404
89.4593656012321
89.4954620846475
89.4602471598715
89.3142402573572
89.1551330038325
88.8732156147843
88.8964691245205
88.9936133002944
88.8987269825501
88.7089429190934
88.7418038901471
88.5419343255456
88.3896057122867
88.4670815260947
88.4630987299849
88.3515696840545
88.342073345066
88.2510752595566
88.1241134881961
87.9331308241093
87.9674968417055
88.0024641867633
87.9161876971019
87.745411398622
87.6493877397216
87.6080208051414
87.6115689826981
87.5220056406705
87.4529306775087
87.3566053896212
87.2706253526091
87.1826734055739
87.2109660424562
87.1814940345231
87.136810882471
87.081676478311
86.9509882170757
86.7713697086532
86.6659180564512
86.5981619164811
86.6666542202607
86.6594782112572
86.5583122929234
86.4597316312233
86.4231555547945
86.3519950167717
86.3216216622708
86.221848348949
86.2596509158976
86.1744061857157
86.0810446803351
86.0235209236043
85.8907545798485
85.8123701774139
85.8410331947175
85.8204745799869
85.7554968843074
85.7070874997642
85.6982908262429
85.6952918704537
85.7381408908477
85.585506803471
85.483976650231
85.4945581638451
85.4600802790994
85.375399756993
85.3954254959662
85.4470476511733
85.4222398374178
85.2315324665794
85.1244507784664
85.0782274359551
84.9663793732797
84.9952398954692
85.0704339835007
85.0388163258834
84.9469745209382
84.8931194705121
84.8651599919038
84.9115612252095
84.9723318199942
84.9783061436433
84.9137043875726
84.8441162101811
84.8505838001153
84.7509007576986
84.6892865184408
84.7931544613908
84.8136527220135
84.6799705381762
84.621928924856
84.6214343656553
84.7246058703174
84.6922785758445
84.6702842812012
84.6913524830543
84.615718581878
84.5326509615555
84.572725683779
84.6269465922862
84.5703340750051
84.5550935968676
84.5674268247639
84.5175432767618
84.5605513340705
84.5757269775749
84.5691486696336
84.5009249749323
84.4930536566099
84.512147133528
84.4381177028667
84.4439821713761
84.5271015881009
84.4688200905712
84.4108454594717
84.3095278529101
84.2905986562493
84.3091562740294
84.4153331548791
84.4750438788729
84.4818627470733
84.447525735931
84.4500265418318
84.4306447328197
84.4706951074137
84.4238158642718
84.4344139118695
84.4013775749781
84.3739901957544
84.3517701212434
84.4404232479856
84.4342208941812
84.479563110958
84.46989113035
84.458830184155
84.5135969663095
84.5102309567834
84.4442045801309
84.4855409183739
84.4197455793622
84.4744986254513
84.5434133970689
84.5505216420737
84.5297255641925
84.5140554774435
84.5249425334015
84.5773924339214
84.6464238679901
84.5932504180419
84.5460605087129
84.6145821071043
84.5901609542828
84.6333490450586
84.6929045860486
84.7181149667309
84.7320822434333
84.7834446199092
84.7085988912851
84.6604878233767
84.6495323477137
84.763271773767
84.9457586036262
85.0657890117066
85.0256631869437
85.0544829582774
85.0660665752069
85.0813852264458
85.0596929691939
85.0470183966091
85.1423496006107
85.1511936384086
85.1160984338561
85.2138317053762
85.2778630884716
85.2929575181181
85.3461079261847
85.4239816661226
85.3850896508557
85.4657673323954
85.5458227364195
85.5589774274323
85.5941942755443
85.6383224589419
85.7002039779381
85.8115516513625
85.8083454217671
85.8489531302273
85.8885731065358
85.9637251341683
86.020592968749
86.0536247577741
86.0447272036524
86.0996090001331
86.1225761186632
86.0985320011553
86.1571999058094
86.2658454669955
86.2666619766733
86.3853138995296
86.5041204293965
86.4993212564152
86.5114693190913
86.5826190228062
86.593642854222
86.7613006219147
86.7696360097696
86.6915381210348
86.6947272697447
86.7721140602077
86.7367737668652
86.8219553841774
86.8821779603981
86.8053445631971
86.8572084647747
86.9945601817103
87.006147885483
87.0556439525691
87.0378919751485
87.0447505153225
87.0828960067462
87.1092494173651
87.1119645859851
87.2310612766714
87.3327346949243
87.3757749640077
87.3106488657778
87.3629335091576
87.4030191860848
87.414241618104
87.4933462056335
87.5331928432153
87.5657979070626
87.6397119440873
87.5927810669071
87.5827228690292
87.5962051302801
87.6189286433536
87.6541601230218
87.7258229781751
87.8178140878317
87.8630060537428
87.9419951922668
88.0095929559909
88.067249502779
88.1215721553562
88.1422496620489
88.1414196639422
88.1269126391702
88.1329390163683
88.1835523983088
88.2363470012981
88.2556142929452
88.3193545352756
88.3807458795806
88.4388142469008
88.4891173892
88.5191381254582
88.5301965425285
88.5888755791126
88.6420602396438
88.6496492008179
88.5972817253635
88.610220261559
88.629704720927
88.6136839626617
88.6325436953764
88.6176877696884
88.5927254199166
88.6424784518909
88.7057815126646
88.6797495183849
88.5723526269928
88.5742174062884
88.6487486968
88.5915913971766
88.4194581527749
88.4256335721739
88.4459260905307
88.4014649825003
88.3698930532346
88.2756976215955
88.1408723688632
88.0499195354613
88.0211945869478
88.0420142157113
88.0142123459
87.9611772104562
87.9206643347754
87.8804864474015
87.8366137848232
87.8082564276567
87.8251266538622
87.8690941485883
87.8218491414876
87.7284948321366
87.6939228160955
87.7193355661137
87.6788268377574
87.6476099451408
87.6609508094536
87.6047400362319
87.5152569015148
87.4659151041986
87.4163469933522
87.480916398743
87.5443717298552
87.5204771584281
87.520783704461
87.5894912253082
87.6158428777302
87.7483190643308
87.9035253800332
87.9464670267077
87.9693511959791
88.0586854054755
88.1338314068144
88.2343820274745
88.2849091135315
88.3191968775328
88.4082718237054
88.4550857436814
88.4643786971621
88.547138025236
88.6706179791503
88.7541883384141
88.7316646014905
88.7087380585916
88.7740892319014
88.8981552473565
88.886286301273
88.8251798520508
88.9019371798782
88.9936829530113
88.9825425187743
88.9979137997836
89.0778159392359
89.081101532583
89.1194148080779
89.1066572583102
89.1279697689785
89.2459186887441
89.2944121255613
89.3085874749871
89.3596018243264
89.3772066069128
89.4209372237587
89.4928577187933
89.5816678953596
89.7042946506717
89.8478790005121
89.885531985403
89.8713726806699
90.0190180984205
90.1281962479614
90.1386262517816
90.2157331648475
90.2847022561487
90.3183253890515
90.3618633835546
90.4465276696079
90.5052725877605
90.4890916729999
90.4861143738385
90.6032062504375
90.7110311935104
90.7242581687763
90.7098456206442
90.7319533320029
90.8275094302442
90.8998177240457
90.9006184978219
90.9016136982247
90.9005140937101
90.9374590497402
91.0230917876908
91.0709854500067
91.0529571361515
91.0853314611589
91.131067280156
91.1575054543991
91.1839794637655
91.2001212846191
91.2053684903517
91.2129073815725
91.2667698093739
91.3264389044147
91.3724763956669
91.4151011376501
91.3840531652313
91.3848178223678
91.4339879272673
91.4841404084863
91.5185890247861
91.559829493998
91.5998009516852
91.620062038063
91.6607842304863
91.6908425092261
91.6452938482785
91.6450258504689
91.7034209395805
91.6967824215532
91.7154860891695
91.7859701151451
91.7809273962824
91.7682157851083
91.819021863235
91.8605518388072
91.8657712533247
91.8939225052761
91.9221256584775
91.9071736248656
91.9276965705223
91.9505128175783
91.9723171233925
91.9892152708597
91.9510856483564
91.9818407661793
92.0338487805795
92.0898183236326
92.1726335028441
92.1915538103851
92.1925284946214
92.1811177884929
92.1416422960144
92.1712622285183
92.2766558310907
92.3498289058274
92.3495361851338
92.2988658945093
92.2820206432666
92.3089220295802
92.3455955588391
92.3998031450787
92.3834971590382
92.3886693641193
92.4198915900737
92.4737528594776
92.543461044975
92.5688335890459
92.5343505333014
92.5287686499873
92.5645072940543
92.6197958105844
92.6433129556661
92.633376895057
92.6019029025463
92.6100445761818
92.6581800157353
92.6739138697646
92.6605388027333
92.7065542603853
92.7471937825924
92.7285149715145
92.7329030364272
92.7611346901578
92.7680898762171
92.8035282459325
92.8338316368356
92.8890614694048
92.8881881172207
92.8864127333318
92.9024640323724
92.945375393805
93.0699139426003
93.1522272001344
93.1082954568907
93.0726141199663
93.0678513416091
93.1205911031825
93.2101141077273
93.2781795714638
93.2367551177513
93.2219570926151
93.2917827480865
93.314072548243
93.3070494235131
93.3632886362147
93.3695455083754
93.3998634313795
93.4646662523376
93.5152248274407
93.5153213719534
93.4670696809586
93.4954915437481
93.6436268175458
93.678419302032
93.6873419711992
93.6760079238727
93.7104403850685
93.7525238430935
93.7076560337643
93.7122925864259
93.7522831870734
93.8047273590459
93.8881660402343
93.8513057496946
93.8037247285386
93.8285975757339
93.9421307710404
93.9845399686927
93.9660626549105
93.9196318195453
93.991780750264
94.0923484813275
94.0212497236162
93.9838709867643
94.0963831495204
94.1484414046134
94.1903589522477
94.1772229946789
94.153619243447
94.1423388817786
94.1495234267869
94.1146540337535
94.1916578112434
94.2361585349274
94.2461534940426
94.3088231392464
94.3041972778599
94.2102775754493
94.2299406995045
94.2259472850064
94.2546807983931
94.2988186144878
94.3989217974105
94.4133546171281
94.3710848263155
94.3139361886183
94.323811266327
94.4173249312406
94.4517353844161
94.3967164226363
94.4483755774558
94.493055173618
94.5021250276057
94.4857164789239
94.4973362230557
94.5549427287791
94.5715666785862
94.6083463470365
94.5726904117333
94.4785145649259
94.5105583546748
94.5550703382149
94.5817517278367
94.6229493813873
94.6041599190222
94.6235024995485
94.7163840992712
94.6981643457325
94.6893138596632
94.7156531031195
94.6595156451216
94.6359334342897
94.704978337353
94.7239818177377
94.6924592417072
94.6455016576838
94.6291166023145
94.6538796955887
94.7215651402378
94.7356173448399
94.7577193775192
94.7141899285274
94.6952853120744
94.8427189207293
94.9026712501212
94.8428901069323
94.8409651041083
94.7930529582648
94.846122222022
94.8892680066258
94.8277521397275
94.7855826236625
94.8626840154858
94.8794994797004
94.8230080643397
94.7657624724667
94.805369792201
94.8936779932897
94.9605285599083
94.9194437494817
94.9133862503046
94.9593063751732
94.9165007416195
94.8625353994773
94.8872879642295
94.8965949054079
94.9181782378804
94.9508271869893
94.9352521281621
94.8797359413876
94.8785395851137
94.9201730553928
94.9212035809971
94.8732691427258
94.891762959295
94.8900952150034
94.8710565246182
94.8691232038251
94.8640627868649
94.9056963433854
94.9707274955893
94.9818362987553
95.1168328531158
95.1218247865625
95.0539029395283
95.0875701653249
95.1637264642567
95.2375729285852
95.2304707303536
95.2480069690478
95.3496784549259
95.2657570885165
95.0565376935725
94.9432843797987
94.9173695475446
94.9092485050913
94.9262355997481
94.9851736484816
95.0543679614437
94.9676155195153
94.9340575688538
95.0200489534841
95.1090577553586
95.1542942815202
95.1133964069486
94.8907554370346
94.7656168540261
94.8743837063909
94.9853941180935
94.9947494094305
94.9551530480481
94.9431838721874
95.0044557057666
95.0389083487239
95.0480495088748
95.0661438814234
95.1095274081602
95.0828787537943
95.0396659259743
95.0249788074855
95.0804958728139
95.1109329416489
95.0808684360614
95.1455688521478
95.2522997325653
95.3091676307884
95.4105556426904
95.4173175693458
95.3528812504586
95.4192886983569
95.4429031108618
95.3941503347656
95.5349329637163
95.6689796340625
95.7115802523836
95.7132995066413
95.7624643852142
95.8723615962058
95.947745687396
95.9667112488557
96.053775904326
96.0865991092257
96.1285532342633
96.3155706084688
96.4583219858893
96.3496808829329
96.4176960792509
96.4183118092227
96.21705473436
96.2788475570884
96.329217117246
96.1310677825763
96.2646212483013
96.5397325954464
96.6507076709546
96.7831678871506
96.881539466875
96.7218102424132
96.5758706253907
96.6353656036994
96.8971486985178
97.0227415395103
97.2285033492987
97.3144415830353
97.1357394596312
97.0255635868649
97.1315350897507
97.2866435784547
97.409920373335
97.2982835030705
97.1536414752012
97.0078071830541
97.0667155718149
97.2196628366292
97.4203470321657
97.7123292573764
97.9492674740324
97.8993179020386
97.7297727959366
97.3321848045801
97.4613261099252
97.7721223786075
97.8746500969164
98.0129777600591
98.1389980311839
98.4760330037315
98.8055787693171
98.3778753204612
98.0173506947547
98.4722895347112
98.9267793005995
98.5771024295379
98.7585137118124
99.2038287093213
99.22389751158
99.285520095303
99.3615232325968
99.1278530148732
99.063577008747
98.4964923317784
98.0453868420125
98.1100970317437
98.1806345112256
98.0290118296361
97.8121005345295
97.4812316422861
97.3621598497033
97.4087686535238
97.4278278700684
97.2040390540968
97.0495858703288
96.9248162396158
96.9184962711114
97.0029562065198
96.8982452949076
96.7020369108148
96.6593552935611
96.5852808879666
96.5901363480118
96.6826431538861
96.7584578430795
96.7779156566741
96.7233860824538
96.5482708168411
96.7026826844368
96.9295115605134
96.9844753827722
96.9337922262967
96.8480598846075
96.917432901905
96.9059915081295
96.7650911554264
96.7231384399392
96.6755200030325
96.7249544320646
96.8190963982351
96.8985560626993
96.9495340670761
97.0649666795255
97.1810509819426
97.177426192305
97.0356663394864
97.1337873905465
97.3181105634595
97.4506667501848
97.5506929713291
97.498469499439
97.2551404751269
97.2208921369089
97.5539131108329
97.8054372498636
97.7425824931301
97.8436442601993
98.1277236279437
98.2155705008428
98.3739486549886
98.8583455466659
98.8589523103263
98.6693773369818
98.7553093754579
99.2238185045147
99.5710258653881
99.4832930831135
99.183277758212
99.1390801330388
99.0868143559776
99.0767466694586
98.914151798364
98.8305737978282
98.833545083904
98.8791271458039
98.7708087195943
99.1003021672464
99.4512452882573
99.3656808011814
99.2013908438256
98.9718948718986
98.6108601820342
98.3848965450644
98.2373176768084
98.1252588036498
98.1903316367114
98.4419529870724
98.5115333126855
98.5137623772082
98.4940613022331
98.3599784157126
98.4276326599035
98.7970052990842
98.7813067569177
98.53432737447
98.8602588288664
99.5320506928874
99.4271862113483
99.1155804277412
98.9331742735261
98.7834550844451
98.6022360866182
98.5822871534236
98.5381982633704
98.377691056522
98.2105093935818
98.1818924760313
98.2904041388516
98.1648053964105
97.8787147807179
97.9098184403009
97.9751535909626
97.9753301740074
97.7861495568004
97.6744812208656
97.6216474184495
97.5178525895896
97.4880117526463
97.5475914358368
97.5259616187567
97.4541403779071
97.4405506095071
97.4588340407024
97.3605916056968
97.222265446506
97.1868442617696
97.20116174351
97.132964508714
97.1073062774072
97.1806480558963
97.2275208686016
97.2368262246262
97.1588035651183
97.0701207435945
97.070466944563
97.0085646907801
96.9730433579933
96.9673517353245
97.0165836379592
96.9680591343663
96.9151059026674
96.9799593922144
97.0605689778636
97.0279917619656
97.0004966158137
97.0101651829414
97.011854064148
97.0373963135104
96.9653731173189
96.9176683424272
97.0102331218442
96.9946935491747
96.8484340185799
96.7354933244751
96.7652407798969
96.8103540957818
96.8510482723613
96.8699705907938
96.8776663094554
96.8465522060321
96.9161657249937
96.9301439951939
96.8628061356837
96.9037836343514
96.9188705522058
96.8104373995898
96.7660546982931
96.8047220121427
96.857203568675
96.8851727249305
96.813392066469
96.7714008246624
96.8222914681502
96.8114552845689
96.7613485739834
96.7682492161624
96.7957413732897
96.8041437737823
96.8347658706573
96.9287438635496
96.9429601583365
96.8783811287131
96.8548973255905
96.8335354646616
96.7736120095273
96.7404761760975
96.7583159762971
96.7866111866898
96.7924047079393
96.759441918665
96.7282533186474
96.7269300620176
96.7262889893101
96.6634701893329
96.5778478004646
96.5167036856608
96.5309059820245
96.6258414412245
96.6199896252423
96.565009042985
96.5302909978404
96.4891238424593
96.4154571629793
96.3639781493284
96.2658558226996
96.183920318423
96.1589588501577
96.1847561028521
96.1626597075948
96.063072735297
95.9883230765675
95.8741517436108
95.8144566478746
95.7910870894459
95.7476701633287
95.6873737969283
95.6432504779993
95.4850254254062
95.3681671718358
95.3725689131572
95.3457603457627
95.2703349930581
95.1644232688185
95.0604962923167
94.9711421774651
94.8463188367191
94.6773882804348
94.5790057546076
94.5992679568555
94.4858693546968
94.3371489765205
94.0919956293303
93.8462058212459
93.5968756370454
93.3173198180122
92.929648244071
92.6565460694371
92.5254311559945
92.3358430950319
92.0561180205356
91.7279408128061
91.3748871483278
90.9854789157347
90.5982251748442
90.1929801765708
89.7346558072242
89.6286055084757
89.3158566282348
88.9795780603843
88.7397459540647
88.298844439505
87.8211431879164
87.3887251139462
86.8544392419221
86.5269742388431
86.4533367971451
86.1315289564191
85.7381229291241
85.2172981927982
84.8509187276411
84.5547041474496
84.1322013387075
83.7973472691922
83.5653013208059
83.2155039737162
82.8094816525166
82.4975375376285
82.1440456509359
81.6857305617145
81.142262656597
80.4705822298626
80.5545444258314
80.6822502216335
80.2740523248203
79.9619451701613
80.006347666057
79.9398404143874
79.6691586100595
79.3348892997892
78.997630032184
78.9824597840794
79.227495891464
79.2116101583003
79.0062523165643
78.8239947263882
78.7047972896724
78.5544261432824
78.5596542987914
78.5247312628272
78.2301479446115
78.0265985221454
78.12095514798
78.0483294597223
77.8148873056652
77.584793794731
77.4044077604154
77.2502284318981
77.0907212606696
76.944650672243
76.7929226250912
76.6558591616637
76.5353745787544
76.4344471322519
76.3345190253374
76.2470992252743
76.1524048017862
76.0852659648453
76.009056410906
75.886986494661
75.7251607856265
75.5476416370424
75.2408847408493
75.2406914488076
75.4580897857384
75.341359612668
75.152437003081
75.287528194796
75.3615318271717
75.2909473991707
75.0713194146124
74.5430131280146
74.8013814732248
75.6614190814794
75.9808134030993
76.1054002328525
76.2407693254444
76.3968144539431
76.5487035993805
76.573726363431
76.6635055560795
76.7751662711817
77.3008734296988
78.092606927033
78.3948285381315
78.3850452480528
78.6935497661222
79.0316009496582
79.1312571145372
79.2411604912332
79.4322146712139
79.5557014985491
79.7795900830702
80.2584384399773
80.5277317447282
80.7939917058521
81.0184828737922
81.0898222192715
81.0670627145131
80.9461938532991
81.4472185666821
82.3427614132974
82.6442824527939
82.5527446206866
82.4885061954098
82.6828394851463
83.0706658888956
83.2581540587706
83.1872140402169
83.3051250108775
83.6496695045421
83.9408825075956
84.0849139154784
84.1249857955106
84.1815241414168
84.1628233560551
84.0277560509952
83.915540275803
83.8464854840059
83.9831196556762
83.9666526960768
83.6791457145317
83.3709029272417
83.2472891402128
83.0709294151787
82.6260986693352
82.1694809607832
82.2685058263624
82.488786140087
82.3018264545201
82.0397677423824
81.8049017726751
81.7554435577008
81.7164044642135
81.5856010796564
81.4231956676073
81.1988992803139
80.8833684781388
80.9178109762978
80.9727412290875
80.7104139933414
80.4199630441084
80.2122487193296
79.9157255076709
79.5092499718966
79.1695722989298
78.7341424640758
78.399393919112
78.3297395079116
78.0796780764495
77.6857252848106
77.300040101424
76.9971354638842
76.7062527614698
76.4602753480875
76.3347521041898
76.2298561224811
76.0687679027964
76.0482588253985
76.0631364540559
76.1025805483746
76.2842543943559
76.3524792680205
76.3060425181691
76.3742080750415
76.5965370850748
76.7689230463792
76.8993959738609
77.0272217628489
77.1383588221192
77.2570100878022
77.468778044735
77.7773444330524
78.0128037864392
78.2156381406387
78.4174292526623
78.5646467912568
78.7741754047514
79.1554049142486
79.4864818850794
79.6854445794416
79.8707331660227
80.0831058310512
80.287419759001
80.5050250538592
80.7179781518534
80.908230715241
81.0820486330146
81.2061551101996
81.3020791440307
81.4870897640787
81.7167034513614
81.8925705422427
81.9937778409736
82.0669321344661
82.1497816883173
82.2316534950302
82.2915903100127
82.3425882166976
82.3733281444019
82.3904212059251
82.430368984639
82.4743991976058
82.4873380190869
82.5213520013872
82.576273333637
82.6202921428456
82.68198840221
82.763658298603
82.8314479504122
82.897187448816
82.970338957502
83.0601073668321
83.171145070959
83.2718960812485
83.3468381878943
83.4228800465888
83.4968449947673
83.5745280814424
83.6352219608888
83.6625653889478
83.6837086902533
83.7024238837898
83.6969885606096
83.6812604699128
83.6520568849663
83.6187988720586
83.585119520067
83.5352972063526
83.4627600987735
83.3810256172799
83.2892002316803
83.2049065211154
83.1436316487278
83.085672623113
83.0213460915919
82.9491798787202
82.8672630274667
82.7955161720987
82.7235201240453
82.6658125954078
82.6234776159548
82.5903746246474
82.5787858480345
82.5826773171935
82.5914978526328
82.6286747501889
82.681542318382
82.7489412765264
82.8316834548776
82.9130858809955
82.9822180269387
83.0672146220958
83.1920070470689
83.3456788484654
83.4845736167042
83.6055144533648
83.7487050669469
83.9274726119199
84.1059659518809
84.2869030133039
84.469897933983
84.6415398484137
84.8310578112117
85.0421865447986
85.2413965789171
85.4155817481825
85.57699800396
85.7452622172658
85.8891162643195
86.0032292043845
86.0898688304415
86.152478144739
86.2022644375964
86.2082298794975
86.2085423657072
86.2153479214999
86.1860526957732
86.1422345650744
86.1102325249225
86.0670008806617
85.9958910816753
85.927037095193
85.8650692506623
85.7868524702127
85.6748120354679
85.5760222173062
85.4611417662062
85.3129097748171
85.1731672316294
85.0195007697015
84.8426247484458
84.6691266141619
84.4800160190053
84.2816977883791
84.0936412567939
83.8981506016546
83.6844688532577
83.4751924844921
83.2326513068674
82.9669861171743
82.715122476268
82.4806220954003
82.2371755344181
82.0115698052791
81.8159811342175
81.5861190872444
81.3246323044855
81.1078749546019
80.9233849073987
80.7353580183705
80.5204500876544
80.2868305639557
80.0554787223318
79.822097374022
79.580101146789
79.3661995848131
79.1134907882241
78.828512150675
78.5831859148136
78.3357206766985
78.0836647663127
77.8315235570201
77.5491329626928
77.2890735783163
77.069252300895
76.8524775680065
76.6138112804874
76.3819493282515
76.1518856662218
75.9244722493565
75.6949233445245
75.4823068800833
75.2670846062961
75.0379388145884
74.8070967483663
74.6038897879961
74.4311447859567
74.2596989678205
74.0831820699761
73.9000821973232
73.7288309841596
73.6399799338485
73.558606588516
73.4961537227632
73.4439019309732
73.3913501218225
73.3661113648083
73.3634242636369
73.3555768827258
73.3523725337253
73.3557943147341
73.3835857338942
73.4232597314627
73.475209020622
73.5625907898786
73.6863420033213
73.8135128067742
73.9569407835631
74.1122674776868
74.305546841647
74.5383020446407
74.7842655096168
75.0342835137631
75.3098431091216
75.6160784512508
75.9402426820365
76.2533635370293
76.5554944861652
76.8414516278984
77.1145025326251
77.394518849568
77.6584651071435
77.92074247731
78.1941819998616
78.452756127891
78.7088401933091
78.9398372192863
79.1501489683143
79.3536893824407
79.549206141423
79.7389577998006
79.880947128777
80.0040772029726
80.1588548600974
80.3460001160626
80.4989862786837
80.5971217867219
80.7681682317002
80.9645826520592
81.1179041586163
81.2739743713211
81.4778724894833
81.6728455540505
81.8617452029395
82.0996124329434
82.340943844122
82.5497488192227
82.7774740369462
83.0198933195938
83.2045199645834
83.3625487934007
83.5547139751647
83.7564111243318
83.9421497433832
84.0504087521748
84.1517785303725
84.2865141472545
84.4277688422826
84.4976015424808
84.5221070674392
84.5625130791866
84.5925220652343
84.597062887667
84.608559797875
84.6110484494309
84.638491252116
84.6809253969282
84.7296671746713
84.7774145681586
84.8906120012078
85.0072078473308
85.0603507463246
85.0932840481676
85.1551231083129
85.2184834312288
85.2347524781335
85.2055361925498
85.186114722728
85.1752844229512
85.1587295444006
85.1176005718776
85.0829767718578
85.0492193480285
84.9876698541963
84.8882424400823
84.8229966412407
84.7528153039804
84.6786268311998
84.6073522072747
84.5464421162603
84.4855235342194
84.4146317110577
84.3690586573776
84.3873126796634
84.3900131447995
84.3878561217802
84.4044615986372
84.423218318232
84.4468578585371
84.4721574108239
84.4625949106402
84.4290258460855
84.3615528039983
84.2745069618213
84.182732360651
84.0759007850145
83.95422764584
83.8303092843108
83.6956005767309
83.5788863843767
83.5241529251936
83.4862098831759
83.431562995931
83.3482090309759
83.2279157650372
83.1175358192305
83.0500074483438
82.9755464911911
82.846233184308
82.7062692154316
82.5870131362379
82.4753724660021
82.3654732114848
82.2947045042067
82.2119691676041
82.1515894014261
82.1258639981701
82.0479927626497
81.9442161413949
81.9021331192803
81.8825755084956
81.8639155921005
81.779093722774
81.6901461696802
81.6210396316558
81.5290877683666
81.4448128200741
81.3931400646515
81.3749018326812
81.3654563386333
81.3633815101768
81.4191690948441
81.4301852320549
81.4186260941315
81.4088327342127
81.3494986450865
81.2711057653722
81.2184662646216
81.2034316033537
81.2059951924921
81.1334678088269
81.0472939385781
80.9834867298582
80.923067156418
80.9118278898918
80.8734369557858
80.7866720507028
80.7284517298024
80.6480054242316
80.5682789340091
80.5355767529157
80.4766807426756
80.3556792572119
80.2328195041536
80.1087215460223
79.9534935462428
79.7857209284939
79.7129953086372
79.6299112007732
79.5250574556251
79.4036228077527
79.3421515485384
79.2728118003922
79.1340487988722
79.0212704226589
78.9514730623249
78.8390609027513
78.6843836186379
78.5258165383274
78.4096837095273
78.2469411827521
78.0906091650019
77.9759345340334
77.9082255546135
77.8647681025193
77.7852784401214
77.693133399785
77.6365729248428
77.5639432947534
77.4831576199646
77.387057530227
77.3292722333875
77.1902705345109
77.0688652218424
76.9783570123224
76.8650874345004
76.7445931691829
76.6146980217197
76.3787370515673
76.5461084565329
76.656514043207
76.3823706014322
76.1920764162665
76.1072446994177
76.0284818172216
75.9352238153769
75.8246864248688
75.7273057293094
75.6068901211178
