1798
3999.43349933624
650.420452594757
1
128
4
93.5368980973027
93.5118301696943
93.4978916980448
93.4875017694833
93.5041332961363
93.5387670555819
93.4327627657463
93.5145954953516
93.6004822900194
93.5636657878764
93.5359806510854
93.5598372897981
93.5478721575331
93.5721019699895
93.6212593283728
93.6984833271551
93.6123024772784
93.563404605968
93.4821226361735
93.5281029268185
93.5139840812843
93.5693065360121
93.7451517446827
93.7444923187204
93.6770529468351
93.5867009105989
93.5403498492576
93.6632485612336
93.6491717219646
93.5750383143668
93.5822321151567
93.6643094536281
93.7361017068621
93.7900066508675
93.6591343621982
93.5458538303536
93.5841597477505
93.6706298961219
93.6127764744681
93.6203373354321
93.6472137505056
93.6507345707333
93.6492734120373
93.6992882514778
93.7408695465009
93.8116846982005
93.6562813529736
93.6060000752786
93.629892563559
93.6718379080843
93.7068391614845
93.6944642326526
93.620060339895
93.6495351560322
93.6986657888083
93.7182936222124
93.6288360176185
93.6527136703025
93.833924155596
93.8026030359724
93.6247157981579
93.6897072125883
93.7632104854197
93.8107002691615
93.8241283451627
93.833071855327
93.788060023138
93.7467817794299
93.6955051326189
93.7441799756145
93.7856794803917
93.7764194987438
93.7328606791982
93.7649003357733
93.784604678846
93.8203871800358
93.6868406449388
93.7011000706287
93.9053125801778
93.9480497025397
94.0024105236501
94.103672545538
94.0635438194968
93.9612653957492
93.7963304919262
93.7252220963464
93.7392001913761
93.8137553154275
93.8607550597777
93.8725539763808
93.9193751564054
93.9491342423333
93.9818258885045
93.9818316295118
93.8448139523278
93.8048922737017
93.8631481645347
93.916578776249
93.9673021901488
94.0186972748987
94.0798690995652
94.0617058706264
93.9974008352128
94.1233451057152
93.9652182007273
93.9151965540282
94.0742230568617
94.1067116698718
94.0600031587187
94.1144657761657
94.0477271802547
93.9855317315445
94.0430654834952
94.0153100507303
93.9225824103332
93.9402915444937
93.9043222121293
93.9258552217679
93.9897566215746
94.0511582486693
94.0801548670056
94.0269717543908
94.0131717125897
94.1416984737199
94.0666952538938
94.0911373843345
94.1581651221363
94.1247401171743
94.0444657053815
94.0417424774673
94.0857543038278
94.1109810007659
93.9994007629883
94.0198151763067
94.1920482412298
94.1175163891875
94.0167846963674
94.2098168757736
94.2763105347481
94.2891906640879
94.2298621750761
94.0878170328694
94.0414268085568
94.3231208601595
94.4626659467801
94.3840271306996
94.1735078494622
94.0340575018418
94.0150190134199
94.1664347199452
94.3395122234741
94.4089868709822
94.3098604139446
94.1747725961363
94.1359330791157
94.2123470395361
94.2682982163271
94.3042007150146
94.2733608642174
94.2798392009203
94.2940009188137
94.3239727015882
94.2623128459449
94.2180818087005
94.1865156755512
94.205631309933
94.1088820826926
94.2059087479821
94.3436932332512
94.4828624236642
94.4068846752682
94.2713355317658
94.1831337818025
94.2851633179365
94.3200905917282
94.2480671132365
94.1064667635818
94.1540164754323
94.2656803957157
94.2785621024906
94.0706093495618
93.9596419126027
93.8606212379546
93.947807369151
94.1959175800116
94.1105957105073
93.7734840145812
93.7657239886322
93.9858050851316
94.038603579855
93.8818201748643
93.8316983752907
93.8738157519421
93.7890258248892
93.6608621605313
93.6091399850307
93.4918711697316
93.3085660542403
93.2601527565495
93.4487408599055
93.5180131935749
93.4675397974392
93.3610110007049
93.3151680281009
93.1683554909698
93.1115448367979
92.9948782850898
92.8854334276877
92.8323467414459
92.9567315240755
92.9565862143559
92.8786013270624
92.6562326138373
92.5600070701953
92.4936038823653
92.4673762015399
92.460004387972
92.5915065710483
92.5075421330527
92.1535880865653
91.9371057696911
92.1460937763695
92.2073461998922
92.1149733080168
91.9706547525381
91.9602029063603
91.8552144413217
91.7489696823688
91.7398392942155
91.6107853621844
91.3738566562501
91.3973614734129
91.4656151080316
91.4894502527657
91.4038790810586
91.2993644827076
91.2274665035293
91.1187482096371
91.032729937388
91.0566833474225
90.8872744274817
90.7225894544709
90.7486871217661
90.8607243673799
90.6619444785028
90.51987043914
90.5146805140788
90.5230895749594
90.401240836758
90.3730893878333
90.229573952757
90.0476734857858
89.9196256057028
90.0088882065501
90.0463538482456
89.9944524678268
89.9574778943599
89.8592931170815
89.6969072887165
89.6816258748217
89.5821611276513
89.5534079049238
89.4919788639684
89.4048217545878
89.2446041118714
89.2645225871569
89.302813215203
89.2220364227472
89.1451039048234
89.1545075533041
88.9692549176581
88.8191785314068
88.8014602106921
88.7184008129175
88.669985704393
88.6497089743611
88.5561238681508
88.4908469445787
88.3823090079423
88.3347126387914
88.2593868940159
88.2673192888357
88.1627810981121
88.0141850273792
88.0278323581065
88.1816082751499
88.0406429560937
87.8436988484915
87.8545814212586
87.8144952068664
87.6664738688045
87.5722445031764
87.5076642794344
87.5387228331556
87.424546579755
87.41575350013
87.313141581054
87.1584580454817
87.1507411719979
87.2522495795904
87.2893456823607
87.1935297022811
87.0497863868073
86.9578144721755
86.829523292233
86.8272353653293
86.7940940085136
86.7382410257192
86.590763610453
86.5495350573033
86.61133177495
86.5816709492793
86.5032745313654
86.4525157539046
86.3465371360364
86.3710102097088
86.2492915828448
86.107170395288
86.1177808682354
86.0434406395107
85.9335225988425
85.9645710310677
85.904356961185
85.7395803350696
85.6354381082374
85.6446552977085
85.6246383004426
85.6461916484176
85.5836424091768
85.6097003766065
85.6168514415524
85.6087172034713
85.4773231513161
85.3636018420275
85.3435230850234
85.3909224070916
85.3032802391657
85.2390077278923
85.1982510103298
85.2075125458419
85.1060251247067
85.0383862799302
85.0008308176676
85.0571936124755
84.9431704135743
84.8313667112059
84.8230374292816
84.8852027560444
84.9062717277478
84.8409145019838
84.8675884109094
84.8353884527215
84.7078026137719
84.7544749136554
84.7071704681314
84.6349924456273
84.5666614707197
84.5477684616351
84.5475300219779
84.5870593199398
84.515183940401
84.5692024711662
84.5191817112375
84.4095587735475
84.3552648072685
84.4569457247179
84.4993401832281
84.5619850318075
84.55623597327
84.5614836764876
84.3562525961554
84.2847990119377
84.3909914837366
84.3638465167172
84.3047814265608
84.429722258651
84.4099908666352
84.3529452899598
84.2893036811901
84.3172048201026
84.3027464453057
84.359207800106
84.3242485074912
84.2935254071726
84.1555286377751
84.1264635129812
84.21194584878
84.2790984366844
84.2899347192491
84.2941696718176
84.2920659278749
84.2875077962698
84.1339059815335
84.2174953716608
84.1723118573997
84.1444209935959
84.1436149351412
84.1580140740696
84.1906758499425
84.2610824072701
84.2796409496392
84.2591083137209
84.2328853521478
84.2682039128255
84.2475446101821
84.2075090786739
84.1346972148126
84.2418029076505
84.237913164592
84.2028197967009
84.2222064557972
84.3799758899625
84.4348247333537
84.3417010031235
84.1781541814002
84.2554113651222
84.2873641199557
84.3057404583463
84.3232190443348
84.3338254937251
84.351092098469
84.4050751241469
84.4050116395091
84.422041484039
84.4001767436636
84.4290854084266
84.4528470022299
84.4702985876239
84.4411241150766
84.5192220075275
84.5867033812779
84.5453207897382
84.4842465774848
84.5116277585264
84.4936742811796
84.5279115969654
84.5837901413258
84.6985210331173
84.6680168962352
84.6681678906648
84.6956641841614
84.8205156138206
84.8831344199952
84.8705135683087
84.8471044517655
84.8554993103126
84.8417975387634
84.9094444469408
84.9351866201107
84.9742058179427
85.0400867512079
85.0562637562154
85.0998434900181
85.1580072997103
85.1825391007914
85.2612077973832
85.3052245478919
85.351879967505
85.3404500075732
85.3725371229476
85.4255250110761
85.5381657296874
85.5591159050363
85.5263593602998
85.4970324746357
85.5137751179225
85.588010119882
85.66760358946
85.6532676830371
85.6443303670951
85.5978268883612
85.7076864645145
85.8135359808945
85.9225247897358
85.9797932327966
86.0481779802252
85.9924575936705
85.9884184493271
86.0212793559634
86.0556171930104
86.0383946720006
86.0017732187975
86.0985315963324
86.1942220937675
86.1282048212942
86.1062793526049
86.1148124435865
86.2577981506181
86.3318424982922
86.3359090642635
86.2824712245073
86.3449405738268
86.4021061386937
86.5067355707158
86.4987459450037
86.4718817713115
86.453787872498
86.4155264069381
86.4209123375298
86.4893018249918
86.5525826469659
86.599767929517
86.6034097007038
86.657381691563
86.7016313619575
86.6924511230146
86.7114573060744
86.8179688004793
86.8921713496444
86.9541533514142
86.9216420041891
86.9475907516984
86.9804406752173
87.0405203277789
87.0585658285806
87.092324844377
87.126571060793
87.1817879096842
87.243596215335
87.3272290191195
87.3311754329174
87.2898680717103
87.2938210089697
87.3567765468753
87.3782622967328
87.4361302057103
87.4593139532373
87.4819247399868
87.4554136341713
87.5532131882478
87.6327905858722
87.6636699462694
87.6617639693943
87.6656459030338
87.6814970320947
87.6733549313927
87.6333901216666
87.7103987565275
87.7596112669083
87.776901540641
87.7537469981762
87.7144577781653
87.6845617660116
87.6598338965169
87.594611059549
87.5821401921661
87.5987345343411
87.6161613476486
87.5836724118339
87.5298432574159
87.5224656751574
87.4365041937357
87.2524996401232
87.2004212021982
87.1973457993903
87.1779316340999
87.1389591502074
87.1339657279754
87.0695843970458
87.0031083733759
86.9767013881316
86.9527789894293
86.9466066965068
87.0297816154296
87.0035640300813
86.9246482532647
86.8413594382383
86.8462411037752
86.8143434139436
86.6988609696419
86.6216296504815
86.6368472485534
86.5599200145061
86.4907860279914
86.51609102285
86.6205777432734
86.6807779795366
86.644904872074
86.687551224688
86.7632344287664
86.784256867172
86.8594449521626
86.9373075328835
87.0029620014001
86.9754371767575
86.987058697204
87.0685792209055
87.1216810484909
87.1446205441556
87.1984963290581
87.2540853268472
87.4048148941082
87.4743035857123
87.5366754812893
87.5739892612589
87.5966843862342
87.5865567423639
87.6373292374981
87.6675955671129
87.6183169298216
87.6249886879926
87.6736797127632
87.7216236110542
87.8015906165195
87.8349707690576
87.8598062753052
87.8189639102342
87.8448937418117
87.9210360220361
87.9755408192472
88.0193979702969
88.0941519461249
88.1065297914431
88.1205449159869
88.144439140444
88.2178301476024
88.1957951299572
88.2278997049128
88.3504895250301
88.4392168689817
88.4207711817285
88.4653288194152
88.5783013488972
88.6624315012548
88.7507725461581
88.8278848882346
88.8183142580165
88.8602570578181
88.9111626558031
88.9432156666163
89.0011239583332
89.0543893492165
89.0998232892636
89.1744166976309
89.2170122127182
89.2413316398877
89.2155614682085
89.2636517275362
89.2895182049275
89.3123489889061
89.3795100326096
89.4354417703816
89.4517076648348
89.434202769536
89.4858396053062
89.5883197458279
89.6065519688624
89.5712271954999
89.5646900705526
89.6419322442727
89.7073363194081
89.6811393629623
89.6799348189107
89.7751580459664
89.8216009029753
89.8201438250551
89.8139104834574
89.8491531696511
89.8616487779779
89.8849957819659
89.9309357986412
89.9837857690449
90.0137656020738
90.0574335469614
89.9949790065163
89.9804733371753
90.0505225778642
90.1048586971598
90.1275954472173
90.1566292310076
90.2008500800161
90.2478561004605
90.2860208740797
90.3118473441886
90.2612344809426
90.2057808435805
90.1951395873216
90.2665454505733
90.3010383783012
90.326011671521
90.3482692893515
90.353732695427
90.4042451874389
90.501727246144
90.4673835423438
90.4537843595774
90.4439260351953
90.4353253225371
90.4863734522795
90.5312908649987
90.536747465753
90.5537986702515
90.596874900421
90.5924137841718
90.597655354687
90.7107374955429
90.7367620510298
90.7181988168138
90.6856215343503
90.6687724360108
90.6665705936
90.7084229036772
90.7867989466679
90.8369726829334
90.8041823879686
90.8019688569433
90.7976915982145
90.8473106385682
90.9029981684229
90.9432034106957
90.9904868972901
91.013490626116
90.9761603527559
90.9273632664063
90.941224780967
91.0174889411338
91.0197672293038
90.9988209218799
91.0262859886841
91.0382114334444
91.0337590241815
91.0393822698015
91.0695478070858
91.1732167623886
91.2172666058812
91.1678091290219
91.1340998190245
91.1567480423076
91.1725609044618
91.217466065057
91.2223900343361
91.2689682432204
91.3307081451074
91.3292499988863
91.3015094800089
91.3597954990147
91.447149241554
91.4739378581089
91.4952833413618
91.5180927226331
91.5522619588506
91.5598098229681
91.555256414897
91.635743897027
91.7115670728297
91.6621388381976
91.6300744630711
91.7147026005115
91.7954482270592
91.8238864832054
91.8307659173565
91.8421878325294
91.8693469296737
91.8819636232413
91.9052522904086
91.9051447996547
91.9200053168585
91.980709257554
92.0688494596209
92.0409884445959
92.0251285841984
92.0793774830132
92.1199379300443
92.0569060624353
92.1056272054865
92.2046954433934
92.305418230201
92.405581615156
92.3682822041456
92.3206352640928
92.2720850943081
92.2173536220889
92.206653495911
92.1881949519733
92.3024157305157
92.4044804463776
92.4118113933847
92.4272908922194
92.5237651834214
92.5556967650758
92.5020737389547
92.4944904351735
92.5251043201274
92.5830575822562
92.5677526073434
92.5237031916554
92.5518655530866
92.6154415972557
92.5788243309767
92.4861373546346
92.5213779228082
92.5697057635051
92.5941532209541
92.6840133311904
92.7785872535061
92.725503876502
92.6084128791709
92.5903846579458
92.6986206069947
92.6811170642542
92.6373585063367
92.7718348477735
92.810028884439
92.7530042288401
92.7699802741835
92.8371832222721
92.8392570929849
92.861087148416
92.8998595278932
92.849114642781
92.809151199227
92.8273940131868
92.8422848805161
92.8761139684324
92.9052838293848
92.8805325464241
92.8457794005061
92.8512211957257
92.848035421679
92.9082617434849
92.9123390921941
92.8780391660344
92.8905203748078
92.8913033922729
92.9266650735987
93.058713286016
92.9938018071435
92.8446219627081
92.9234567084158
92.9410604637851
92.8935576797113
92.9334495471905
92.9974673776972
93.0541346197438
93.0538648917703
93.0434266613366
93.072263736799
93.0621519485554
93.0378942147309
93.071037683095
93.1038957263085
93.0620579934
93.086450471815
93.1086036006638
93.1844968801876
93.2294494567354
93.2031378832244
93.2103006835475
93.1739854554427
93.0415192188149
93.0837150335968
93.1877021177313
93.155982456138
93.1802950998888
93.2111345386112
93.1496396870094
93.1502189440862
93.1727053977097
93.202900628538
93.1978091674689
93.1652459375218
93.2035620073886
93.1354700803307
93.1107696883764
93.1859724680967
93.1857317565521
93.1269420679691
93.1425604333924
93.1388657131144
93.1127089395496
93.1279503662075
93.1239315105024
93.1328344086703
93.196668166073
93.1978974357112
93.1618920736613
93.1774416976181
93.2074346223612
93.2039808211468
93.1279378708222
93.0923554018896
93.1690265056345
93.1794711959926
93.2385537754559
93.3400512626461
93.2501528489665
93.1040032754525
93.0223824471536
93.0509057347445
93.1270322786742
93.1065390760889
93.0909634264785
93.1217879642604
93.1354084911099
93.1439755060044
93.1785335619303
93.1948866189303
93.144010742839
93.0287098746927
92.8866870343898
92.9128489050104
93.0356172071219
93.0723516196899
93.1399927257543
93.249293748146
93.3046334538575
93.3040582667724
93.2395529651347
93.2528983127864
93.3257066979186
93.3248391138207
93.2628440530522
93.2930161369678
93.2989178945114
93.2884831748657
93.3938887001563
93.4827987583905
93.4658951354367
93.488891347442
93.4985853929371
93.52160485914
93.5781919538087
93.6512120124735
93.7899762975562
93.7846950752581
93.7623386863797
93.9111010208614
94.0076544914597
94.0482938213422
94.1461745760854
94.2896774809753
94.2281942155301
94.2316910620221
94.2961355741008
94.3447097422553
94.3594705685249
94.4191786741713
94.3361573769736
94.4149684853191
94.7444431536512
94.6295974974064
94.5729870693499
94.5987178229232
94.7194145599905
94.9367258818898
95.0078061389881
95.0158110489092
95.042431528604
94.9704032978488
94.9681026524542
95.1793369509764
95.2363303606133
95.3456352003317
95.4165450753819
95.4662452853822
95.4071275082328
95.2649890824698
95.0647568757203
95.1085954588325
95.5533280922986
95.8403058286218
95.810906129974
95.6914300396186
95.6330355257958
95.6079955027789
95.6108503685465
95.6033892933703
95.8368132142456
96.2090710676664
96.1625359653404
96.0574952871093
96.0583625977151
96.2018086015269
96.0461195561147
96.1371088562225
96.3624165719159
96.4112232623836
96.4247940228728
96.7551354918496
96.9311734985749
97.1500667940063
96.9380891236311
96.7750400563924
96.9079586742463
96.9809012164015
96.992825306358
97.6135230081023
98.2871256922047
98.7278838840712
98.0536419882426
97.1280697876859
96.6841287596529
96.6389099230589
96.5586727635375
96.5233409716578
96.497484046391
96.5092583159619
96.5998523703815
96.2405401095455
95.9104203093339
95.9940814073086
95.974621593879
95.9689704595602
95.8074390224017
95.6199749860534
95.4851003511072
95.4136879049861
95.3218259123251
95.2690274687158
95.2202580110529
95.3021614925363
95.2851617439681
95.2146584519917
95.2893927627996
95.2846182517204
95.1467499388907
95.2393603654059
95.2755430713419
95.2230929600969
95.0950964649851
95.0836615908267
95.2433646461923
95.329087599528
95.311553748899
95.4212276323318
95.4451067876763
95.4159329672724
95.3555004172966
95.3993153016811
95.3350700963104
95.3981875391219
95.5811934382086
95.6625577420525
95.6801442512911
95.7285122958493
95.7702303879897
95.8108293698144
95.7717079456614
95.8849167966589
95.9694615978505
95.9846171987471
96.2650049890312
96.2617212702662
96.1544229756751
96.3800648453709
96.3435233953676
96.6002022092943
96.7370390062185
96.8528573206859
97.1431765700107
97.342875717128
97.1825919226868
97.0238312422292
97.3122797598806
97.5870427897592
97.7292509371446
97.9428476793346
97.9636118334134
97.9430105465011
97.8554859908987
98.1393058638286
98.0220703052396
97.5624797311116
97.6163480370685
98.1004304126987
98.0691390410784
97.7740481996043
97.5323207716944
97.7199205881199
97.972065600042
97.771448930501
97.2545881910722
96.9478749225563
96.8315300345186
96.8156628113798
96.9612547548467
97.0204121667626
96.9420471850841
97.1795377231179
97.3462654054571
97.4738962724624
97.3100690996762
97.2609849142352
97.4464764439871
97.3267970242556
97.1599460873368
97.4465007821541
97.6520185757377
97.7754987020689
97.7529582011792
97.6519536902167
97.2834000538905
97.024045750398
97.1127587937285
97.1622793492578
96.8671253688881
96.6654895677949
96.749726505812
96.6493148701754
96.5351612557828
96.6791732477698
96.4481567517514
96.3395152718031
96.3199847688345
96.2643020728324
96.241342751913
96.2452777335364
96.0843325582185
96.0171229102125
96.032381368184
96.0132339269019
95.8426207637989
95.8111345081469
95.8673929576924
95.9263833426365
95.8028186452274
95.6835592279684
95.6525297801618
95.8533876100792
95.8595248747445
95.6752368864593
95.5797610426802
95.7540749391202
95.7804967299181
95.6704278094542
95.6008895311306
95.654692296296
95.5668089898342
95.5269325652498
95.4775377269506
95.5169860883113
95.5666793557094
95.6198637905387
95.6311166609399
95.6235932915838
95.5253827468145
95.475319688976
95.4919020525192
95.552549186414
95.542937035648
95.5643326303791
95.5580296379776
95.5323725363325
95.5407669577185
95.5430720594615
95.4802787554835
95.4757763397757
95.5103222741738
95.4971571767893
95.4404385452585
95.5619631710741
95.6208301608118
95.5165916371318
95.4038136866495
95.4687533401753
95.4644785797604
95.502208070009
95.5610207148462
95.5283130918451
95.4964677844
95.4563718060552
95.4810916555915
95.5536957219414
95.484009614267
95.4947518904083
95.5869507413633
95.5663034965793
95.5170860990792
95.4924479536484
95.4628614997314
95.5308794891912
95.535231537776
95.5257651303984
95.5288499649837
95.5163268595755
95.4872066301672
95.47686253626
95.4577615549345
95.437879571627
95.4301543413237
95.5049203301814
95.5158073430636
95.4633060417948
95.3899710954024
95.3846449498969
95.4504723413615
95.4520535012219
95.3358606462222
95.2691653753028
95.2711368358552
95.253531937012
95.1972517752465
95.1919946652594
95.1620677730717
95.074758274728
95.0475629649921
95.0663963998333
94.9404197935014
94.9221784195879
94.8432202858686
94.763044884349
94.7774585967412
94.7331767331638
94.6349389421794
94.6525984502381
94.5716860515914
94.4891444186738
94.4299421828403
94.4295707105698
94.3632948991651
94.2877296554258
94.1959342138642
94.1584222212563
94.1100205078618
93.9193647031539
93.7718678450361
93.8028742948088
93.657915812282
93.5051614379687
93.2850995855634
93.0884103510052
92.8566341209645
92.6274202260447
92.3372193681285
92.193021569212
92.070918500121
91.7879079307631
91.4191735294063
91.0790261051863
90.6965589263228
90.3726584650745
90.1173502501141
89.7160924992064
89.2876235842243
89.2675607450547
88.7889791062365
88.4632533512554
88.0810076325722
87.5142596268921
87.0594027584516
86.6955120281792
86.1578473515655
86.0053883904716
85.9638042269823
85.3984005522158
84.8372760528951
84.2866859592778
84.0472060116991
83.746459816038
83.2076777649848
82.933167723411
82.7096152165366
82.1335474790269
81.5602862385897
81.3297983626668
80.9989900259601
80.5092748988834
79.8480392413763
79.1841470698159
79.7816925065694
79.8340453205529
78.8560076724397
78.4723221861159
78.7090201285412
78.4369460059135
78.0173552346333
77.694372454583
77.2455397338082
77.3409910520174
77.9208695953519
77.6530666779455
77.2173068766707
77.0489398573577
77.0458487583654
76.8433075159041
76.9279920893849
76.9834317944132
76.5067115624195
76.2512661316655
76.6152571172969
76.439183078493
76.0144658872542
75.7510187574652
75.569434164454
75.396178081622
75.1542436936295
74.9592917711527
74.7687979345667
74.5569394071228
74.3312010770381
74.2333387077949
74.1477819329268
74.0318728172747
73.8569602802482
73.7477725148513
73.5989403321842
73.4856299795185
73.3318388967618
73.1114360305838
72.6194150597919
72.7321124114716
73.2585013051362
72.8394622242738
72.299872814242
72.5939301132194
72.6873049547978
72.5311706084706
72.4075296642979
71.7067030779708
71.3915169970356
73.3757032950167
73.5592649226522
73.4022982990712
73.3694670428685
73.3785124206205
73.730271104045
73.6730723451482
73.7170505791758
73.8700357901058
74.1461830566817
75.6624582396451
76.3823225507739
75.8350404813246
75.8824674349987
76.6097204518081
76.7049188814984
76.6387413429109
76.8986035660228
77.1814724730038
77.2392134842477
78.0749377668906
78.3436716261455
78.4530437142189
78.8092625729003
78.8282060604928
78.8859618884046
78.6948632985853
78.7009089262198
80.2538762623426
80.8125303992416
80.5014666696437
80.2849105994893
80.3508925936388
80.8523468450629
81.310015540515
81.1725403596003
81.0585077199063
81.4751913514441
81.9056889347955
82.1156606002518
82.1006978841252
82.1620428527565
82.2475619890304
82.1878380190903
82.1612523641939
82.1041980580192
82.3616697696717
82.4866582312094
82.1001505088613
81.6618893271437
81.5522576618096
81.5245136328138
81.0527195205236
80.4517915530042
80.4326114963929
80.9292924571105
80.5968450842031
80.1916281338865
79.829471872437
79.720110299236
79.7309025163564
79.5653905503811
79.3739243612727
79.21671897454
78.8630034703381
78.8647112021126
79.118461791921
78.7905951073655
78.4105329640718
78.2571119283956
78.0558684500251
77.6671475476774
77.4119525163602
76.9355215184514
76.4729370101291
76.5513662262123
76.2791939258697
75.7375349021307
75.2506205175962
74.8951963327902
74.5612609042883
74.200108874623
73.9992876203768
73.8995411038952
73.5579765177626
73.4107763706558
73.499691011591
73.4729314674088
73.7518186484897
73.8308861361896
73.6257370463172
73.5644894626799
73.9297807718489
74.140681485368
74.1774312298207
74.2796174358003
74.441775965292
74.5753078946999
74.7147913488141
75.1953316211284
75.5118501407297
75.6099877912778
75.8613580868527
76.0653202701488
76.1825773877394
76.6383774694837
77.1196595865631
77.3421888336412
77.5081051689508
77.7455290051698
78.0135129542041
78.229930633724
78.4609820902344
78.7217309722621
78.9376125091539
79.1051608033481
79.1838109844116
79.3956949880641
79.7512408715112
79.9532434849969
80.0495147029333
80.1407418412194
80.2652440359748
80.3754741052363
80.4605736673823
80.5245422505427
80.5807689621327
80.6071357658628
80.644777450558
80.6809460096587
80.692701486989
80.7278982173601
80.7819851437496
80.8300077044927
80.8697518024088
80.9154172101746
80.9760236670847
81.0497296992625
81.1193006510011
81.208903781872
81.2999549012637
81.3843113560429
81.4812899688241
81.5971848951796
81.6957350709052
81.7689124562697
81.8191696968183
81.8667442223988
81.9052907963618
81.9403545618006
81.9835094452107
81.9873457744758
81.9600203665941
81.8933925193834
81.8569706349431
81.8524424584347
81.7884859229963
81.7142473136276
81.6432461939898
81.557587846784
81.4816825027388
81.4038495616418
81.316600758946
81.2273751347398
81.1632481661075
81.085568818382
80.985871701739
80.90084952534
80.8391192011236
80.7739090393198
80.7030296760933
80.6777641678827
80.6810152110112
80.6940242170348
80.7063018803786
80.7276821710134
80.7891638676659
80.8808827775748
80.9700904690133
81.0439065546792
81.1120126033207
81.2200484444595
81.3377930213461
81.4497980628811
81.5993398492976
81.7718498367065
81.9574677074273
82.1377814830261
82.3292257730947
82.5328124403696
82.7449254932806
82.9596455247919
83.1682249772005
83.3721579636612
83.565963002529
83.7358530333588
83.8861885811765
84.0338652679392
84.1780026766041
84.3003198918234
84.386758580565
84.4540567168517
84.4803418811957
84.4845191157548
84.4790764112556
84.4293506704344
84.3812292440957
84.327326092061
84.2714522127263
84.2328637815008
84.1708985675768
84.0985575221363
84.0054889673683
83.9175120038066
83.8436961427321
83.7176874593335
83.545765775639
83.380810627648
83.2155876623397
83.0355275824548
82.8422129449323
82.640898923746
82.4311048525031
82.1954540750529
81.9604756581807
81.7301823336283
81.4748537031726
81.2185134993994
80.9699149699324
80.7031387495799
80.4318204647058
80.1645908680798
79.8950333411714
79.6398774327437
79.4028781617777
79.1710853828096
78.9233682438202
78.678610403754
78.4510510408798
78.2049784861535
77.9642580911736
77.7463546815264
77.4880966749875
77.1811598134735
76.8955549779085
76.6241860197839
76.3346082392106
75.9909869505363
75.6540365106747
75.366548288988
75.098671295322
74.8177692053937
74.5016806691533
74.1904456380798
73.9420929657013
73.6802319707709
73.4077381829319
73.1284529310002
72.8542873648696
72.6010328676134
72.3595869360953
72.0954739605678
71.8342543032942
71.579045732695
71.340243997782
71.1018386417383
70.8713410975793
70.6563672504099
70.4531641385441
70.256731916947
70.1034396878463
70.0003122834021
69.9401595355567
69.8734626958515
69.8062624651139
69.7367206704063
69.6875730071584
69.655092613047
69.6346222824128
69.6151581217036
69.6464265980202
69.7177456345962
69.8005519442383
69.8863340214271
69.9952277434141
70.1214764202875
70.2901038079409
70.4865290910271
70.7144935771583
70.970266810012
71.2393419844762
71.5252911690976
71.8538830845583
72.2058722882861
72.5700406765059
72.9474287153534
73.3208658903897
73.6661081225687
73.9702433863935
74.2689087744678
74.5980735237269
74.9465501229938
75.2390900012977
75.5122263117033
75.8312966238299
76.1373881170834
76.4176954848943
76.6607747773162
76.8608363538835
77.0577192340946
77.2509931691937
77.4499277821024
77.6358779655721
77.7940106038657
77.9761581983783
78.1782820362692
78.361182454863
78.5193519479863
78.6986725209382
78.9049060248934
79.1165223663223
79.327767485646
79.5665865613406
79.8391048055631
80.1343302104652
80.3802721170106
80.6150790454829
80.896120853632
81.1487243956919
81.354921840968
81.5603962314712
81.7605289897468
81.946082372899
82.1020529337084
82.2254653122015
82.333253068015
82.4402306574315
82.5298896199329
82.5976068802142
82.6919862844011
82.7600591334
82.7794563504436
82.7940638781633
82.7977280678248
82.7967479561311
82.8349303569898
82.9038765563854
82.9694828886012
83.0506268835512
83.1364027675847
83.2192851607765
83.3062098754157
83.3956947818195
83.4283871298988
83.422185892581
83.4272656223731
83.433144090878
83.4103813637419
83.3849818389711
83.3215108241438
83.2751327261668
83.2561381568653
83.2116974778963
83.1446544365012
83.0660248228296
82.9416639437919
82.8454269022996
82.7828317928438
82.7115498499639
82.6417535365858
82.6267017359268
82.5815487100134
82.5234007549737
82.5197963637381
82.5511239689208
82.5539931614097
82.5943918122107
82.6601873459126
82.6587918673008
82.6158087789272
82.5728974272708
82.5190897449836
82.4625641037449
82.3729599234493
82.2606980062426
82.1064600047825
81.9936966744356
81.8805504570239
81.7780655024163
81.6753771623981
81.5786559674198
81.4450120904538
81.3317082573751
81.2340079127072
81.1530416044212
81.0758946896583
80.9159368693422
80.7558573749011
80.6675822913123
80.519710389252
80.353298428162
80.2331271154279
80.1207948236261
80.0218292027312
79.946081378144
79.871961228672
79.8005374741993
79.7149275902997
79.6249305409356
79.5490431838128
79.5167315177486
79.4477961086076
79.3688497549388
79.2746131195876
79.1461527626989
79.0622420410462
78.9777554489225
78.9387093666133
78.9694196543774
79.0125547216309
79.0461613141868
79.0114704830829
78.9836523291344
78.9325609808411
78.8758182300322
78.8199658685208
78.7751946170827
78.7131280149323
78.6492147559237
78.601887670346
78.5561734223745
78.4753273478255
78.4149282530881
78.3622229741341
78.3134365503707
78.2509450248364
78.1651846223163
78.0973922794236
78.0093342607997
77.8835456783912
77.8125154444336
77.7595671033629
77.6367699335329
77.4883133036139
77.3552233618774
77.1603311822734
77.0026156883849
76.9071812415559
76.8092976569453
76.6654426472102
76.5752404480631
76.4871739004478
76.3840058154473
76.282658198494
76.1390291416613
75.9636532176468
75.847004815384
75.7207904135053
75.5627654786275
75.4227267480304
75.3195483654567
75.1693889689817
75.0187571523559
74.9309951746808
74.8941938656444
74.7756819665362
74.6809940527983
74.6301896421943
74.5163534433861
74.4071161170669
74.354642733754
74.2640630447917
74.214832272081
74.1062991404419
73.9964925040307
73.9187235190579
73.7626621888749
73.4453270381277
73.7166642717928
73.6932899159218
73.4220239023062
73.3422350325164
73.2887102190822
73.1714984391192
73.0178832216806
72.8425390097505
72.7104731719586
72.6735116840788
