1798
3999.43349933624
650.420452594757
1
128
4
94.7179822556781
94.7281310360465
94.6400823478953
94.7067612368776
94.7159476639879
94.6572856493527
94.682620091612
94.7501055405477
94.702663952336
94.6644041763712
94.6022639334521
94.6692293125562
94.6720950360079
94.6705843240903
94.6517385644821
94.6481989654972
94.62143753238
94.644220213807
94.6909130227526
94.6612515222929
94.6640469076419
94.8088396004018
94.7359216913559
94.7161632134433
94.7846713361081
94.7882345006059
94.7766524103482
94.8358973311965
94.7286020893311
94.6693795384135
94.7372660046628
94.7843677080311
94.6842941251904
94.6430175753474
94.6873561160794
94.7645396178378
94.8091719869588
94.8055645445381
94.7565136273347
94.8661353953976
94.8394970852198
94.70527295366
94.7552136161255
94.9119557605314
94.829923291245
94.79200502407
94.8315243837617
94.8617080574711
94.7985462711263
94.8531808355257
94.9099373554179
94.8849408083022
94.7732503675601
94.7711466239367
94.6946533063881
94.7356936990361
94.8735622322423
94.9186107827914
94.8667373934695
94.8805815411295
94.934322259539
94.8713384745061
94.8236447353312
94.8321703483154
94.8204193560317
94.872493492793
94.9301772169551
94.8799691795383
94.833069689894
95.0053385558004
94.8748318473273
94.8130450918982
94.8490644142098
94.8646167366999
94.9292093903475
94.9985904998865
94.9062835073492
94.9556912996019
95.0260373442761
94.9889123348209
95.0673780719603
95.025107486188
94.9152127170323
94.9341599885544
94.9981365175294
94.9773340751133
94.9708134343385
95.1153730680613
95.0862260459942
95.0327536346946
95.032721605613
95.077585288288
94.9737729549147
94.9187773349461
94.9454890310964
95.1863079719305
95.2250227530494
95.0738583470201
94.9158801165502
94.8527291911615
94.9409193269672
95.1453755105519
95.2621972869486
95.2718616721141
95.080827617518
95.1257204843603
95.1782368229999
95.1102794594872
95.0558453095503
95.0381984624917
95.0153457083486
95.1040667611333
95.1161899039621
95.0963229788308
95.1222691959055
95.1653467257061
95.0909069390635
95.1562154659236
95.2187108505263
95.221640036533
95.2471868398322
95.2129146681865
95.1219715488391
95.1731577801566
95.1621299203377
95.1650515695522
95.1614161044943
95.2695384061547
95.3133072275071
95.2533061668865
95.1564864332522
95.2032852940761
95.3321341749328
95.3987882539918
95.166845398775
95.0966036290464
95.1297019796062
95.1447379624488
95.170105887509
95.2836166927672
95.3239984826775
95.3067886328978
95.3053039812856
95.4168414246876
95.3435537520298
95.185336633019
95.143741598643
95.2463359570287
95.3108166576076
95.2761555910207
95.2696626865323
95.3154764696506
95.3118217844939
95.3136290221455
95.2116704035709
95.2684863218091
95.2422321301631
95.3055380877207
95.3426663660469
95.4589644606802
95.4514419509683
95.2436654413195
95.168477377628
95.3394509554647
95.4048462196291
95.3989536522135
95.2662028149371
95.2195266725703
95.2063663181361
95.2653901595928
95.2054828362253
95.1711222633435
95.1825099947205
95.3436723812559
95.232416567968
95.1202743412998
95.0710196139324
94.8961134152999
94.8077403891343
94.8974698717896
94.8920694188012
94.8595862228403
94.7431570718637
94.644641143023
94.6265643759814
94.7617884370696
94.882725441469
94.6976855441538
94.2969525153307
94.0689521679041
93.9786791748983
94.0348607426388
94.0293815351018
94.0229608630872
93.9178229370189
93.8731973046142
93.722092778437
93.7343265172816
93.7436281546305
93.4531168117315
93.3447438900951
93.339244282885
93.1233406173594
93.0837099146453
93.0727179620724
92.8548980197132
92.6576866473911
92.7057045558244
92.6788607785946
92.6603038343637
92.3257335445501
92.1166133022737
92.0182081493278
91.9583441108561
91.9375753289451
92.0149952875104
91.9369550619946
91.6804091169921
91.4327206610565
91.3484119324239
91.479066969219
91.5068258620234
91.2825409097085
91.0432554017192
90.7643603778464
90.7813570003267
90.8084747153842
90.8111202082528
90.8088181624123
90.6265939860619
90.4442740297017
90.5100346066397
90.2868100116484
90.038382103801
89.9562949330833
89.8930956324241
89.8315838155566
89.8236379199956
89.696519078867
89.6670005387486
89.491119740008
89.4115009560836
89.3456025074587
89.2351572476566
89.1168610110566
89.0319521709565
88.7215450442497
88.6368760448303
88.7448603779049
88.7608655972724
88.6153103017206
88.4958347127997
88.3116204654427
88.1945856314538
88.1476859228549
87.9658881373411
87.8171126563003
87.8963726064099
87.8601662411073
87.8448016034987
87.7370109447302
87.6282209823641
87.5867280506134
87.3884168293664
87.2242384238235
87.2938382175738
87.1712414632642
87.0095395163786
86.8589148968382
86.8222090091613
86.7726492861395
86.6669159528727
86.4076583128957
86.3848632256225
86.4245300804054
86.3458832001543
86.1899490879368
86.0931406384696
85.9850497841595
85.9236045698356
85.8400533918819
85.8372698786055
85.738261184858
85.6458411114343
85.4485041274478
85.2746801702544
85.2227797864722
85.2688926612086
85.1790562029113
85.1163945267018
84.9945171987018
84.9066374790751
84.8339191180081
84.7704395942441
84.6633206580853
84.7004639920172
84.5950652654706
84.4431544624537
84.3741070126559
84.2656701388906
84.1443791557611
84.0806716002866
83.8369777910516
83.7063547459639
83.7410286010265
83.7117435541794
83.5961082615209
83.5942847362416
83.6736156439764
83.7857265595343
83.5828795577821
83.3654325237842
83.3006671767663
83.220018812226
83.0948287003828
83.0161778903383
82.8878609351684
82.9202812907343
82.9278723506426
82.9077277023059
82.7981197046126
82.7667208341186
82.7225339255459
82.5708027902667
82.5026782478905
82.4674175572134
82.4223124147291
82.5446269335926
82.4639759848457
82.2699471833406
82.1108572345853
82.0583846258622
82.0767171426548
82.0920232999721
82.1083175412554
82.1048043483522
81.9649593767291
81.8923009818133
81.7712863737919
81.7484136407912
81.7202095831845
81.6907602049389
81.6755159162146
81.682736829659
81.5398621454011
81.4654455421318
81.5574594016031
81.6226101267402
81.542222352431
81.4706812359727
81.398825332007
81.4571692615501
81.3612359373948
81.3035692959362
81.3054429385497
81.2914368717134
81.21470681004
81.2374323293572
81.3009657547838
81.3609049893877
81.2577029221408
81.1597504293363
81.140984854203
81.1889679142743
81.1714784581224
81.2097000300103
81.2085634242223
81.184174976593
81.1086869553457
81.1431569871403
81.1992629774582
81.2277935119265
81.1976853628952
81.1542815793407
81.0688789702846
81.0707582880384
81.0642557158315
81.0656238134696
81.0627157210085
81.1244900416446
81.1191929605613
81.1533244375633
81.0775441890145
81.0306324468775
81.0674053312366
81.0453835274255
80.9586550973179
81.0060901805414
81.0785671167483
81.1315086379266
81.0559766850352
80.984921329126
80.9541911903517
80.9961914465601
81.0206259977211
81.1018201815373
81.0404312213493
81.0242187626014
81.0917300529542
81.0347519472991
80.8864729041416
80.9174963658946
80.9593037918193
81.0408530016227
81.0871565688541
81.0796340965889
81.0919224198746
81.1166167830852
80.9938610391107
81.0280364645615
81.0172706926625
81.0362547120343
81.0473314207411
81.0296916475116
80.9843772066298
80.9755659056386
80.905676948457
80.9537527541562
80.9464797346295
80.975957167153
81.1044222365673
81.2060885093011
81.1034757001218
81.1369038556187
81.2203772612451
81.2214243601701
81.1265597815437
81.1183397961343
81.1398787689119
81.2775423301503
81.2817419445954
81.263424466672
81.2795964149941
81.3747880981282
81.4567108209747
81.4571099361099
81.4356092067046
81.4539043283031
81.4242697692608
81.4939524019717
81.5218980489204
81.5578399394405
81.606887005381
81.6898055151145
81.768607977505
81.8560471606444
81.7756553607376
81.80919241582
81.8267425497015
81.8396611795316
81.9184429726127
82.0080431858538
82.0246561825762
82.1063439673506
82.2105073923138
82.2517887870255
82.2687631739683
82.3265475462455
82.3598835876849
82.3610043460174
82.3642071535017
82.4617201308419
82.4952082435179
82.5196084271786
82.5759146184672
82.7465607077645
82.7901073896693
82.7881007633797
82.800879234587
82.7998785682989
82.8415328465861
82.991979383804
83.0969735248437
83.1309549198057
83.1307685471552
83.1612400978834
83.172634820433
83.2694549465731
83.310020344216
83.3590140806407
83.3760362108023
83.4185125164133
83.4347664829919
83.4226715409118
83.4640125519892
83.5766980511542
83.5760917684827
83.6241509751068
83.7081535619888
83.8015436962129
83.8889765037583
84.0131299340857
84.017205784949
84.0329554481949
83.9943578561162
84.0307298721972
84.0611067571467
84.0909852508425
84.1055861948284
84.2029677741018
84.2386036475435
84.3306165700243
84.3579264294606
84.3861925882189
84.3965778599171
84.4575797927443
84.5044022774473
84.6031585838206
84.6658328753177
84.7188769908647
84.798805364402
84.8921896177952
84.9182104241795
85.0200521717259
85.0653561330032
85.0294791375601
84.9903060525324
85.1330040845755
85.2026523493371
85.2194716205164
85.2353039883254
85.3187133688825
85.4346635249427
85.4607129531382
85.3969841868565
85.4536192015501
85.5392856762267
85.668726256738
85.7297983144347
85.7783432677183
85.7771440031915
85.8107980456748
85.7643027555306
85.7366659232186
85.7301597654254
85.7569602197066
85.7992188024322
85.8448347427585
85.858835977109
85.9002327951243
85.9189039419826
85.9134986188022
85.8540476600885
85.8263609581211
85.7915878671841
85.8908224567137
85.9957524658776
86.0245186237286
85.9224410920208
85.8770457205823
85.9359078730666
85.981146350787
85.9141003131782
85.9196051521033
85.8603059365615
85.8735727365243
85.9593152236115
86.0169460985966
85.9823603944567
85.9773338322881
85.9611173194517
86.0015612787379
85.9929193589943
86.0004600224151
86.0185936095127
86.0350367990039
86.0514682781024
86.0771249146739
85.9828999381498
85.9614829728851
86.0027983123542
86.0122877508285
85.9562846430001
86.0338786252959
86.0985465229869
86.1406965321752
86.2347110851655
86.2928664601491
86.2916620677403
86.3517781603571
86.4219519201528
86.5360016882202
86.6216619660073
86.6890104238905
86.699958021583
86.7201627810729
86.7300334009025
86.836086716722
86.9515185363059
86.9780944047981
86.9352270864407
87.0134052846752
87.1820067202121
87.268659478481
87.2525992783515
87.2901446212206
87.3301994840298
87.3927842052925
87.3542440346483
87.3715878591332
87.4348075135739
87.5325995627602
87.526904461486
87.5458732216612
87.6272533291074
87.6514834837731
87.6377496599171
87.7309921753057
87.7844496135325
87.8111236381027
87.8333360666832
87.887690209913
87.9480586552443
88.0478501231094
88.0557411366113
88.0347208699833
88.071063614988
88.1835955519505
88.3034521484348
88.361496843537
88.3101411171619
88.3299419524984
88.502178409494
88.6415430022115
88.6268895669401
88.6360048731659
88.7088830996387
88.8178986614665
88.8349781769038
88.8750663132081
88.9036288059282
88.8590719583469
88.8694133626768
88.9604665860306
88.9958762763988
89.0190137305518
89.0360660683069
89.1091831599376
89.1576330519469
89.1990731179245
89.2056538508677
89.2237656192577
89.2370546087768
89.258297129577
89.3501431129406
89.4392557992372
89.415875091839
89.4167233365077
89.5064269886624
89.5885750238782
89.5862801869934
89.5836782535694
89.6434971107632
89.708613877049
89.6793217811965
89.6668851493169
89.7311494817445
89.8358563783207
89.8361901718487
89.8364677109396
89.8507411319904
89.8535115763522
89.8631313616078
89.9397686057143
90.0089170632627
90.0257552152085
89.9922728136447
90.0183197457359
90.0531426093215
90.0751997435724
90.084921889749
90.1023218704972
90.09009175363
90.1655967457043
90.2337662252374
90.2450142727068
90.2131458353394
90.2137890831367
90.2643524109739
90.3100013445868
90.3398173963745
90.3254647645678
90.3605875011267
90.4395134611561
90.4974142115633
90.5477626156559
90.5295051408955
90.4921183552114
90.4824878046033
90.5314383978426
90.5820686394543
90.612842572692
90.6516977134999
90.6774051842687
90.6983176155658
90.7264335684457
90.7720048791465
90.8305830331645
90.808706257094
90.8229854621625
90.8629691805037
90.8874166702533
90.914224136707
90.880129678639
90.8495685432128
90.8877504223841
90.9339988537061
91.0034807072435
91.0327736263013
91.0738174281782
91.0796901671829
91.0912293505026
91.1115330644257
91.12827308178
91.1092960772451
91.120975240025
91.1301889070904
91.1415092919104
91.1608228864816
91.238073912661
91.2579767293096
91.2366799444538
91.272444684227
91.3156267011282
91.2949989549283
91.286527457768
91.3124056772532
91.3189007809918
91.3453953990918
91.4378370549288
91.4783707402257
91.5028250098288
91.511960433048
91.5699985071729
91.6395859282496
91.6421179166535
91.6455334232058
91.6985648164269
91.7255029655867
91.7500367242094
91.7402539453819
91.8460066530993
91.8849967995504
91.8436772086436
91.8956506617734
91.92489983138
91.956692965314
91.9754062737417
92.0042388795113
92.0547203369124
92.0733997374864
92.1217926414177
92.1252641486906
92.1260456688837
92.214804009322
92.2631003604976
92.2527778874187
92.3002266863482
92.2518360862456
92.266998116636
92.3571311129595
92.4477966127191
92.4208563012272
92.4475936061826
92.4898253274194
92.4618402028436
92.526274086656
92.5156125116228
92.4919428308754
92.5807775056092
92.5129842217382
92.5049033473696
92.5832356320576
92.6352807885864
92.6901242000251
92.6830232857186
92.6598464830749
92.6803078024971
92.7437157379918
92.7589591460542
92.7877833885353
92.8910016715033
92.8338835531637
92.7499745991624
92.7614278728121
92.8361858196682
92.8333738500878
92.8484571433814
92.9042794092729
92.9043825828359
92.8852339826428
92.9441418956771
93.0021385955877
92.9895230042222
92.9947080883121
93.0139602565203
92.9893436200558
92.9585267965839
92.9155989611008
93.0090072322454
93.0556928294897
93.0925741381357
93.1069156272978
93.1064625372159
93.1168905161936
93.0988482897419
93.1005753758451
93.1032333399707
93.0980402862987
93.0925536008748
93.1062311630427
93.0784177414269
93.0849850456163
93.1493236770249
93.1622505562897
93.178952143636
93.2412471443664
93.2047049570286
93.1656754392442
93.2428877639447
93.2384634836759
93.18005237741
93.2219388367165
93.3297462373418
93.2874876147315
93.1951500715333
93.1829434858785
93.1977916259358
93.2210660163687
93.2500338404261
93.2540530625584
93.3069346167414
93.3013843587355
93.2435459950918
93.301802074783
93.4804169107209
93.5000471446087
93.338727198684
93.2713603672559
93.322958191747
93.409915447542
93.4517830578806
93.4569353784272
93.4642128473243
93.4507569278284
93.4904667218177
93.466950573692
93.4165240029706
93.4262804015705
93.46555661671
93.4717709891958
93.4592791223239
93.4738692791642
93.4922176902384
93.4320823231339
93.4234637129066
93.4661574113503
93.4557034712346
93.4802357879376
93.4935639350106
93.4574697074229
93.4546647887063
93.51351184756
93.5249913710166
93.4698628185022
93.4452015879131
93.4800959214357
93.4679982868597
93.4413581615772
93.4727960086235
93.5045712234199
93.4795563494879
93.4617244028329
93.4563915568397
93.4785845711055
93.5876665515322
93.5262352419138
93.3936550070262
93.4115315738243
93.5610155925509
93.6386266020878
93.5448388241416
93.5285801173858
93.5875760743373
93.6048211868906
93.6293345896786
93.5037310622645
93.3964376307354
93.3688432140665
93.3495799979599
93.3730901555536
93.4063491339271
93.4394358971386
93.4877795496991
93.4986897755166
93.437886019119
93.3903117414944
93.3894796875556
93.3137686777889
93.2588763402925
93.3381027320074
93.3730184036586
93.4190694278236
93.4611359806068
93.4157760056347
93.424732564864
93.5022614270191
93.5016418186118
93.4832368050921
93.5766567879999
93.5648921248013
93.5283696674302
93.5866547627243
93.6058342299329
93.7084722223536
93.7364860091785
93.7107824327943
93.6686252381569
93.6643179883222
93.699050683461
93.7702422408787
93.8710001555882
93.9533394618083
94.066501427333
94.0894156161543
94.0424698565622
94.0738211110696
94.1607745834542
94.2864719889363
94.4174689153719
94.4694527112896
94.2671343525321
94.4349017789323
94.6901000238154
94.6634100798425
94.6450901553849
94.6594330714002
94.4844081312368
94.5410960795952
94.8363305946813
94.8053787827035
94.7703176470927
94.8902397162686
94.8830286353721
94.8189515847826
94.9539571389315
95.2528172447227
95.2801399513241
95.1389046947197
95.1849751904659
95.1788951967239
95.2669033025511
95.4147341399036
95.493419278396
95.648134854109
95.6951947926274
95.5608934191385
95.6460734316712
95.8157088949607
95.7453580940808
95.5704505896378
95.3207322740489
95.5357620384864
96.0868861725769
96.3515198422687
96.2897223919129
96.1662040285717
96.2455704085914
96.347150503734
96.222350001858
96.0819827615725
96.4284142548504
96.8623237152622
96.5248581406206
96.1977837530433
96.5537646840493
97.1196751228657
97.1918186539123
96.9430976209462
96.8371653891735
97.1693513696375
97.3330171907373
97.2066366208125
97.3675615302419
97.471581702417
97.609268743923
97.7258219345459
97.9667013738195
98.1679609515194
97.9641459233623
97.7939329422696
97.6446081646529
97.4184129621856
97.1883045019939
96.907940845511
96.4971157935975
96.3975989202482
96.4105113500402
96.3958739589571
96.3364664674856
96.2281613080191
96.1383885540005
96.1123005721694
96.026643190342
95.7795088928553
95.46564245787
95.5197461130504
95.6463625139792
95.4718974688365
95.3511226061327
95.3378051380537
95.3653512419286
95.4447206008645
95.5531194655542
95.4461767547863
95.4008048617854
95.4536926389886
95.3207216605227
95.3616561327535
95.4707643667951
95.5464979849742
95.8183628417708
95.8981589885684
95.8113814162245
95.5937812555797
95.5288128136769
95.5560132593013
95.565956738531
95.6624579929009
95.6255262118126
95.4891562392185
95.6070340286568
95.7141590601798
95.8256831271923
96.0089723269684
96.166098220208
96.2468158127705
96.2211676735082
96.1297333323124
96.2669112490398
96.3845309769219
96.3563614393179
96.3951200504807
96.5628984164698
96.6200404895565
96.7276846812703
96.8392712876704
97.0439984471999
97.3173946767739
97.4684138162831
97.5120824601683
97.5898025622098
97.5495655169989
97.7600832393976
97.9630823907147
97.9113090848299
98.2213716714688
98.3137413517013
98.3484440429201
98.4431950098249
98.3343818611908
98.1834272980308
98.0592639020575
97.9484016518435
97.8108119123751
97.594839100616
97.6313242600417
97.9179588644253
98.2441705463607
98.1517300590675
97.7890031145459
97.8528314754378
97.7218727300127
97.0978241148229
97.0580168048558
97.4972547027956
97.7464674865547
97.6718837408166
97.4483871948595
97.4881208538304
97.7419244077023
97.5927517678093
97.6489789164391
97.9092709984248
98.1575301446024
98.3234694262645
98.1883562212463
97.9403964730873
97.6584924983313
97.8515538402044
98.0508041557204
97.9551644956385
97.8384489716428
97.5732154917767
97.524999642832
97.4075991524637
97.2658331588986
97.2647123016741
97.1757135882467
97.089442790791
97.0574623985958
96.8857002984429
96.8821062894381
96.9715548935491
97.0224221264331
96.8205908434498
96.5275621707239
96.3285456833712
96.2455391816733
96.3808178113051
96.4945043169581
96.4004937293688
96.3823012017083
96.3971918277042
96.3598968530253
96.2956936043854
96.2977401530825
96.2634123284894
96.2348076295222
96.1301151662789
96.0483257578695
96.0850856677541
96.122949567901
96.2201199887492
96.2827554900276
96.1170625475565
96.0554544372715
96.1152832765607
96.0951746078462
96.0410599421096
95.998295787133
96.0060966476793
96.1202398095661
96.1336658811724
96.0489310362079
96.0393558082786
96.0664398079449
95.9485346347773
95.9703313244248
96.0644969166924
96.0516860686038
96.0873051624575
96.0904742379924
95.9845158146269
96.0440891264637
96.0791725034958
95.948300375743
95.9171470734441
95.9434722828835
95.9206347752155
95.9029154995249
95.8947315775503
95.9783727864096
95.9782269027466
96.0001615992045
95.9731443514271
95.9547696362938
95.9946567326198
96.0078198988749
95.9881736723378
96.0142598895044
96.0254008616678
95.9963199164081
96.0039002133916
96.0168910139806
95.9812457674312
95.9416743470146
95.9202924776455
95.8841199396772
95.8784877986486
95.9135678933968
95.9226442324433
95.9430325928159
95.9018389790464
95.8821074690557
95.8824077351558
95.8677810885446
95.8527239255662
95.8070881329189
95.7521563404601
95.7272783332735
95.7267631002256
95.7053118882322
95.5996857592142
95.5082883816328
95.451487937016
95.4231426391349
95.362367663144
95.250913060938
95.1581562002433
95.0736455690112
94.9736402321653
94.8760120744642
94.7934288014212
94.6543800507063
94.4892131589279
94.3924406222757
94.299522791512
94.206255730019
94.1057095397407
93.9760209376427
93.8596970512742
93.7726274869028
93.6989797226761
93.6937975371081
93.6017010976125
93.4525238500257
93.3414372694771
93.3247657933766
93.3034812440136
93.221509681343
93.0886899381726
92.9838829978457
92.9437158559061
92.8813915676297
92.6575566018463
92.4574000647536
92.3977227091629
92.2586016118353
92.0564552288144
91.8219382738728
91.5744201072998
91.3764406712463
91.1475553395617
90.8373407966374
90.5626851774155
90.391768104546
90.1913058593246
89.9367240804549
89.6291034176477
89.3420834781936
89.0544232910978
88.8039593406937
88.4757494247439
88.1153996102006
87.959003042349
87.6429522778655
87.3228970284828
87.101636016174
86.7631095041358
86.4168220933963
86.0957486819933
85.673517950265
85.3353547503895
85.2156358672791
84.8702629585786
84.4829830419063
84.0309430779322
83.6975992530728
83.4082362838053
82.9684543739269
82.6159941847266
82.4317871507059
82.127826653421
81.6816122204664
81.3527546551084
81.086667159262
80.7220288577713
80.1782588681655
79.4453999041799
79.5386495164784
79.5528261120946
79.1300536679979
78.6621044291311
78.5087516206582
78.3021957929487
77.9846271348819
77.5996920110208
77.1151844416115
76.9023498655133
76.9647948952159
76.7798546409263
76.392029433761
76.0236731521949
75.7875346916424
75.4714013726615
75.2738312406113
75.0999380875003
74.6522889030227
74.2082471556366
74.1552747099464
73.9557628310132
73.5766327975456
73.1985762108352
72.9116289433387
72.6159580116033
72.2924387873388
72.0012042784768
71.729169810112
71.4382117799573
71.1502950621863
70.878472187384
70.6696360867097
70.4298514613351
70.1933466606133
69.965077442139
69.7780655293171
69.6094715131395
69.4373463571211
69.1541543268808
68.7589272437961
68.7587554056427
68.9766641584238
68.7970317222326
68.5031784315349
68.5892054566968
68.6433942684589
68.5626199799645
68.3708815328122
67.5990578381846
67.9318442748133
68.9891231289005
69.366522255168
69.48735673916
69.632818884923
69.8601106456817
70.0810115602468
70.1081349823723
70.2006372265452
70.2649928883667
71.13862530249
72.2605002515476
72.610452467204
72.625093297186
73.1197797955749
73.5971651128419
73.7344895777546
73.872584752146
74.2244322107025
74.3427841293268
74.7565894007959
75.3702282349152
75.6000683284548
75.9245421563091
76.1993978552882
76.2802970998873
76.1557694894852
75.8085827456195
76.5962619889382
77.5451327805766
77.6771066466452
77.4801348288287
77.369889164196
77.5855332361754
78.0328726669079
78.1516013860413
77.9575025574315
78.0519550648233
78.4733483906924
78.750278836677
78.7709489758419
78.7252065654753
78.7739042770191
78.7259084449009
78.5980470973148
78.4436417835361
78.4514539591279
78.7259332959484
78.6977375711728
78.3428494826461
78.006091165193
77.9695324488993
77.8254504864558
77.3194161125649
76.7389719266995
76.9004468037982
77.0554156756551
76.7721440512839
76.3736281292415
76.0177877732567
75.8284501544096
75.6388896577019
75.3921096217601
75.1085908944517
74.7034619288498
74.2400864790821
74.1594796296627
74.0384906265038
73.6281084892448
73.1971880850421
72.9072796087301
72.5713910757044
72.1735906941139
71.8223374372639
71.2917526305304
70.8243246008923
70.7411999339612
70.5186207314876
70.135241696387
69.7635267870042
69.4808545355634
69.1969021693668
68.9173849927519
68.7642247702677
68.6117545048317
68.31859885648
68.1717143937816
68.1142052073132
68.1305917441034
68.256715931867
68.1935043331078
67.9876967347846
67.9663615820507
68.1753098989006
68.2689364833144
68.3017584899406
68.3907841662109
68.491181597281
68.5428082424867
68.7613162893428
69.1351464950803
69.3661257166713
69.5587242227711
69.776226909692
69.8789447388318
70.1311130606426
70.6140515882838
70.9728517579532
71.1971299081205
71.4126847121288
71.6948692637976
71.9972109811503
72.29596279957
72.573255714611
72.8511192294459
73.1106827709577
73.2781986695804
73.4593128650475
73.8412488871152
74.2219007201841
74.4659174383411
74.6164656295504
74.7873683296068
74.9810760951001
75.1691955566331
75.3431913714666
75.4911321018886
75.5995624266587
75.7334721484913
75.9128965415297
76.0712397532956
76.1591252450382
76.2826465822622
76.4428996126343
76.5900005214126
76.7173435137679
76.8339737701398
76.948564174374
77.0856408135562
77.2141868798177
77.3409707433096
77.4780062866907
77.6098051349137
77.7163456189023
77.8271772559489
77.9608763774814
78.0793850452869
78.1588300315514
78.2389729820857
78.30511559506
78.3576671585435
78.4111290043226
78.4422515962552
78.455469612907
78.4835945198957
78.5021208861859
78.5359228144725
78.5382414952066
78.5341927974125
78.5337856350565
78.5518483127183
78.5864113925422
78.6136871791801
78.6504278831086
78.6898548828624
78.7013575148964
78.7244458767523
78.739947760996
78.736472904163
78.74550013519
78.7833160323417
78.8171877884486
78.8418827569181
78.8809516353362
78.9194425525817
78.944755280211
78.9845620649429
79.042251500943
79.1109088504763
79.1490683581101
79.199394580163
79.2785538191279
79.3660487501897
79.4501664826471
79.5463347772687
79.6020988847193
79.6840023767222
79.8150729325288
79.9269300828357
80.0263415255308
80.1398272737734
80.2466805724857
80.3456372078689
80.4533427725631
80.5897578213152
80.7019476562595
80.8036316000596
80.8971274863667
80.9676294930281
81.0271843418632
81.0862025930549
81.1311783325137
81.1392442855864
81.1373196260794
81.1467572372965
81.1548767611453
81.1589576225002
81.1434417497125
81.1313014848213
81.0966512551907
81.0708965192378
81.0574918875598
81.0291437028654
81.0002345323672
80.9503592082326
80.8782323625365
80.8062397891577
80.719005506639
80.6643905752941
80.5964335296875
80.5036292200155
80.3930671860239
80.2963306378278
80.2091299074359
80.0912080184342
79.9481883557452
79.8321527563167
79.6718895189527
79.5007282297926
79.3536234072768
79.2254606415051
79.0610398830611
78.9007258201743
78.7524526837698
78.6067322061746
78.4785462009884
78.3659640652505
78.258756490409
78.1306992039435
78.0133716610999
77.9168104127524
77.8076355116007
77.678601051919
77.5196527099597
77.395444417013
77.2621140421038
77.1184347522166
76.9683340565761
76.8184919423484
76.6471853119661
76.4677618726704
76.2843427659947
76.1083999926457
75.9401063722432
75.7711027320701
75.6048843493729
75.4522484258991
75.3208584404116
75.1865573585755
75.0339493706092
74.8928369298574
74.7475269260619
74.6014719343106
74.4447573533968
74.3257606230681
74.2157655006014
74.0801900542806
73.9485382771579
73.838388435108
73.6947311440127
73.5327333983076
73.4205531359386
73.3292276977806
73.2270371924528
73.1170461462741
72.9912734417543
72.9265276545628
72.9162245989103
72.9092616397582
72.90954684994
72.944072661164
73.0030092586091
73.0549183127785
73.1268350370331
73.2104605127428
73.2879425669153
73.4031540384694
73.527230896371
73.6771963494382
73.8377212446278
74.0279587013659
74.2507509335
74.4819680882402
74.7309026610345
74.9721231280434
75.1882702690019
75.426068786787
75.6802515743759
75.9449681081772
76.175751608
76.4157020404813
76.6723373322867
76.9138715784461
77.1310198344883
77.3355320833646
77.552603367333
77.7795009534538
77.9712194645148
78.1604709569907
78.324009695137
78.4798650262392
78.6292182988079
78.7720622684219
78.9247974315959
79.1115921225879
79.2758983178628
79.4040053831638
79.5336466401249
79.7041886297194
79.8696463787466
79.9867869077202
80.0990390058929
80.2631702276075
80.4376987433214
80.5787714701089
80.7127573687837
80.8405692679216
80.9449305154364
81.0756016720548
81.2137348710472
81.3553954448227
81.488549395168
81.601394719338
81.6964445245666
81.8200572579533
81.9215613511866
82.0116407085644
82.1209897962986
82.1861722297303
82.2345757944286
82.2976504988818
82.336013185001
82.3749875886167
82.4175221782891
82.4486184818589
82.482005589721
82.5363741961732
82.5950262431887
82.638905533768
82.6925883944174
82.7354570458485
82.7856207581508
82.8502510794013
82.8708046545736
82.8546507294541
82.8245789638271
82.8365633658893
82.8259158588101
82.7885224459983
82.762525834938
82.7335249910484
82.6717193135247
82.5459609543319
82.4179307711449
82.2789979429803
82.0929690420634
81.9052073933198
81.7037183676287
81.5442762829319
81.3336743640867
81.0983477363837
80.9379628595004
80.8121556718796
80.6781167079594
80.6005812459883
80.5478903050343
80.544073917798
80.5960917642307
80.6970700901489
80.7555267439858
80.8019619118095
80.8122264174016
80.7838823977684
80.689795156338
80.562925281878
80.4669774042964
80.3890623797359
80.2543937497096
80.1083866813906
79.9723568758287
79.8250327421051
79.6374056552395
79.4803621380756
79.3558017897564
79.2275220219263
79.0448512807871
78.9044468870601
78.7852218705555
78.6084971872785
78.4340911420647
78.3311397411977
78.1851129671909
77.9869523809213
77.8018922774326
77.6655553965015
77.540411716676
77.4082384687003
77.2275601735743
77.0421009110058
76.9267716495648
76.8273686851711
76.6987979397809
76.6012721289693
76.535034578734
76.4597002883016
76.3624855417916
76.2622817438438
76.198207480857
76.1671257954663
76.1104095209302
76.0595237548546
75.9784064294406
75.8933483137
75.8226673429386
75.7017920996344
75.5920798497053
75.5121932916409
75.4190572903018
75.3449813880786
75.2761879376077
75.1763766380606
75.0739173836463
74.9853659040762
74.8756917789994
74.7906258272979
74.7019795545681
74.6314462543463
74.5398396549979
74.4202215514631
74.2930382001664
74.177945797587
74.0412731937075
73.9280797072618
73.7998880116046
73.6632359929796
73.5074400673674
73.393045716546
73.2570685592122
73.1111683852619
72.9901872627298
72.9179042168902
72.792994285236
72.6304708898687
72.4806526982314
72.3701016932847
72.22617033069
72.0767325438252
71.9010324589128
71.7559372826138
71.6137219853596
71.4519513748765
71.2909693922773
71.1609627213725
71.0420423432113
70.946610376831
70.8149137978366
70.6713327079223
70.4969668166533
70.3825880777378
70.2739461450879
70.1829526310081
70.0716049182686
69.9836458099717
69.7932412129092
69.6364013281011
69.5429271321034
69.3623014796534
69.0833804331915
69.2079171138824
69.2105511153124
68.9599549438486
68.7928768567012
68.6888578618046
68.5329025322655
68.383864887531
68.2478345282535
68.1847298779788
68.1463113463271
