1798
3999.43349933624
650.420452594757
1
128
4
92.9702141820924
93.075844521386
92.9157178552989
92.871921424541
92.9089433312135
92.9557769820491
92.9508398800377
92.9653090021036
92.814213651655
92.7896422313935
92.9110417452466
92.9476039918678
92.8157550024778
92.8270726954036
92.9481003382724
93.0397708486355
92.9828887712621
92.9373404092965
92.8294253442367
92.9296791697219
92.9709420656015
92.9102530649575
92.9219470132487
92.9456247713303
92.9434412413664
93.0646802346872
93.0315855427429
92.9881557143119
92.9303473078386
92.8598416811157
92.8989602208755
92.9800353315794
93.0296584625913
93.092606143162
93.0635098094547
92.9969806082254
92.9435380057098
93.0298735324296
93.0909860524222
93.1413694250246
93.105519484781
93.1025975016874
93.0490024426179
93.0218557791833
93.0865689991944
93.1628515233533
93.1891246958515
93.1891338838413
93.1426881828884
93.0788569662951
92.9772132933055
93.0220335854376
93.0008403285458
93.0011800522185
93.1170803002916
93.2380330894177
93.1304130672877
93.0897024224697
93.0278908794862
93.0956822207101
93.1761825930415
93.0861470963264
93.0938389745832
93.2649937268572
93.2655073289042
93.1901197537663
93.1771035611889
93.1930062214645
93.1355890621994
93.0656321861268
93.0431733944834
93.223959485849
93.2413489549468
93.1892411534134
93.2261652669801
93.3322058698557
93.2417585694469
93.153349311278
93.03072024884
93.124369323289
93.3139095405735
93.3800371848911
93.3632279788519
93.2414313029098
93.15659534529
93.2736395104532
93.2637796446435
93.253728921037
93.2914568340233
93.4013607348674
93.3630882340553
93.3980003075039
93.400523209724
93.3109220486654
93.2620242991612
93.3060602151041
93.2954653174901
93.4359638399848
93.41777775361
93.3481241027116
93.4055594918895
93.4588253780415
93.4057166726954
93.3065606338891
93.2639165801552
93.3241024402822
93.2088768313171
93.2280790496245
93.388914286008
93.4333649296
93.4348364814436
93.4970924156307
93.486834009533
93.4306625005639
93.381891602162
93.4333933340628
93.4602744218641
93.5667234577536
93.5229040230481
93.4949945460758
93.5346543058834
93.5612318398489
93.4791906048046
93.4369733660308
93.4893596242074
93.4457783757579
93.4316691565688
93.5636650058653
93.4751846591124
93.5278338653993
93.6485609206782
93.5956122777453
93.5044281788175
93.4553090765621
93.4559035595317
93.534684363395
93.5190846112461
93.4653594782065
93.6470655510439
93.7478238001816
93.5756032871984
93.4519107376179
93.3683133601598
93.4626150819178
93.6753494117604
93.7555135422864
93.631185293242
93.6233010195404
93.6166743799939
93.6352543510129
93.7063164665716
93.7219852187607
93.695492385459
93.7830942288984
93.6732608395849
93.5863742950543
93.6625032624873
93.7326719418634
93.7439158257611
93.7514649898139
93.7058011014431
93.7150145896686
93.7828105817495
93.8086408618171
93.745498513758
93.8917583386926
93.7186704199039
93.6362068478176
93.7937783572689
93.888488810382
93.9369905585033
93.9642782759689
93.8193786917843
93.6344916217526
93.3449125138454
93.5571019611172
93.6749394037115
93.6107036677677
93.5862236255221
93.6840532056934
93.7759183323115
93.8502695285803
93.7101520012202
93.7031951138772
93.5887839226173
93.4761287594619
93.369367850753
93.2515134134996
93.2716810558277
93.3548533036569
93.3272910577424
93.4755400834093
93.4180278645674
93.265645497461
93.1836507061425
93.0483584900815
92.9194719948159
93.0660721217723
92.9205076688829
92.6944368428877
92.8332474534611
93.0030970535477
92.9274969101588
92.6200950110905
92.3934347379407
92.5577885767477
92.5386237884429
92.4173111380004
92.2840253952463
92.3022039665856
92.3282984629179
92.3237739869991
92.3181197116735
92.3063665005449
92.1541068764075
92.0330377706914
91.9604307947402
91.9215256440489
91.7180690570436
91.7140905468378
91.6441952074391
91.45109345281
91.4568492532343
91.4832063295466
91.4354275981368
91.5644597935428
91.4577248184194
91.307107145243
91.2563267714505
91.2730105188439
91.1146934354884
90.8896239698583
90.7526992538844
90.8779097343012
90.9201807964452
90.7751273577611
90.6234853884442
90.6096201891326
90.5711809514443
90.5117786359603
90.4116930474286
90.43972332443
90.4421775305326
90.3036693163552
90.0475572797089
90.0031679813878
89.9116361069628
89.9224526142708
89.9361223143648
89.8233463977572
89.6366266979486
89.6659769751578
89.7315784625795
89.6605531304638
89.4954055518623
89.4124479254518
89.3376911818979
89.2884787856491
89.1184021905092
89.0868965972035
89.0689000180348
88.908623611419
88.7410408582568
88.947499408553
88.9619613909157
88.7189892384017
88.5492815610311
88.6406463794577
88.6348603019475
88.6049726186347
88.4640449976019
88.4282522367498
88.2518508730692
88.1473107206744
88.1632932728621
88.176086487931
88.0062674165465
87.8843963059128
87.8053114944449
87.8604942179987
87.8080683263579
87.7471952219183
87.7068402284649
87.6021136661772
87.482206930089
87.4832293944485
87.4691648128971
87.4880100342427
87.4014572304296
87.3205473941221
87.0677481608075
86.9060265165048
87.0537994762578
87.1183028216542
86.8720657755667
86.8098845291856
86.7600825292204
86.7301635030699
86.6885325931229
86.536052973552
86.5691252032062
86.5976566895019
86.4219172994482
86.2740834137431
86.2092920634721
86.2652202873414
86.2227340719905
86.0700164157146
85.9668300601689
85.9708085364527
85.9417268508931
85.9046891231438
85.8007547516978
85.7968563867033
85.8413652021095
85.8702398884098
85.6599725313354
85.5628654322934
85.5388848386265
85.5213005646301
85.3742136764292
85.3274188210696
85.2442752419937
85.1984235996823
85.1957840124309
85.2168167137042
85.1788669384476
85.1743483083883
85.103974607949
85.0473027881285
84.926727239741
84.9531979564135
84.9857212399
84.9161644101141
84.7697613013156
84.7349618376864
84.7141916204115
84.7711862585422
84.7546267936171
84.7743332863416
84.6283331560062
84.5575636048098
84.5059540692408
84.4550512554154
84.4238116849497
84.4480987812723
84.3842788302669
84.37579035195
84.346700058728
84.3173298295413
84.2083261556368
84.1579653371397
84.1964370478801
84.2171920757246
84.1531495868315
84.124113701345
84.0965528886091
84.1322779940201
84.0472474875066
83.9459759580095
83.872418950755
83.9046806922615
83.8917048738132
83.9492202876705
83.9233426386672
83.9456759105116
83.9135353485533
83.8387857432699
83.7652489669099
83.8342889845219
83.8411259440458
83.8710692185456
83.8485757049314
83.7989135244214
83.7601508327002
83.8259866482602
83.7977751331546
83.751660804602
83.6875309388639
83.70362467454
83.6546030195977
83.6191468550484
83.6232324264771
83.625631998414
83.5629424240194
83.5727968974049
83.5456530815779
83.4904888782195
83.4548806761616
83.5311778888496
83.5879491858693
83.6773391541937
83.5967244945281
83.5104941070046
83.5600098519509
83.6027698433041
83.5590358718416
83.6015949494342
83.6204844310968
83.5988031193646
83.4979033380009
83.511399082019
83.5426189117381
83.7117238301093
83.6701433018267
83.5842602535256
83.5653052968063
83.5560179563697
83.5050706283224
83.5916597328819
83.639923584012
83.6654564793204
83.6672779897712
83.6446541822568
83.5777348914727
83.6436474029609
83.6398357059691
83.5851297200011
83.6054205452715
83.6834159393445
83.6415890815446
83.560852788938
83.6089256461194
83.7525193738791
83.7208583315667
83.6598042337332
83.6704779623932
83.719986063725
83.6448579110891
83.7094122645591
83.6844371607018
83.7241070411355
83.8210338650157
83.8506759356037
83.8481924349839
83.8386598643573
83.8815728515976
84.017018342678
83.933778093769
83.8975923501301
83.8961755863273
83.9477246706652
84.0526086688598
84.1620430410529
84.091725571531
84.1172753049745
84.2033016506376
84.2685421367873
84.2472091126949
84.2375006207325
84.1960515928063
84.2998420291619
84.3962791008818
84.4871285676854
84.5843805476552
84.6388659205327
84.5465556446446
84.5234400476574
84.5208989325352
84.5711614502526
84.7083129412014
84.7329463319611
84.6486087696455
84.6243527605867
84.6574610742751
84.7766540420155
84.7900831761753
84.8845569227178
84.8943580003582
84.8600950572041
84.931628249884
85.0566649265601
85.1284441754336
85.1786838621462
85.2106725498171
85.1475185360079
85.1565082270898
85.243878689772
85.2436861478729
85.278451437412
85.230362833345
85.2141723669908
85.2386098486299
85.3729083251602
85.4211324422589
85.3331321036966
85.3357529201543
85.4976339326754
85.5434218125593
85.5734506730858
85.5696959536262
85.585952087089
85.6065885525073
85.6567136312379
85.6262586939027
85.6463051247981
85.6409819763747
85.6805185019967
85.7220283215205
85.7148963941823
85.7167471045584
85.8311182750457
85.9133355023378
85.8854783511177
85.875410729087
85.9717215734767
85.9409181851717
85.9577512155146
86.0243396164433
86.0896209351805
86.0338235971821
86.0545701042887
86.1543387352026
86.2792955337091
86.3123619868871
86.3517234910211
86.3389994981275
86.3388429200225
86.3954050611759
86.4345493859504
86.3725260251387
86.4149792215447
86.5476540345098
86.6483715803258
86.6167013690797
86.6283628662327
86.6281528723276
86.7006123107379
86.7745376483885
86.8349056873262
86.8359033246296
86.8028177801797
86.8284862844677
86.905938333563
86.8773945188629
86.8324638067269
86.7689142616563
86.797984131216
86.8589899901376
86.8648294558729
86.8839491320775
86.8684755547268
86.8217336464562
86.878848792213
86.8017872249311
86.740431611718
86.8218135515729
86.8174942699052
86.7333222770319
86.6784233040978
86.5928083220837
86.5233782872656
86.4690957344704
86.3858589422314
86.2984113649106
86.2570455143177
86.1936458005675
86.1544850029439
86.1460340802307
86.147835777613
86.1265650174109
86.1513090906741
86.094849196766
86.0545823747448
86.0150792243031
85.9942757733206
86.0191910243916
86.0412539088012
85.9733692413667
85.9124270361311
85.8713998523599
85.7641737835607
85.6111537864034
85.6381395747067
85.6574020199874
85.6537102169681
85.6335948040979
85.6632477018745
85.6503654310121
85.669968729559
85.7498331032584
85.9062708162921
86.0246940549894
86.1219187598132
86.1265648378359
86.1682377149761
86.2702460851067
86.3549910009612
86.3598250405039
86.4399538579014
86.5366858187121
86.593780899991
86.6375759313993
86.7047021879013
86.7024757129316
86.7317586339706
86.8205403744269
86.7842984638415
86.7541967538807
86.8485247569919
86.8525983146147
86.8214695647346
86.8698827783921
86.9461565657073
86.9559124027373
86.9511196135875
86.9590722479225
86.9855210551999
86.9911519214699
87.0403211443149
87.0677538465848
87.1239515533829
87.1564568456591
87.1601174602951
87.1977498014741
87.297471219363
87.3336407305028
87.3931077192706
87.4446638955788
87.5082947578686
87.5775013926965
87.6405720221866
87.7912905161761
87.9160647685382
87.9554654846277
87.9942336432822
88.0211990904324
88.058074933461
88.0889946548952
88.0989108458654
88.1404593562555
88.2344331077019
88.2818420618022
88.3337697000693
88.2901829868149
88.2739697373586
88.3129308551207
88.3737989032566
88.4612174359225
88.5397890475233
88.5586059222789
88.5464401811927
88.5519742288971
88.5898673647004
88.6325807101254
88.6933650083556
88.7115825420939
88.7435875915053
88.7570726529132
88.7556524032383
88.7933197172045
88.838649854201
88.8191698145357
88.8784862561536
88.9014534739622
88.9099549952755
88.959117511639
89.0480429156989
89.082299968298
89.0887116974018
89.0944767745613
89.0954101089875
89.0784964776555
89.1555180529808
89.2094570476135
89.1838584963639
89.1826662585087
89.248986926074
89.2456331093362
89.1845236271937
89.206184404792
89.2942215285536
89.3482680861104
89.3691703345437
89.3543971195005
89.3507087714312
89.3656064823143
89.3662459718762
89.4164974974891
89.4739682218287
89.4388416239269
89.4336566716049
89.4368297388785
89.5014057505729
89.5447645363576
89.5822258847403
89.5934433989466
89.6123197343336
89.667399793085
89.6636430106964
89.6533755061078
89.6820466440248
89.674742378958
89.6852764441143
89.7114152303227
89.7330964049229
89.7900695703956
89.8426223181965
89.8612363540969
89.9047722802055
89.8263337761658
89.8133603964468
89.8738756534335
89.9127289012201
89.9367998091884
89.9419768041481
89.9280281706727
90.0086507621981
90.032222346302
90.0387823307622
90.0895386014634
90.1023315433359
90.0639002955309
90.0627029471832
90.0866356284936
90.1298635528691
90.1730123227158
90.1476301756556
90.1150317796315
90.1364459548404
90.1442543757509
90.1261341671622
90.1262490380187
90.1564162144883
90.1867507611341
90.2037516614658
90.2297523604466
90.2959144820301
90.3326364729803
90.3370510902411
90.3272990691016
90.3391045238296
90.4228929627762
90.3986765813859
90.3439288418344
90.3939523492811
90.405137294766
90.4713483774293
90.5584950207119
90.5576815868457
90.5574298707477
90.6455722348543
90.7153843855198
90.759368227965
90.7522474789812
90.8021128489513
90.8003540461298
90.8425996643006
90.8446197036592
90.7842074779003
90.8186716192156
90.9180734835094
90.9248414106335
90.9444211428915
90.9692091037023
91.0294879295973
91.0558901049723
91.1028098303704
91.1013588018231
91.1082557376565
91.1803572804246
91.2388159585538
91.2086750286656
91.2666285421818
91.2625195838256
91.2541213996248
91.318161047443
91.3886231164666
91.4017884045185
91.4013634767362
91.422444547522
91.4204720125254
91.4082720570207
91.468488147452
91.5713848506131
91.5838166637048
91.5147933105751
91.5221321245993
91.4758567652506
91.4752926884464
91.530961793984
91.5234341661062
91.4795098562482
91.5693846919881
91.6575463717451
91.6784885280468
91.6552077922362
91.681584961432
91.7240593604591
91.6963490443109
91.6953897522437
91.7593097859225
91.721599057613
91.7151820230791
91.7152769175094
91.6932119603103
91.7584034949437
91.7311643535568
91.7576986946441
91.8865180359786
91.8637653560797
91.8361933932822
91.8349729393833
91.8835245491922
91.9097635413777
91.950847724164
91.9533955143845
91.9019803453824
91.8928894524771
91.9608528779331
91.9334124247664
91.864140448496
91.8748498205246
91.8920703244216
91.9200633894294
91.9768363831873
92.0154754231326
92.0171750227461
92.0627579704172
92.0495573351786
92.0125907891692
92.0119636508329
91.9190476514567
91.9286609907691
92.0414124410974
92.1348497040424
92.100109918968
92.001258446715
92.0028391696281
92.0660661203605
92.0524591241373
92.1413763552793
92.1432958679252
92.0986086676281
92.1557208734439
92.189689306143
92.1595200878534
92.1397286574114
92.1540427869005
92.1526196279373
92.1484807709449
92.2052430560275
92.2703390000004
92.2957391158922
92.2580676821079
92.2888982504732
92.3507847164313
92.330046095738
92.3083767698315
92.2498617343806
92.2615937001343
92.3154824028753
92.2891924490952
92.3096294548576
92.341556065714
92.3615667984275
92.4082450228211
92.4248791555799
92.3678745717082
92.3372290335964
92.3328635877538
92.3512896528206
92.322477681281
92.314383632352
92.3353541489267
92.3372599120055
92.3324632815506
92.3689459551134
92.3474277658862
92.3207778549234
92.3632874364898
92.3721523182551
92.3868614273804
92.40915345613
92.3717104830551
92.3682413726317
92.3370990990174
92.3699367339901
92.4715457051184
92.5085760516864
92.5312669477173
92.5260427665565
92.4853161021222
92.5163130124307
92.551734205313
92.5444537691219
92.4858209618598
92.3572312599311
92.3054473249446
92.3410002448968
92.2881692132753
92.2794853027235
92.3059050104686
92.3101246951919
92.3011514855494
92.27473032692
92.2898784273886
92.3406074006916
92.2651817262073
92.1117780685533
92.0827777503303
92.1913666374319
92.2853746719429
92.3473946346969
92.3181218445843
92.3362831735169
92.4060721144198
92.3836021117608
92.3514034575616
92.4143743696361
92.4546498541474
92.4666436596457
92.4620399354537
92.5207241137352
92.5403785932899
92.5187280310516
92.4940626821602
92.5095210866729
92.5207352510776
92.5073801720851
92.5345522311301
92.5926169724784
92.6618797673699
92.7174154481626
92.8136259882419
92.9151344168277
93.0185859788137
93.1416903770292
93.2728717115338
93.2622550302607
93.2888017689511
93.3857248181578
93.3713595800107
93.4580505143129
93.5684349303649
93.5234638564001
93.5231229788189
93.6296329070908
93.6819130605004
93.5975228914817
93.6734751382084
93.8687970546653
94.0384572524442
94.1014762642683
93.9770091477031
93.9086604025807
94.0286436776569
94.1252006652146
94.2649335891896
94.2243341484516
94.1192250726743
94.150952417988
94.1925137166476
94.0984330560349
94.2401772799545
94.4252629147973
94.3340513305326
94.4868530072062
94.7026188208053
94.6126972518961
94.7071508603731
94.9546307412127
94.9383913126365
94.7734762388121
94.9237852515881
95.1027524551742
95.0462609689736
95.0543016351627
95.3547598107167
95.3574430388837
95.2609252576531
95.3093066061826
95.075976172671
95.2742008210657
95.6340349984225
95.4969315508638
95.480793217906
95.6355905477511
96.0939284574079
96.222215671301
96.184885337899
96.0480709015408
95.8670356747992
95.5830259327535
95.5903944856098
96.0536038102536
96.7794164170691
97.191066946122
97.2657277235663
97.0524295823379
96.8407544334652
96.5981912138628
96.363351967747
96.114660472159
96.375250493768
96.33404357176
95.8544053489503
95.6715216741191
95.595142474534
95.4150617745552
95.3751032447384
95.3445561535308
95.2512491078367
95.0129427504277
94.6189439945671
94.3584045333016
94.4068078155628
94.4433596475766
94.4261178360498
94.3977894853477
94.4272264073532
94.508580583293
94.4754434448627
94.3738906845287
94.3488520066518
94.4120350641002
94.5175265441096
94.5141966873852
94.5118612535172
94.5428945409423
94.5457432133078
94.6667832023104
94.7969028030975
94.7998246241265
94.6137306613727
94.4497944369187
94.6347091940859
94.6677499997974
94.710959748881
94.6034101777574
94.5246535152691
94.4567818868584
94.5769226585558
94.7628766084183
94.9641409298592
95.0181702916118
94.9994253699622
95.0170611992985
94.9449578963868
95.1417989061905
95.3229604991914
95.338688593954
95.3880219559698
95.403687303207
95.4557968917005
95.4860397571618
95.7204354468627
95.941104275916
96.1028639552387
96.155475272328
96.2931838635981
96.5416525443983
96.6599171242347
96.7146489097665
97.0141512280759
96.9799740006688
97.041243246859
97.0356022746523
97.1324853267938
97.2010325554781
97.392879356817
97.3981439893684
97.2305941635374
96.8695103262777
96.8711928253675
96.9923963317197
96.7563941143674
96.960978246134
97.0900858786475
96.5747734192889
96.5354473539869
96.7814496563754
96.6146876631957
96.310278645031
96.3634406797176
96.4906138357355
96.542331002895
96.3289719123901
96.1864236973839
96.551234617519
96.401260839321
96.0931356993532
96.2326356939168
96.4960875798402
96.6172160314985
96.7960221735714
97.1645463769754
97.2313457959711
97.3943266489438
97.1112885920193
96.744986044378
96.6821901923896
96.6484784004804
96.4952855096028
96.4594349513034
96.381053448777
96.4589077665272
96.3122023738768
96.1707555418043
96.0665331004259
95.9414403625259
95.7494588246498
95.7876601255142
95.9153044973767
95.7779192451588
95.633095343252
95.6157497351044
95.5248966249262
95.3728758440888
95.3714774147838
95.367989647213
95.3105050744407
95.4216024663066
95.3466216402841
95.2788732975444
95.3414644404317
95.3738406030498
95.2133648481748
95.049046928703
95.0651271790933
95.1574222816102
95.12724746926
95.1153811109067
95.0217990282298
95.0183827725621
95.0561419953789
94.956910498453
94.8509849622424
94.9356315981888
94.9514895492639
94.9645564940627
95.0319094927575
95.0161670473282
94.929469854575
94.9229474745647
94.9148836268448
94.9387019632062
94.9204932862863
94.8903081656263
94.8830313698874
94.9434451254654
94.9382828623404
94.8751102386022
94.8949563786768
94.9542841800583
94.9380496824256
94.957640331145
95.0207108595444
94.9944104966542
94.9411221453891
94.9693633651392
94.9181704806117
94.8709337461249
94.8542223019694
94.8653750591943
94.8353127698019
94.8458871320835
94.926173503266
94.98290798294
94.9819204559577
94.9751732654216
94.9808663763816
94.9721400828162
94.9154324640587
94.9720577612006
94.9832136530161
94.9438176364565
94.9312510405187
94.915290043662
94.902382272341
94.9649223470624
95.0170816469872
95.0243316708654
94.9764221432963
94.9482839274197
94.9649582130855
94.960629051795
94.9507820499159
94.955461525347
94.9119899627653
94.8986854855451
94.9348701207568
94.9647821819072
94.9107435667243
94.8641188434507
94.8997173610137
94.8949986240239
94.8440334998831
94.8446439331835
94.8152596675073
94.7633333751928
94.7175799356772
94.714812002127
94.6453776996817
94.5349233633907
94.566396231679
94.5841689234754
94.5106742625872
94.4998315742998
94.4133730038214
94.2907068835605
94.2728275405156
94.2452713848805
94.1674996603413
94.1777166740667
94.0832254717997
93.9542725381402
93.9380163533988
93.9565084838007
93.8648551575559
93.7729962780666
93.6952716801062
93.6474823412001
93.5914911413831
93.4581443184213
93.2879499098411
93.3460970275088
93.2300456550925
93.0391991552424
92.8835732401258
92.698591056798
92.4688810909528
92.2515872549546
91.9447017989838
91.6243151842416
91.4097904567755
91.1973152700103
90.9185541527373
90.6190774446914
90.2200750902543
89.83857437817
89.5658375715998
89.3061203441778
88.8498207654625
88.5272018388473
88.2124513496759
87.8432100668931
87.5306670252261
87.085120403866
86.5988634083642
86.1799913925598
85.6887314905069
85.1974714397904
85.0247406883916
84.7213216259378
84.2829276094422
83.7767834978459
83.2644505357642
82.9498862125425
82.5013308416243
82.0475415140853
81.8071944908308
81.4335669178914
80.8782994510233
80.4151862732026
80.0936107479435
79.7371419866419
79.2202326728215
78.4431977087851
78.055392965886
78.4537691639197
78.1195706860516
77.5666999471224
77.490217776764
77.4340306343296
77.1813218408072
76.9105394614101
76.5499865259448
76.2223379136034
76.5088506893692
76.6175176652745
76.3697462045013
76.1369960112824
76.0295825789446
75.8733932606302
75.775110016187
75.9212766482314
75.7003996994481
75.2681059792895
75.2971779240162
75.378410338082
75.1041570850427
74.7917823915014
74.5462688427833
74.3594188112437
74.1392165203728
73.928217376378
73.7294418203246
73.5884913051145
73.3789992811383
73.1956844651761
73.0771462612499
72.9709095023204
72.8399906626398
72.7354384784734
72.5720838686207
72.4127174898087
72.2740650701964
72.1357335059227
71.7518828207261
71.453641834489
71.8210648334876
71.8724436281564
71.4475558948586
71.3836273500521
71.5708108119199
71.4986591370711
71.442279242638
70.9901774992397
70.1150757370698
71.2860230102272
72.2147102395824
72.3031352825509
72.3840549626678
72.3809392985348
72.6286937931113
72.722431094494
72.6851304395716
72.8323390818021
72.881824956303
74.0022315438337
75.1065144835092
74.9859189236186
74.8657257209063
75.4891903187104
75.7454060788754
75.7423444664293
75.9354917995786
76.2147088262346
76.1765226584464
76.755138441562
77.2793555170971
77.4116142818368
77.8240194577555
78.0211290268034
78.0999880112435
77.9298873952034
77.6152356456251
78.8668256793852
79.8328258364711
79.7900029428957
79.5789072194736
79.5038144698334
79.8167055999235
80.3419071362486
80.3895129828338
80.1986956492457
80.5012535006444
80.9725083710944
81.2451569731226
81.2937280208791
81.3082272522886
81.4155938385608
81.3798147358344
81.2679849443352
81.1337338300223
81.2412234417428
81.5062879385426
81.2825404009921
80.8244960149517
80.5426426276132
80.5211082322483
80.2259949214249
79.6282375634337
79.2446247903537
79.6814818809072
79.6832999720246
79.3520254906039
79.0122950424724
78.8035476126415
78.7671855915342
78.6758576089337
78.5311780544539
78.3547722839929
77.992864604291
77.7472904955951
77.9758621859564
77.8771202520337
77.5341359428014
77.2728047633998
77.0539974754479
76.6789657721808
76.3029081232625
75.9351319175518
75.3913774404181
75.1613354669579
75.038143551409
74.6072156783637
74.1163002032628
73.7323617953368
73.4089104631175
73.0371992752515
72.7650744049027
72.6513828877556
72.4197397050238
72.1870333751849
72.1997779431678
72.1858720257376
72.3759447073004
72.5932691139186
72.5146895758801
72.3743406711754
72.625190005224
72.935766202484
73.0165688525414
73.1144037285303
73.2836445305826
73.4500691526757
73.5481046309809
73.8884361690974
74.292698038443
74.488077529485
74.758703805454
75.0085073249201
75.1171609068841
75.4552788962538
75.9708284647382
76.2785671297897
76.4581489813784
76.6775978186194
76.9519574581972
77.1864572762375
77.4324403309423
77.6840859622993
77.8987436469711
78.1082689318474
78.2327455602904
78.3668503419379
78.6679557223872
78.9384200628665
79.0892449569467
79.1772236810687
79.2715323109767
79.3572723233535
79.436614152115
79.5098511797654
79.5604141667765
79.5819170160727
79.6160812926536
79.6835282603814
79.7210426654633
79.7236218928465
79.7804416405118
79.8337544895766
79.8663113590334
79.9219194335873
79.9856776064007
80.0616428852111
80.154593310238
80.2509208569907
80.3569380599447
80.4695718067521
80.5581480034697
80.6530269279137
80.7549335990886
80.8515189845672
80.9504778582525
81.0054170450002
81.0368042936486
81.0649675729322
81.0876018963015
81.0892892886019
81.0776831212346
81.0461451525216
81.0108392755702
80.9933707969546
80.9489562727982
80.8658261783775
80.7887945300592
80.6976612912691
80.6021118217897
80.5366787971046
80.4814350968887
80.4047510546129
80.3252880900542
80.2493983564029
80.1591712571892
80.0675583682392
79.9913674112586
79.9349091791413
79.8882765912479
79.8406883757205
79.8155474876522
79.8304809932765
79.8737515266543
79.8948247501529
79.9261319942712
80.0002746561072
80.0906317288278
80.1642888168664
80.2567661603895
80.377971792648
80.5015269835302
80.6201830150038
80.7709189689051
80.9230235836091
81.10312933284
81.2907955754631
81.4611181480355
81.6593786237291
81.8748482149705
82.0874695048172
82.3075589873302
82.5355597553751
82.7420783479607
82.9123749768997
83.063905984283
83.2306281949624
83.3641101043066
83.4692358889028
83.5604441465641
83.6147188939575
83.6359895651499
83.6530872345248
83.6856035018412
83.6466500829397
83.5766733437432
83.5169938210045
83.461798413357
83.4109139184211
83.3502429290896
83.2641048149143
83.171425682173
83.0639269594672
82.9448653757233
82.841866436019
82.7007858113895
82.5259717816331
82.3494800691523
82.1493285682532
81.9558114519469
81.7676794435036
81.5409575738784
81.3075960188581
81.0890605645498
80.8569367300385
80.5800131819393
80.3024693766313
80.0386582640129
79.7709962827075
79.5134718727801
79.2339309238453
78.9379581899811
78.6566602509927
78.3954438339374
78.15155204309
77.926060789825
77.673999966784
77.4288238495575
77.2030226684071
76.9539221247284
76.7041963449158
76.4556603640194
76.1664283254293
75.856783691906
75.5460969158697
75.2141498504795
74.8570451720094
74.5373979892307
74.2376688814794
73.9492236665105
73.6427339338221
73.3282039487823
73.0094909490441
72.7129737694913
72.4477262004181
72.1695089487777
71.8981550225637
71.6420886092062
71.3637324836921
71.0862994800177
70.8313557938583
70.5826167194842
70.3105913833335
70.0663912292265
69.816013359552
69.5660479365004
69.3465203700818
69.1509166044326
68.956827172495
68.7999527712073
68.7077454872015
68.6285347624177
68.5569989422552
68.5099048535613
68.4621170919129
68.4350467284682
68.3972152664046
68.3837406834422
68.3994645696121
68.4246623272989
68.4581538955836
68.5512993783004
68.6566905208879
68.7676742281431
68.9121661006717
69.0768493878099
69.2799735006335
69.5305862244867
69.8031214751823
70.1240525291528
70.4364832676199
70.7745887771713
71.1461794051629
71.5288462097498
71.8972911519061
72.2373185656749
72.5826410118664
72.9371025542574
73.286174481951
73.6387618179639
73.9575664130416
74.2587411839781
74.561230177069
74.871076520352
75.1476755681461
75.41341564087
75.667458336726
75.907311190987
76.1082141229853
76.2660161473141
76.4309200273579
76.6447129486217
76.8309121242852
76.9733209293042
77.1267253401865
77.3338002798107
77.5346131054028
77.7261614541901
77.919573738459
78.1389235969079
78.3670923527444
78.6263078177717
78.9030279941707
79.1641148351406
79.4072660592735
79.6745987039185
79.9417069482938
80.165054185381
80.3582422832502
80.552779059498
80.7669911442831
80.9825894221034
81.1331343417012
81.267898013612
81.4130853728985
81.5268742180859
81.5841068380811
81.6262560605369
81.7161144814031
81.7697701557686
81.7735052628184
81.7925509704624
81.7998696725327
81.8322331200685
81.8873584545509
81.9419009658689
81.9938368238139
82.0900709897329
82.2166701964971
82.3356670406267
82.4012970939951
82.3837769511638
82.3701485295726
82.4258082517122
82.4589223231502
82.4464267860692
82.3960142507565
82.3415114048923
82.2877848147854
82.2765457925684
82.2278706350998
82.1647828790727
82.0930456248113
82.0097103305231
81.9156372300128
81.8270600541563
81.7216282909701
81.6318075937333
81.5691503251668
81.5555875417189
81.5324332878404
81.5006390276236
81.4550278310965
81.4816176935981
81.5158271360396
81.5229092411855
81.5284086123295
81.5560681544412
81.5641560046074
81.5138305732921
81.4400993815703
81.3676642144583
81.2373632709814
81.118618823417
80.9898073041915
80.8568949765131
80.7369408948378
80.6365868594913
80.5125210058444
80.4125347391748
80.3236097065493
80.1966888343205
80.0570593581389
79.9320397695388
79.796350555279
79.6766310372273
79.5510355984575
79.4026293479366
79.2638622430296
79.1325036852476
78.988407187835
78.8755324180773
78.769692897509
78.7059747540186
78.6206672207414
78.5319787788074
78.4296364275802
78.3561328950876
78.3094011100066
78.2552843713601
78.1938824618803
78.1001842000225
77.9736448414832
77.8637501623868
77.7546944752732
77.6757545328226
77.6008516712426
77.5770605047714
77.648453320447
77.7114719417563
77.7185756130322
77.6790908526682
77.6090777939228
77.5278990541454
77.4275456355997
77.3787152184901
77.3698381547426
77.3174373091564
77.2529335257342
77.1841802383202
77.0860039889852
77.0303511444486
76.9255869461528
76.8450661145364
76.7733439918309
76.6812602933517
76.5815582795898
76.5127477629288
76.3976051339877
76.2871446380143
76.1848565525425
76.0643723020311
75.9221209028828
75.7557149504005
75.5860312931087
75.4300765103175
75.2812418894692
75.1754103000082
75.0593410749024
74.9416049397478
74.8448515418398
74.7339396470451
74.5794149960688
74.4368606643097
74.2823022422042
74.1445906735608
73.9678694400599
73.7687077151191
73.5892148491331
73.4480181669448
73.3550496944445
73.2754890690856
73.1718561103152
73.1240625175514
73.0738431222148
72.9627184317881
72.8312335763554
72.7326000205728
72.5977578734407
72.4639221477212
72.4025803935766
72.358990164033
72.2031770476766
72.0502243428853
71.9469628970188
71.7967220953275
71.5182793547286
71.706405027721
71.7088926445233
71.4491566205873
71.3047153521225
71.2123449201359
71.0598176088984
70.9313245178858
70.8330655757634
70.7223428364012
70.5824792472959
