1798
3999.43349933624
650.420452594757
1
128
4
96.5070852435393
96.5581444275667
96.4519214072844
96.4942607634776
96.6021226882277
96.5565492419592
96.5267622412413
96.6023970897508
96.586465328404
96.4420388089804
96.3677607349037
96.343181778511
96.4485560463779
96.5695476067013
96.5611867932956
96.5382641892583
96.3925552616036
96.427189586124
96.637834210488
96.615756081033
96.4991954526077
96.5136364426457
96.5164439155738
96.5219667558499
96.5544248399469
96.5312540437372
96.4913658847065
96.4878170234408
96.5449033509633
96.4948686875806
96.511039294971
96.5899591368601
96.6600494745413
96.5666149639029
96.4748044102053
96.4289155191545
96.5017014894952
96.5390849280369
96.4861054052099
96.4982896456833
96.6378481573372
96.5235563052341
96.4161190957682
96.5781217870954
96.6079986304122
96.6018048242751
96.566624195825
96.5432653527302
96.4554543420197
96.2902551204337
96.3526869791411
96.3912516086718
96.4470857899787
96.5504875592505
96.7226847890727
96.7827728506778
96.7015852245054
96.746248854436
96.7123077323733
96.396572998309
96.2484907568031
96.5968559627143
96.720856617387
96.5467284847217
96.3510223417237
96.4511947223919
96.4171648658037
96.3520910656416
96.5091805676627
96.5339195310346
96.8727273794645
96.8318161158879
96.6074942525966
96.6945947131634
96.6919404209214
96.6560926144404
96.4902033864772
96.313573486022
96.526979214496
96.7566871369799
97.0351302695455
97.20662338691
97.0267741548103
96.7633990085266
96.696669237823
96.4760669136601
96.4611397190152
96.7175715654788
96.9138606248392
96.878009760738
96.6490189506891
96.6900462963287
96.730293487859
96.6149400805507
96.4075802707553
96.4326134065523
96.6180177311254
96.90305137517
97.1141082133432
97.197615582345
97.162520958842
96.8809037762888
96.0868934485106
95.8310307533161
96.2516430519055
96.46906954579
97.0472963624941
97.2328550990014
96.9528601131224
97.0623609158937
97.2269028984755
97.10019811746
97.1784949779592
97.1921940816457
96.9359322053253
96.7888902740427
97.1693317685527
97.2766738040714
96.897369779407
96.6768925928054
96.7908153200257
96.8237957940416
96.5960158284907
96.5589655283351
96.6830588791891
96.7782902769718
97.0440465821067
97.028439892378
96.7738864874475
96.938532650161
96.7243839642451
96.3792340562397
96.4562638074015
96.8410208334403
97.082059251345
97.0069513928214
97.0111247284399
97.2247322034558
97.2614633467123
96.8467656610651
96.5626335278401
96.58096670969
96.8729354609768
97.0424572475794
97.0005583740873
96.9158159303571
96.8525163104395
97.0170768068114
97.0980119260744
96.9873272369997
96.9107722413337
96.8987899061044
96.8755921266646
96.6196029051907
96.6124231782158
96.8984768600101
97.1474475807445
97.2404278793108
97.1899387990187
97.0532183354214
97.0283102772558
97.0722991487211
97.0266199870929
96.8789217676101
96.784327892919
96.8269288037322
97.0797856671771
97.2343112765216
97.2397586852905
97.1424250995761
96.9688441146241
96.8832107013456
96.8377010709275
96.7789902357068
96.9937366343135
97.0414639023576
96.9533209363666
97.0060509042788
96.9999207949012
96.9998892150673
96.9466865306881
96.7625882524627
96.7004710201303
96.7063647160629
96.7070636260525
96.5171867218159
96.4422056130406
96.3622133005205
96.3715438535917
96.66221170637
96.8102726549194
96.6907450329601
96.5171557982409
96.3355660984211
96.2154634505285
96.1588326120737
96.2102262126775
96.1172144624127
96.1311966719338
96.1120316446343
96.0098706368072
96.0768016162697
95.9412772052344
95.808424343128
95.81013994142
95.7043182324915
95.6798293547013
95.6388581482744
95.5761881682592
95.6098848860475
95.6924055991368
95.5875293335608
95.4551133914643
95.3883164524132
95.3548597684992
95.2049469738789
95.1089343136738
95.1012453396474
95.089266158804
94.9820359293811
94.9619826780512
94.9875161105512
94.9992883023922
94.9461685365665
94.7905629063975
94.6141211433616
94.6417335074141
94.6049825366882
94.5199675867713
94.3552129170446
94.2639086463596
94.256015527573
94.1829813286467
94.1957068530579
94.256774338777
94.1169444405413
94.0097752042111
93.9371933749719
93.8384296074209
93.6464190700134
93.5592804589759
93.6728421983851
93.7184818777547
93.5640169679289
93.368088844104
93.3679574705338
93.3939708479024
93.1767273953056
93.0223042334752
92.9775608640315
93.0198870966156
92.9439792872835
92.8823505323562
92.8653305553394
92.8120330262992
92.7058285048526
92.6452150731501
92.4865710122721
92.4155656868294
92.4374801065884
92.4238690766597
92.2255965423493
92.0766059764411
92.114128848081
92.0624078265035
92.008169160437
92.0038680046677
91.7233471799037
91.6975425358285
91.7683966836425
91.7217934741068
91.6879691571701
91.6027019309787
91.4637179933919
91.368383399479
91.2217661328452
91.2505347389505
91.2509061868134
91.2500206907738
91.1331018671979
90.9034106604372
90.9310691661117
91.0261491720609
90.9268608570807
90.843250876704
90.5954938831924
90.5242652371595
90.5077335029662
90.4596787015213
90.492816970783
90.4727778604266
90.2784362865449
90.2008985496463
90.0632240652265
90.0338595228186
90.0170582347349
89.9046007680759
89.8309020365714
89.820064467424
89.7809284125104
89.6618999096318
89.5715059549934
89.6454332884311
89.6466832920473
89.4773479553599
89.2260356468856
89.0727432559594
89.1632307060354
89.3637831804214
89.3194935270724
89.2024351841008
89.1174232033445
89.0664130488822
89.0639663720606
88.9959190997843
88.909742584133
88.8629226877435
88.7670245508963
88.7290376333471
88.6653284323348
88.5884643405436
88.5734629887492
88.5927923998231
88.5307070869213
88.4335149687618
88.3068120029996
88.2519915841564
88.2867660883862
88.3223188460788
88.2221458223602
88.170095307945
88.1626826631531
88.1644765386085
88.0826825221958
88.0954421351257
88.1224219298978
88.0372985297245
87.9012395042734
87.8557633460658
87.7532980990142
87.7974019279552
87.7955033748347
87.6896931093941
87.615003637045
87.5632116760475
87.5330518286798
87.4811279918456
87.4148603988795
87.4925085655288
87.5542696988019
87.5232838462069
87.5174187545227
87.4947407084167
87.3975439567788
87.328392050788
87.2646825323264
87.3296528837262
87.3601935053485
87.3915966403349
87.413545218399
87.3652910710519
87.2354912908833
87.2342899643642
87.2034138718461
87.1575346701578
87.1098600105497
87.0807513605843
87.0977767458932
87.1828379979403
87.1954221346824
87.1456121919305
87.1134513023226
87.1128218735742
87.065104862276
87.0400001468102
87.0029496789506
87.1175790195445
87.1559421281221
87.0924203403869
86.9993401480686
86.9938892929744
86.9193960479069
86.915749177989
86.9035514516462
86.8350197829056
86.8486030330143
86.9283500961888
86.9282732674557
87.0052134625167
87.0456837061317
87.004308778516
86.8910148223292
86.8973954870192
86.8542789287952
86.8385733952558
86.8315913639137
87.0094431989252
87.0587049211745
86.9565847702649
86.866130970187
86.8089321754286
86.8459303554115
86.9625578484129
86.9747788930947
86.8915490930825
86.8265713070836
86.9134687479153
86.824668418703
86.7830607512153
86.9389701484278
87.0434346063644
87.0181241540716
87.0212103298499
87.0683059732001
87.1545415473111
87.0757113215954
86.9643612846002
86.9693692287733
86.9497147100919
86.9748048736074
87.0249270014115
86.9939748739272
87.0487166931634
87.0504812186899
87.0958031097253
87.1166382332779
87.1577614569231
87.1527194084078
87.1437716213426
87.1772055605493
87.2235412044302
87.2464588684675
87.3204786114779
87.3115106978656
87.3385319727307
87.398466305167
87.3463569421272
87.258990543532
87.3596538273967
87.4409856685389
87.431813399805
87.4372344631775
87.4410035074617
87.4672230797632
87.5761944546614
87.6473251687555
87.6713928143826
87.7364144663237
87.8816591256273
87.8409452089779
87.7650308437421
87.7679628650117
87.8567333273161
87.9705590841618
88.0334026410445
88.0609139213546
87.9893560148816
87.9516294229771
88.0534290780282
88.0891041039542
88.0783919738907
88.1639020203781
88.2494447505789
88.2090876555115
88.1854570872396
88.2669302083184
88.3891252656618
88.4483123258591
88.4585779934235
88.4269787431371
88.4441036278718
88.5245461083442
88.631106193845
88.6524960276659
88.6352247248229
88.6586391031014
88.6640061490742
88.7741815576691
88.8287859742212
88.7932761999192
88.8717293357422
88.8419052094492
88.8325713573892
88.8186874989979
88.8563059724145
88.9069181446958
88.9886153587552
88.9693133244855
88.9207882659293
88.979153079067
89.0900594592202
89.157152097326
89.1981545304307
89.2290152731682
89.3152653916319
89.2600909773573
89.1871499640844
89.2020651027711
89.3357760065471
89.3690201731969
89.3751080295564
89.411689072742
89.4421703213116
89.4262772637053
89.4646744388612
89.466711450819
89.4636614303601
89.5135159839729
89.5970120650829
89.6112462557922
89.6134167781046
89.6853292121098
89.8043659557105
89.8514561310134
89.853508855495
89.8538277291325
89.7941176184648
89.7799049667811
89.8799753367244
90.0120245438012
90.0896362821403
90.0145798787276
90.0020158908841
90.1304179884464
90.1750245881143
90.1387172053615
90.0975158793466
90.1327309465534
90.2407865673421
90.2926252140799
90.3565089036794
90.3644837190275
90.2923917511103
90.2863675339124
90.3576666016208
90.3861448871219
90.3401719613046
90.329970361094
90.3527510657376
90.3687145608974
90.4396587161241
90.4546743829561
90.3772826235917
90.2941654660379
90.2452495580926
90.2879953500144
90.3166240827649
90.2971925047112
90.2340407055937
90.145402854331
90.1209275793897
90.0569565544526
90.0014827583351
89.9614450830559
89.9177657408785
89.8367705815453
89.8079669437665
89.8092931642557
89.7245774025802
89.6756709469865
89.7237109545767
89.7394967536236
89.6632027754181
89.6125585831659
89.6370498069831
89.6472996749511
89.6328044806175
89.5892978946832
89.5443668631131
89.5152742433324
89.4129815938861
89.2933766436123
89.3098791206238
89.3544861596117
89.3343172735631
89.3716144874341
89.4286386797768
89.3965420999256
89.3991499007106
89.4666727864363
89.5409857262048
89.5640562224186
89.6409346617173
89.7858500003314
89.8543123759977
89.8540666085971
89.8542702780973
89.8820679830149
89.9846802636493
90.0543766535781
90.1244420735421
90.1554143030511
90.1980453565024
90.254507324272
90.3172930515075
90.2781897366822
90.2489397195809
90.3164062033677
90.361859183215
90.366341595049
90.3950977838953
90.4085422110364
90.4373270742416
90.4348268344663
90.4826545329925
90.5065909778575
90.4449714586328
90.4898673724595
90.59498118456
90.6116774258463
90.591473724341
90.6223590448869
90.6999728701927
90.7211569067198
90.7091138716346
90.7818746524154
90.8678923092143
90.9353884604466
91.0410998568895
91.0815923569678
91.0724346467509
91.1364787421904
91.2231769409612
91.3177455308676
91.3498632551742
91.3714088335499
91.4249799715877
91.4909685886957
91.5601245756673
91.5361656563818
91.497783770855
91.5693429646615
91.6431925719434
91.6878060024097
91.7473363833855
91.7596590743229
91.7626062162903
91.8251235112296
91.8761730077295
91.8735768264792
91.9187324187328
91.9412213205683
91.9458688600134
91.9430198643679
91.9279639572192
91.9643446504708
92.0181409252444
92.0967845670853
92.1647988726764
92.1628497606307
92.1416080974736
92.1715310408718
92.1810214895781
92.1916040246572
92.216682946311
92.1921159095524
92.2164292690035
92.2910207169936
92.3013614433349
92.3321178048758
92.3600326180446
92.3597779830874
92.3550621834483
92.4155014971945
92.4609006904631
92.4467825062103
92.4968951900685
92.5367628869383
92.5458151154198
92.5170197422983
92.5200599984562
92.5491548525647
92.522916331772
92.5524673525329
92.5941295289595
92.6064142294475
92.6636197235886
92.724084339929
92.7498284051692
92.7599126212887
92.7712038230189
92.7245834973424
92.6788615295476
92.7247337150082
92.7783517734497
92.8174911126301
92.817636574176
92.823739673199
92.7861358943327
92.7911258302261
92.894927268786
92.9074817252122
92.881888093007
92.9347049945023
92.9855185667555
92.9544405352939
92.9108117524903
92.9166923797993
92.9307443202636
92.9796350761229
93.0431224496056
93.0690632504352
93.0650000202824
93.0835414210259
93.1152729483805
93.1144393521792
93.1465927412744
93.1758133342368
93.1821796755865
93.2188269804428
93.2036058483889
93.1714879186282
93.1401582540314
93.1357948129481
93.1698489539691
93.1562323364594
93.1785764467492
93.2257606567696
93.1773890159633
93.1293312397949
93.1772329896001
93.2325550383949
93.1943957846909
93.176790126547
93.1971303093806
93.1756716915858
93.2052195416724
93.2565123113171
93.2693586202305
93.3372709963966
93.3271345615659
93.2554299827222
93.3482729210078
93.5036419815015
93.4892891742675
93.4479365242784
93.4651190792678
93.52366324497
93.5913791937091
93.6230770776163
93.6107590164771
93.5835073617262
93.5503621320289
93.5558099540036
93.6596886293663
93.7479704809866
93.7731647904514
93.8218461474181
93.840732770599
93.8423745389833
93.7954886006947
93.7332247818308
93.8211170993149
93.9303639343112
93.9031603100236
93.8851589289062
93.923703734307
93.9819474116849
93.97287980125
94.038796980402
94.1920503175703
94.233266611118
94.1657698685668
94.1433408547498
94.1316872837871
94.0838764283899
94.1793367852666
94.2439552008605
94.2119591027733
94.2515041593795
94.29688864551
94.2724871392711
94.3460188742224
94.3924451050721
94.3227092785331
94.3140768676006
94.3612304107089
94.4099914001944
94.3349173641949
94.2485218531948
94.3526452229578
94.4835582070403
94.4478859752385
94.4683156750077
94.5241537272568
94.503583329785
94.5438561290845
94.6215620631292
94.6254326635878
94.5742169805163
94.5626683596042
94.5056771110453
94.4632125801218
94.5711043176701
94.6445850176066
94.618028002652
94.6006460321781
94.612693012091
94.5779973687517
94.6360252179978
94.8011637695252
94.7914390372364
94.6128543716799
94.5596344952994
94.6534274533723
94.7275882188424
94.70716391352
94.7579965017398
94.7848968836688
94.7616209090635
94.7631471044451
94.8265233664804
94.7581302649631
94.7317623970509
94.7920223105506
94.8252309167545
94.8016408442624
94.8498035923603
94.9274961040835
94.8289486259888
94.8079812120236
94.8689780164101
94.8589865361955
94.8219477900263
94.8094733467358
94.8269967148578
94.7814858222512
94.755649830684
94.7996941675385
94.8330186534182
94.8516411529785
94.8749105835561
94.9031006009715
94.9083928546029
94.9166426398687
94.9339950789742
94.9567464469386
94.9817409953512
94.9663405189142
94.9645917437029
94.9483228769852
94.9187213879521
94.9279671573709
94.9508896456207
95.0308710850436
95.1062185629084
95.0838575208861
95.0465802662425
95.0648700670113
95.009096868695
94.9670706070175
95.00796584116
95.0454094409806
95.0993908334021
95.1019972166149
95.1053019054611
95.07480046393
95.0304017403362
94.9897481484529
94.972075306684
95.0120337829905
95.0807364936458
95.1285432721215
95.1534670745559
95.1162900747091
95.0291136455301
94.9628836251116
94.9402489446709
94.9202399268132
94.8719743249803
94.8486487337815
94.8207509098706
94.8104040108904
94.8902884521611
94.9524225183869
94.9920118261091
95.1026674116602
95.1864258702062
95.176913262966
95.1589007687176
95.1451651296519
95.2390158777234
95.4142911812234
95.4690406601354
95.3645496097904
95.1611382577628
94.9527064048626
94.8960250140891
94.9172543392784
94.9443036021626
95.0119682570896
95.0548264464195
95.050346551573
95.0681645998573
95.0850205824044
95.1438024858545
95.2155994888254
95.0853779034471
94.7838862628464
94.6356834388735
94.703616643245
94.7516863315646
94.7875000488501
94.8846865709046
94.9390157427086
94.9701324561526
94.9407322103614
94.9059269761818
94.877576121116
94.9450162423096
95.0784256434567
95.0646241038513
94.9245571193338
94.913853205908
95.0367999218642
95.0744605959055
95.0675530709181
95.1128757565338
95.177729865108
95.085832802104
94.995274334834
95.0521743232656
95.1229099609292
95.2929887178623
95.475295617089
95.5715929603689
95.5588213741076
95.5207440406836
95.5202007172362
95.6475803004115
95.8233921834537
95.9703035364974
95.9641507710855
95.9276829313831
95.9990343013553
96.032354920183
95.9545399099943
95.8826350548096
95.8720472535966
96.0182208920594
96.1904271475812
96.3177352801347
96.4484115262344
96.464139779596
96.2741380450235
96.2915619373415
96.3860309186177
96.2215394603024
96.0933079924618
96.3746962928209
96.6973930114394
96.6159025996946
96.5440998959264
96.7327469539638
96.8464557940962
96.7375445346414
96.7136564951827
96.7393305339784
96.7181723486863
96.8145433071332
97.1003333638414
97.3164242446277
97.1226722108889
97.1712854692232
97.338577592337
97.1612653918528
97.0124736616357
97.1044772441776
97.4213270866481
97.6432966561289
97.7460177298072
97.84936333982
97.5948833981692
97.4170248609148
97.772978174893
97.7330461010861
97.6217565758922
98.0328374521502
98.1648843906627
98.2509463284976
98.0244152687342
97.5470875015207
97.677258091987
98.252116107352
98.4003405751838
98.498434493222
99.0749392817258
99.4429827993198
99.3090138949172
99.2634013207481
98.8595264940042
98.5835680072464
98.6298936280227
98.7384963811131
98.6425365608707
98.2313076840174
98.0561251568825
97.8785691978926
97.4868123342349
97.48386442192
97.7250856647962
97.7935676085092
97.5213581594495
97.1865068936732
97.0473429139063
96.8779655087222
96.6941860990277
96.7620842095515
96.7813661627915
96.6817062330601
96.5963594729446
96.5277885213559
96.5214290189989
96.5274415959546
96.388924602386
96.3384663217425
96.5074169543822
96.7318522080624
96.7991577287842
96.7146246436805
96.6744069818019
96.7315778854257
96.7698337873167
96.7542884472065
96.5460892490243
96.3770423400376
96.4336550606382
96.5103290556677
96.6200974316112
96.8166210275681
96.8037316215151
96.6797647981274
96.688996552558
96.7669699887753
96.9245013764409
97.0263214379112
97.0397376899732
97.0800806183584
97.0792742157392
97.1696498895241
97.1463474644122
97.0272200792132
96.9817447800951
97.2045703064598
97.4869712491115
97.5740832839752
97.6654830914612
97.7157015622088
97.6569333235205
98.0002127386331
98.2307092862164
98.2485255727799
98.3880573545776
98.3642321511189
98.5550152775021
98.7898231680695
98.6368411058378
98.7752098329242
98.9171418856472
98.8741302056455
98.789667006499
99.1347343415024
99.4249022439334
99.1461198461983
98.9104826004328
98.951886576919
98.7499222629862
98.3660926826873
98.3765265449183
98.8199941019547
98.9740625271331
98.6746317924705
98.3704494110226
98.4099860355619
98.5588159521197
98.4502500558132
98.1381829679246
98.1062709823121
98.2221024347957
98.28642285979
98.2226992812054
98.2749140794252
98.5223918740847
98.3588701973587
98.3163181601552
99.0620237974442
99.3473091937403
99.1337710951862
99.045817148127
98.9583631132624
98.8430684778376
98.8183196178227
98.6358531014386
98.3353969781132
98.2953266640377
98.437031337033
98.3023182866396
98.0649698469606
98.0131312040923
98.0248263811739
98.015907610552
98.0109871078104
98.0142120110568
97.9671463856617
97.6864009660423
97.464459519076
97.4579013881316
97.5354952080563
97.6003520052801
97.5251236144495
97.2298375379548
97.1064322675843
97.1592514530914
97.1986642274547
97.2917356139143
97.321006130408
97.2358045457539
97.1274417423072
97.0931320968293
97.0817616135551
96.9638607082092
96.9043407186106
96.9290333362188
96.9692139482402
96.9510658559041
96.9652121233862
96.9866300169246
96.9239064459607
96.8787292112146
96.9217192330059
96.9999036135601
97.039162969958
96.9804681952546
96.8411308446182
96.7879806107626
96.8486296071577
96.8630723011138
96.9126304300696
96.9474605403684
96.9329503710541
96.9112773431166
96.8087067011384
96.7065783534855
96.7351962540531
96.7900893399955
96.762136704833
96.7582234394937
96.8339429374315
96.8454839670126
96.7969640029448
96.7791844003766
96.8078394387753
96.8075175457265
96.7704454029466
96.7510940006276
96.6816110635466
96.6474062224419
96.7980534972299
96.9120300174353
96.8893545045191
96.8441055403396
96.8496391484559
96.7891841804051
96.6840929516592
96.7277345954797
96.8284367632057
96.8157391512396
96.7719491668716
96.7676512042631
96.8032850726381
96.8864365261526
96.9101084516296
96.8532211498748
96.775366867045
96.7183383040053
96.7012161657066
96.7025307860072
96.6993705487858
96.6611156217364
96.6102114417068
96.584291309818
96.5997369365431
96.6159360146538
96.6078152819963
96.6358634574386
96.6743676765696
96.6458771048037
96.6081420711176
96.5711832571005
96.4691277510223
96.4132177906236
96.428640990022
96.4193522897406
96.3290529371746
96.1766842376768
96.1726779352624
96.2975828657545
96.2946799206232
96.2822565673132
96.1867276351741
96.0359282907175
96.0200850837041
95.9824204874812
95.9150335788059
95.9022628417532
95.8295681496114
95.7225353642574
95.7127134017049
95.7036913543424
95.6510964264129
95.6163840900527
95.5319183351818
95.401210002795
95.3279321751189
95.1900146441151
95.0532264280414
95.1274582816552
95.1324941540825
95.0158366930254
94.8814451802619
94.6385331839352
94.3748235071527
94.1220715607011
93.8212334170465
93.5678964483818
93.4834447662382
93.3670624587334
93.1408418651561
92.83673754253
92.4872711304768
92.1138043628251
91.7904187413901
91.4405343774778
91.066979745516
90.8539590185402
90.6842684638927
90.4392280698125
90.2015310804749
89.7715906392002
89.2895631640783
88.8603329685489
88.4002753042892
88.036951915914
87.8729648536717
87.6617060004585
87.3157563100257
86.8954386406973
86.4564559595383
86.1511588713612
85.8306451466432
85.4910046656722
85.1854488044667
84.8693136669432
84.5139039558186
84.1296019538403
83.7507490805904
83.371892885984
82.9140078313222
82.3663529831024
82.0055808449003
82.1021052662998
82.0483349726969
81.7915159258751
81.564590818473
81.4277976968552
81.2504315478042
80.9924418180511
80.6532741859656
80.4342784709076
80.5746176493005
80.6830371960755
80.5511480147918
80.3538896075657
80.2148224411921
80.104931029838
80.0038298773581
79.9797132731776
79.8641952318111
79.6830844812123
79.6404985294945
79.6351064642887
79.4816151456782
79.2624754041522
79.0546030344281
78.8820083585438
78.7112566105814
78.5386070029353
78.3869314899226
78.2706804230207
78.1509213505977
78.025928514096
77.9453229220519
77.8661902974752
77.7481643056618
77.6443817110334
77.5675991496318
77.4778481064259
77.3619405920414
77.20991625605
77.0118187349669
76.8626458717997
76.9724192041404
77.0222843228363
76.8699706945584
76.7864992908257
76.8255830586452
76.8148260800874
76.7474552189323
76.4949070856151
76.207080628047
76.7208761185263
77.3777758516358
77.6145215010487
77.7002107328244
77.7716541949257
77.8910684346724
77.9523621267684
78.010960750003
78.1643978635915
78.3472209347871
78.9897521961395
79.7420328315358
79.9685509230594
80.0156090121526
80.2269015852268
80.4024343307125
80.4928926734465
80.6320932379957
80.7963389134027
80.9499499941657
81.3479421551561
81.7363552542658
81.9169413562492
82.1378682626054
82.2463210292557
82.3167663362598
82.3168292031467
82.3356580533963
82.9905937910284
83.6494127277775
83.8009193569811
83.7605416543315
83.7063400461568
83.8684294853599
84.190720996521
84.3046961534323
84.2978234982877
84.4793329690086
84.7603418341758
84.9771814987163
85.0676868549664
85.1065647754284
85.1467928773536
85.1049706858289
85.0286904182817
84.988977374455
85.031680018991
85.1340076465624
85.018493349843
84.7301888328545
84.4595946744253
84.3120639441903
84.1094903241213
83.7533280848627
83.4664900639303
83.5913337415671
83.6619905315679
83.4639503796398
83.2315343457867
83.0427325982175
82.9457480607801
82.825009475004
82.6805068044677
82.5099474922328
82.2775551995133
82.1029712592092
82.1659775718874
82.1216358272915
81.9089169430665
81.6729836977107
81.4115545243468
81.1027695233556
80.7825647399447
80.4463596837008
80.0584444932233
79.8208276567988
79.6614167481336
79.375059539778
79.001134463351
78.6214066904528
78.3162150694245
78.0265481908261
77.7962507528688
77.6660642483814
77.5342590953123
77.3992731160024
77.3829896465587
77.3772921123304
77.4546811479135
77.6137324717549
77.6520218132255
77.6414285696387
77.7742716987894
77.9686436995653
78.1057316009396
78.244048614601
78.3612620347674
78.4737199453509
78.6203746582375
78.861914238879
79.135621438141
79.3256642514749
79.5134602587423
79.702662263711
79.8860227927159
80.1619789615707
80.4935582454307
80.7411120728155
80.9326880714554
81.133249341259
81.3440312700912
81.5442567498897
81.7291217827126
81.9095624211976
82.0800878929495
82.231864167061
82.3590060741547
82.4844079150471
82.6800597647695
82.8899670900544
83.0330346025984
83.117288214617
83.2083097782999
83.2747623592621
83.3187818562608
83.3651858920682
83.4131060770568
83.4507720103979
83.4701350575209
83.4902830118664
83.5225511047974
83.5502611067213
83.5815079940925
83.6278457887987
83.6894479223437
83.7509337154408
83.7965516229386
83.8517199055484
83.9264103889283
83.9972429594307
84.0807694814935
84.1746424300729
84.2448950245541
84.3195499197419
84.4069773614621
84.4711749457391
84.5261772429589
84.5745615194217
84.6136902818129
84.6594996996012
84.6975608700559
84.6804370388955
84.6423472789769
84.6345201705996
84.6219377523635
84.5886687487137
84.5268517430289
84.4394987249331
84.3597849939925
84.3013515124165
84.2544921500366
84.1943437324332
84.1125727431063
84.0324696159399
83.9712326698263
83.9107092097107
83.8435040524955
83.794088019273
83.7432977906361
83.6721936272387
83.6345044393582
83.6343941807042
83.6586659304189
83.6646095182294
83.6824963462866
83.7396823084581
83.7997633461569
83.8654083824155
83.9446509930829
84.0372448479521
84.1284816992662
84.2185345048423
84.3244488581836
84.4460780398463
84.5825618709082
84.7270675088218
84.8896668916107
85.0586144578027
85.231314393219
85.3994466045382
85.5560944966133
85.7110837639573
85.8846757113641
86.0508320582394
86.2214466723598
86.4079880042867
86.5434021009766
86.632171463195
86.740492449726
86.8401911090866
86.9268295830946
86.9859310977859
86.9972143548475
86.9897662515221
86.9866175311146
86.9670753324668
86.9093230415572
86.8506246654296
86.8059207790446
86.765711613843
86.7213956678507
86.6545869301832
86.5666142895191
86.4864830287325
86.3982701510602
86.2807287664565
86.1472388251828
86.0281161442793
85.8967415911339
85.7310709029862
85.5531865759044
85.3862362662283
85.2181873738325
85.014473050545
84.8136355222579
84.60891690336
84.377005315695
84.1598478661415
83.9556545437623
83.7336959520644
83.4866006502519
83.2243351980542
82.9928437607407
82.7905945671345
82.5748194977082
82.351439822727
82.1391003670665
81.929859464368
81.7387398571166
81.549790523845
81.3568187126332
81.1540895297444
80.9125520752532
80.6622967356584
80.4119262273158
80.151145846806
79.9061801750686
79.6567588534596
79.3972349827306
79.1513937035137
78.9135442001249
78.6408164339895
78.3852200902162
78.1276656625862
77.9071335563433
77.7030961528249
77.4749043463455
77.2424235973982
77.0290131554444
76.8335638635522
76.6210529405063
76.37945439968
76.1729519181273
75.9693333588713
75.757335580604
75.5621891283114
75.3920351628037
75.2123284252715
75.0424659169043
74.8833051227538
74.7582925097663
74.669995348912
74.6134538564425
74.5559763365757
74.5235225245588
74.509288005583
74.4797286296959
74.43834036385
74.4232836895503
74.441104737082
74.4809495715628
74.5113628204706
74.5806465844588
74.677706654101
74.7810689301284
74.8936446724613
75.0422936622359
75.2217089801376
75.4261867237521
75.6411726012353
75.8950661306156
76.1613259884035
76.4437496349445
76.7431020869228
77.0516844783185
77.3487695651572
77.62917756324
77.8851892075715
78.1507724626868
78.4371669107109
78.7156523585083
78.9714053871999
79.2320649274453
79.4861655225925
79.7451867993274
79.9767461976824
80.1841421773812
80.3651882369591
80.5421567156695
80.7422733822502
80.9132463326239
81.0320526183958
81.1925039511167
81.3575205497945
81.4825918896769
81.5970984646052
81.7435730732232
81.9001243199971
82.0598643136406
82.2226767251479
82.4099336393111
82.5938361792117
82.7894857981276
83.0086287757844
83.2294100450269
83.4370090118676
83.6432274263648
83.872607751813
84.0707775346607
84.2152972534185
84.395668249029
84.5557158095476
84.6787086290761
84.8096120681538
84.9090068451638
85.0153247536206
85.1388293189523
85.2145173100214
85.2668068182228
85.2918363094881
85.2971617304213
85.3107751525469
85.2973533942019
85.2961015017888
85.3324944895992
85.3862488561287
85.4306789507419
85.4455895484678
85.549682011538
85.6948631365267
85.7529435580549
85.7712386372109
85.8054751288908
85.8625898642226
85.9050915644597
85.8795549487358
85.8507084182549
85.8451937072153
85.8093810959669
85.7814046531016
85.7573610374001
85.6981931181675
85.6264813160868
85.5691563572936
85.5193602334759
85.4166941209764
85.3266184294461
85.2496033057882
85.2007840054791
85.1360316749627
85.0590583463338
85.0231009178838
85.0072789861582
85.023766545673
85.0531265816862
85.0800787158249
85.0731716859062
85.0827674589793
85.1226746820865
85.110231422007
85.0626830381418
85.0061859473633
84.9543126797136
84.8625721178218
84.7457294799043
84.6166639488075
84.514082178208
84.3919479307145
84.2867333463429
84.2261080216248
84.1736331097049
84.0915442440428
83.9957748453791
83.8833690858306
83.7845723567866
83.7310824451377
83.6614008906651
83.5286307088865
83.3765520588254
83.2529733726012
83.1596470030631
83.059282038902
82.9383460654427
82.8700471450145
82.8407057241479
82.8220488847396
82.7733367442929
82.6742027228114
82.592207693383
82.5524069409882
82.5326119890276
82.4791444767778
82.396734039105
82.3120628335036
82.2242603261456
82.1343933028768
82.0602059801533
82.0206836920088
81.989841908051
82.0016665038291
82.0406159739931
82.0525793371623
82.036594596581
81.9949666496355
81.973715931767
81.9493355844594
81.8970452011223
81.8153293355061
81.7602104705823
81.7274864144347
81.6370640049046
81.5272355015485
81.4777981607537
81.4344485389286
81.3884958707288
81.352310701353
81.2930098715159
81.1858615505549
81.0817963616992
81.0150068306564
80.9559968990063
80.859393976458
80.749062321699
80.6196485732881
80.5047467612398
80.3808757146439
80.2671446056746
80.1443919097689
80.0484296057114
79.9552548667072
79.8391495194522
79.7278766765375
79.6911819913005
79.5890769879677
79.4603186245433
79.3526895018663
79.2424706637294
79.0883399622871
78.918987306147
78.7628549746022
78.6440189947639
78.5030463900571
78.3892071460559
78.2964075874144
78.2428393232034
78.1702307482643
78.114712268538
78.0416249074967
77.9311356357938
77.7878515255202
77.7026138910309
77.6070796688485
77.5483625143782
77.4602109336806
77.3664372694685
77.2714068578292
77.0829431592839
76.7995653025525
77.0513276239228
77.1527607481241
76.8844731906214
76.7909962818879
76.6517418019142
76.4536853724375
76.3497391081947
76.2393280132506
76.1684622973734
76.0690492616069
