1798
3999.43349933624
650.420452594757
1
128
4
96.2321901280997
96.2503171547457
96.2487124650268
96.303582131455
96.2686359598437
96.1641007514681
96.1002680682273
96.1276827221897
96.125092345449
96.1850506443742
96.2272442957618
96.248065997356
96.2923254112031
96.3642482820779
96.2983547616305
96.1921978595043
96.1516521498543
96.2709731124255
96.2999281615573
96.2661434231624
96.2774495619287
96.2480767995493
96.2179940719012
96.2840534677149
96.2402843866578
96.2062549600782
96.1592348634214
96.1819060137405
96.2749798337291
96.3128374709046
96.1997815791961
96.195787361334
96.2869510623087
96.3319060485407
96.3232746063468
96.2903428481256
96.2754362309288
96.2587830180731
96.2006129927819
96.2267347217008
96.2624713745288
96.299200608892
96.284804730916
96.3361992363383
96.3109048946854
96.2886112708131
96.3396165838783
96.3263627286196
96.2950648257721
96.3115591830126
96.3325486271331
96.4140304706917
96.3153466731935
96.1779119642746
96.2435608124076
96.4154772028466
96.4647351152562
96.3499589271089
96.2761382383907
96.3586215519325
96.3674968030158
96.3754519455359
96.4128145074356
96.3883767478219
96.2566179649918
96.3011235940998
96.4039576600123
96.3953224766202
96.3993796150483
96.3798122498231
96.3018455784408
96.4368542461002
96.5022782468798
96.4473152592124
96.2963511255476
96.352876341352
96.6231645809292
96.7007640264797
96.2003229354955
95.9941750146045
96.0726025114247
96.3655806831726
96.6459411669537
96.6446848800633
96.4249818404767
96.3661956637544
96.3219874336329
96.2227688167472
96.1817745474693
96.3800413192644
96.5534715811036
96.531409359955
96.4149869676013
96.4529604224547
96.5567602178543
96.4594808281412
96.3393825171383
96.5078355482729
96.4655179441762
96.4091787472232
96.4933692814135
96.5673446530623
96.6415706060296
96.6273781893991
96.5603721126788
96.6063272577626
96.3495170435649
96.1845835608079
96.3182780580743
96.4139353846547
96.376451682684
96.4085735611049
96.549520890291
96.6082471211408
96.5544978503517
96.5480984740272
96.5879427276795
96.5880817354387
96.522233088584
96.5215139609823
96.5524851728399
96.6181948275782
96.5809291045253
96.5009043160001
96.462236899051
96.5886380552101
96.5354459952687
96.4561586682953
96.5052558765016
96.4996996536793
96.5090851788132
96.6384772925308
96.6198999593572
96.4947682998937
96.3379180005667
96.5273539586084
96.6138858323771
96.3232349805765
96.3834588928595
96.6632140688837
96.7273937616954
96.5499660181539
96.451523224318
96.5151985019441
96.593525608381
96.8011812956029
96.8581284221301
96.717526281339
96.608866236786
96.6416167885174
96.6271065944178
96.5882614679759
96.72982334137
96.9303998928918
96.7214634561497
96.4044501418074
96.4356066325667
96.6017838333607
96.7007668678687
96.6913955420236
96.6618464234051
96.7240740520189
96.6591739952648
96.5594359971086
96.6199658034085
96.6710078751709
96.5954513773279
96.5132749544072
96.4531156607236
96.5257629523749
96.6960794373149
96.76036481197
96.6900010053167
96.3820821805145
96.0023596636104
96.2110606596424
96.444031622974
96.2925605150181
96.2856371635814
96.3488593180547
96.3812852081119
96.4502887561584
96.3922386877703
96.2491718516422
96.1221964327871
96.2294071828855
96.2743726965146
96.0562454408676
95.7152514053732
95.7030243510168
95.7144827192374
95.7022430078142
95.8516906442737
95.8425031454356
95.6448869041806
95.6391022190538
95.7027900267648
95.7574414973805
95.5623267406086
95.0632397457471
95.1204393706787
95.4733683107989
95.6596040203184
95.5284803536759
95.067368568654
94.8403542633719
95.0667337233125
95.1324342036655
94.9351780214601
94.7793859851096
94.6830578787363
94.6977128223661
94.8040292099238
94.8676168426117
94.7581607688938
94.7491901154565
94.7057571229457
94.4256672737785
94.3231436767885
94.5461186573053
94.4098694077858
94.0374998167375
93.957259857268
94.026166854968
94.0628593070198
94.0925987358689
94.0057564409178
93.8425526496865
93.8276774580388
93.9491723923705
94.0231822283371
93.6790543247733
93.2580303771445
93.4466427988673
93.6741640663748
93.6823158973052
93.4991841304748
93.4211409268148
93.4109587900671
93.2469560196257
93.0121622805074
92.961197488102
92.9501489107367
92.8970130247604
92.8732698798222
92.8705888802158
92.8013810605966
92.7964627246409
92.7603719928314
92.7225886214734
92.6863173429913
92.6413115347023
92.5730664859767
92.4633824806064
92.2806036405897
92.1419486692632
92.059071078135
92.0709722466309
92.1300025416846
92.1805272618642
92.1200606074499
92.1514684718837
92.1336287435021
91.9531294118556
91.8314056990414
91.8227561923821
91.6282870424625
91.5164377891522
91.5659803450183
91.6272118569624
91.5744702497092
91.5001007471302
91.5039726854631
91.5028684376037
91.3799348735463
91.2816868821631
91.2680506901409
91.2895509359649
91.1135921882164
90.9971190839521
91.0946129807933
91.074455429691
90.9312403718405
90.9034931091456
90.7522583408766
90.7090327533809
90.8133888429212
90.8054315729585
90.6765737188059
90.7012121449609
90.7001163238681
90.6136570166827
90.5596957090467
90.5096113525277
90.2993004509789
90.2767019815665
90.3371910991861
90.192498792233
89.981134985335
89.937160870416
90.0025092534476
90.0127374939861
89.9896550602531
90.1506615314481
90.1651958464433
90.002336584926
89.9023694618902
89.8725859323702
89.7723970593309
89.6614856379255
89.5575855033712
89.5191636244144
89.476322950715
89.4650984491183
89.4663922657888
89.3891118998544
89.4352400170782
89.5656339931792
89.4261687699359
89.2590869069104
89.3055622987137
89.3491812899769
89.1770867375086
89.0976752441639
89.1692801564003
89.1643214975559
89.0017137938687
88.9419445596244
88.9038873587075
88.8533620275344
88.8421463333452
88.885987580341
88.8445656801213
88.8560598606958
88.7643904968732
88.6886588692323
88.7497305787509
88.7524209571152
88.6839378651489
88.6480322206988
88.6430134334292
88.6239203613111
88.5098328752499
88.5402356437118
88.5894033054563
88.4596865100465
88.3960240139202
88.4295754220193
88.3434142391446
88.2818057486065
88.2792293419743
88.262093381213
88.2546296830426
88.3652153168453
88.3498224139031
88.2734558966737
88.3091132176258
88.3163291052841
88.1907615126799
88.139396812878
88.1331568298585
88.1408860289767
88.1347213313785
88.1168453450776
88.1054576340972
88.1439416145298
88.1203415085223
88.0698917558435
88.1154412072686
88.1180380169084
87.9957629773119
88.0666013268958
88.1301767417365
88.1572822882864
87.9907369896673
87.9266236243598
87.9603382714002
87.995041790736
87.9811013387737
87.9576330136297
87.9078905401708
87.9288245613174
87.9161739166419
87.8558467963507
87.8359304996425
87.9745729277625
87.9697637689019
87.9149427535645
87.8699059723661
87.8864140596166
87.7852357631849
87.699838059211
87.6880517832283
87.7871177767965
87.8439655170059
87.7396106893884
87.6960954194787
87.7905461408225
87.7874682619233
87.7893446934886
87.7605903300348
87.7187705971901
87.6479534266979
87.7457576417817
87.7894859141047
87.6653535077879
87.5759130895945
87.6600557656874
87.6836540189078
87.6772878315626
87.6837148738343
87.709353361362
87.6900704356292
87.744450517132
87.6868024908981
87.6167519864863
87.6008465001095
87.589385403091
87.658908720002
87.7033028136235
87.661379030646
87.6359540546321
87.6066364736266
87.5870677451066
87.5736841845591
87.6922144471859
87.7774482170436
87.8180947772781
87.7417958705032
87.7530295907388
87.6572520912476
87.5889446904971
87.6797607806266
87.7918017886975
87.8161194954129
87.8079762163032
87.770313252914
87.7911387537979
87.7540877520559
87.7459419107501
87.776287123576
87.8448845413516
87.8837198690523
87.9072114858838
87.881920618013
87.801743958287
87.7773373199067
87.9308101323627
87.9734161463286
87.9217711845179
87.890430360158
87.9251354070528
87.9820592571871
88.0863809563617
88.0236343855864
88.0383137647268
88.0966360198198
88.1159253024942
88.0799267143668
88.1048037340724
88.1955111778126
88.2579547632174
88.2158115421598
88.250333293602
88.2564635025714
88.235757251207
88.2687687533571
88.3509932921664
88.3279798457501
88.336231004134
88.4231370389781
88.5448898734979
88.5957599924449
88.6794013708681
88.6233875701126
88.4816419272707
88.4500496048435
88.5693087974643
88.599814124833
88.6280887364434
88.6292547530892
88.6248392612653
88.6782485627365
88.6970313594902
88.6742391223077
88.6537933025269
88.700082736168
88.7679682252454
88.7656672614019
88.8489421123204
88.8674548226642
88.8651428485287
88.8963902663571
89.0238481863443
89.0636799846913
89.0013877626023
88.9355048830488
88.972421555267
88.9606197240692
88.9966306225265
89.0333318768716
89.0506546608845
89.0830273299776
89.0825016555097
89.1129661338357
89.2217255629184
89.2967597043506
89.2526543601313
89.2184880581115
89.2580266260151
89.2781049852599
89.3462791300376
89.4434468082877
89.4924751656118
89.4519825695604
89.4790472757776
89.5121471433511
89.5310154926435
89.5334103445122
89.5566722012981
89.5713086728947
89.5907890638775
89.6356695767152
89.7355628489222
89.6944597511742
89.6577573370573
89.7316946388195
89.8483022242593
89.854744321826
89.8626784811428
89.8956176527696
89.8766630158832
89.8638038520145
89.8945082276254
89.8363226496177
89.9214487567032
90.015099226929
89.958061604747
89.8612306410259
89.8827495042134
89.8948702647191
89.8952496210587
89.9187275860912
89.9432977853146
89.9190291303022
89.9510448123041
89.950380260569
89.9352804106063
89.9826926427087
90.0051025674859
89.9767556541266
90.0012946251502
90.0022004035462
90.0410383424209
90.0850337150494
90.1306722746081
90.2044476721554
90.2569854173191
90.2250468516824
90.2186751195125
90.2251200691841
90.2836779252359
90.3128486155331
90.3538484122156
90.354742631841
90.3250663758227
90.3270660503522
90.4041328103367
90.4685445407607
90.5119457128068
90.5310538397673
90.5923851382543
90.766785610927
90.9370678669277
91.031547044994
91.1232708046832
91.1574592524392
91.2117032806043
91.2491614730388
91.2277220900222
91.2369371367872
91.2161623571515
91.1499225162404
91.0877848260842
91.0426213856268
91.009403935547
90.9727942981108
90.9675842220141
90.9725900164847
90.9546194535192
90.9073441632294
90.9816313664417
91.0092990625047
90.9948345285301
90.9437327810008
90.9000508617294
90.8824653288113
90.9602160804499
90.9896635392572
90.9679302019207
90.9246345809101
90.944726399827
91.0042186838227
91.0852139226474
91.1221138061154
91.1041123304981
91.0947698798305
91.1913463174828
91.2375125798495
91.2868967355939
91.3263465041862
91.4714317228126
91.6089112860364
91.7103548213935
91.8049808373088
91.8399690138854
91.8003575680094
91.7841365076366
91.770483133831
91.6832158432093
91.5571032390119
91.5458838250971
91.5876229476257
91.6532910889472
91.666566993157
91.64100189529
91.5824317809292
91.5989066656918
91.6144573325082
91.5928016751826
91.5826762916487
91.6192590641461
91.6633835344829
91.686020842275
91.6735836982022
91.7143560242956
91.6793143849042
91.6908067676734
91.794879296942
91.8539862804765
91.8222800771453
91.8101046825449
91.8427387048079
91.8862387791437
91.8654277514117
91.8542033313828
91.8538921731837
91.9051542689144
92.0374266628404
92.1528103399851
92.1149463133872
92.0526944774747
92.0133722297597
92.043338976141
92.0546075717202
92.0880870132442
92.1381331992435
92.1368205967561
92.1473360068401
92.2213793602901
92.2344524115777
92.2256767296697
92.2189519935577
92.2456437146158
92.2931861387928
92.2869086673424
92.2587166216522
92.2820412045131
92.3307819827518
92.3936319011016
92.3862880620416
92.3804360990207
92.441729112051
92.4757684528869
92.4633407238213
92.4515913304089
92.4832407474779
92.4855147594466
92.4389273815936
92.4961623251006
92.56580985646
92.5142773896376
92.5174252680259
92.6002694673815
92.6191520490161
92.6696430894333
92.6674583615049
92.6675641315579
92.6955711563364
92.6867056958253
92.6849137395596
92.7625436451205
92.8432629063633
92.8311159661092
92.7481665994318
92.7236147978684
92.795554689469
92.8964845908174
92.8989059657497
92.8763727276138
92.8914253745735
92.953912093536
92.9685115875112
92.9490711657953
92.9369204884833
92.9835759718237
93.0096303315037
93.0044287065978
93.0617994122642
93.1214798997795
93.1213308869584
93.1626584344139
93.1567730604493
93.0973491812101
93.0400496703386
93.0565401477379
93.1356506314853
93.1578040792377
93.1339865810814
93.1379692899729
93.1214524431764
93.0851877728399
93.121483113479
93.1529718325082
93.1463717788833
93.1696706523761
93.223370009757
93.2148884375273
93.1507006859697
93.1768830962234
93.2340807873387
93.2779823913431
93.3229144301777
93.3497774257951
93.3847178477306
93.4389219268361
93.430307663538
93.4081638331752
93.4331383695813
93.5054875161512
93.5149897797489
93.5351289108795
93.642579701556
93.6482304332755
93.5927589088492
93.6337493756798
93.6667118484842
93.6751339011197
93.6883307873256
93.692122510055
93.6860167041141
93.7209665772566
93.8154617905505
93.8874691025762
93.8147926456727
93.8244780460279
93.9016345955045
93.8878592946881
93.8394938510674
93.8496591456605
93.9436501403495
93.9819997075697
94.0207444318173
94.1180925413926
94.0450934145258
93.9880962690205
94.0841737238956
94.102351294833
94.0578737114577
94.0458050854034
94.0146328126079
94.0941134345991
94.2091911764148
94.2579945437516
94.2548408710774
94.2176205755026
94.2066049141404
94.2266277137634
94.1956629760097
94.1699198164153
94.2153247210313
94.3191762057797
94.3535716143185
94.2936680457579
94.163266602131
94.2236275931901
94.347939725884
94.3717394764134
94.3649790976701
94.3786118989361
94.382895797941
94.4227614284443
94.4232898194569
94.3550620456692
94.4180478097624
94.4670113449785
94.4341372696786
94.4844242582459
94.5255837675887
94.4855352777035
94.513891592677
94.4547820662066
94.4161086754122
94.5361124221876
94.6469480716355
94.6574342874321
94.5867525358735
94.5007123301923
94.461470398578
94.5793494802475
94.531498305365
94.4187895909455
94.5230596507025
94.6095169056737
94.6120993198258
94.6104438662499
94.6083093322485
94.7165505400367
94.8065608821684
94.7588199762303
94.6829028666103
94.5902484542261
94.6024457593066
94.694235045459
94.7130339426409
94.675163888894
94.6378014011361
94.6360713163622
94.6966465422628
94.6536796455242
94.5612409628699
94.6352472399502
94.7416752914514
94.7853538506707
94.7948298718565
94.7910507120883
94.8063925334624
94.8326616344165
94.8031908698335
94.776423789528
94.8510137430257
94.8542867136874
94.7368518905288
94.8028086598292
94.9038500743193
94.8590965058749
94.8398610368291
94.8784967551214
94.9001498454646
94.9055080361686
94.8587881816206
94.8182944416632
94.8798329506048
94.9147785639445
94.9406164852717
94.8942599869802
94.8669653977551
94.9219192117947
94.9252317176228
94.82435452988
94.889651461604
94.984279116372
94.8917847120705
94.8603916958518
94.9318036186436
94.9446623537716
94.9400323594322
94.977118596152
94.9197166068513
94.889190226016
94.9241629657296
94.9456553286574
94.9449451863708
95.0046918397398
95.1643346561354
95.2393380563971
95.1762702479846
95.0530795657019
95.1361469990108
95.2467369597039
95.1898130499406
95.1904351900456
95.2270429356684
95.2314053974468
95.0815174442816
95.0215737646774
95.1131566161283
95.1456986702943
95.0821785892145
95.0030245243615
94.9980378180165
94.9748372152275
95.0736417893952
95.1454819504807
95.1292935541251
95.0994363232571
95.0036421014769
94.9352067708663
94.8666774732619
94.8176803534537
94.8354829755021
94.8041816634
94.8792886525958
94.9996376739436
94.9787329158844
94.9357372229005
94.964536491033
94.8926426713042
94.9028130344977
94.9389465733538
94.9412901824074
94.9096455369096
94.9628998558102
94.980823191
94.8984873679031
94.8837823187721
94.8956147627333
94.9565215786285
95.0280940396438
94.9589369084653
95.0329693191622
95.1797080253414
95.2891072520323
95.3640689666217
95.3317022130535
95.334471744459
95.4939152644061
95.4392874418561
95.366270119749
95.4031520046355
95.4149533404154
95.6003742259753
95.672095091027
95.6030021304218
95.5977275568264
95.5249203463625
95.6307702246021
95.7698382372741
95.6629779814938
95.5915243111422
95.7688875661315
96.0137683701561
96.0573165607764
95.9691487626622
95.9168941875384
96.014608269262
96.1222979025723
96.2279775020206
96.2134294757219
96.0176030577437
95.9552702997557
96.0476845311406
96.1505068673664
96.2406285824789
96.4050127865054
96.2153322442925
96.1036405342224
96.4796276810015
96.5403812412871
96.2878743044137
96.4854373608469
96.5676355037592
96.2353948650734
96.2599029032605
96.7034901816741
96.6880850234883
96.5880349719839
96.7685185137759
96.8740737395466
96.8514805216481
96.7890253301291
96.7689501376068
96.9821235784937
97.0303418068889
96.7237685982988
96.7302047747985
96.9039341921704
96.7963406642309
96.3698215584284
96.3608896806567
96.8579162168803
97.315735004991
97.5974657437787
97.7566546751887
97.6398781509221
97.455797360406
97.5257327283593
97.8288949598431
97.8371116630577
97.5942403867514
97.5744973779104
97.6317919838908
97.5413517694486
97.4741161092774
97.5611331841763
97.4525476721686
97.3771183167328
97.3861394890389
97.220398862221
97.0424382472542
96.7492276286278
96.567460216235
96.6150277958378
96.8129087148926
96.9107787470349
96.6889064341914
96.262171061382
96.0936395560855
96.3852467536737
96.3784682807398
96.2087991691281
96.2259537643379
96.3493807875703
96.4118949620063
96.4122621344249
96.4051401342315
96.2889386311008
96.3929216784956
96.4035591718909
96.2658018705055
96.1828309070218
96.2265217020338
96.3613325468095
96.4438934731974
96.4164285108322
96.38886734976
96.3831410598976
96.386549522499
96.3175165429927
96.2628981757752
96.3150323464151
96.3298947720677
96.3849288657749
96.5716229928486
96.6863661927092
96.6127665885506
96.72425481687
96.8779858758823
96.9309490605815
96.9374706373434
96.9657617907967
96.9103867540617
96.890553195304
97.0797002509073
96.9987067478292
96.9528517316307
97.0930620961883
97.1122256496317
97.1423668417518
97.1925297144353
97.2757485187388
97.7691834318961
97.9295190464253
97.8083986457035
97.7530279953657
98.1629502711701
98.408294258052
98.0174553642579
98.0700072754923
98.2605698813283
97.9387078570416
97.7852866525483
98.0239905218711
98.3301330388489
98.4883675047858
98.2843394334224
98.0163210401495
98.1665062936436
98.3619910513259
98.2149067119967
98.0154509907838
97.8764686847322
97.8984429763125
97.7926460412129
97.664775471317
97.4586870358914
97.5653696978534
97.7734060510101
97.949644840773
98.0839433456495
98.0965773868413
97.7329686449205
97.4960644262018
97.6185398977475
97.8630276582236
98.0243869775062
98.2309560846463
98.3625430486897
98.4482886166949
98.4572536689502
98.1001146406104
98.0336053616623
97.99606449265
97.7800540749674
97.5936941929084
97.5815428585559
97.6408679877858
97.6530026205735
97.5295527502572
97.5168945800441
97.4660772834026
97.4952473745221
97.3848412395417
97.4084328346012
97.3734788411035
97.1655753126908
97.2548512117929
97.3423383128883
97.3133379990347
97.221933212463
97.146651959136
97.1035504197508
97.1402075950719
97.220838097006
97.1982584334608
97.1109114775972
97.0448565754137
97.0215554670299
96.8620483648925
96.9050694970655
97.094975343463
97.0638073061699
96.9389618369757
96.9281859384723
96.9054536909395
96.8975800119653
96.9262101183156
97.0005346165795
97.0448195159485
97.0458142653498
97.0088600505087
96.9627285753471
96.8960662613061
96.8530467824112
96.8455313027262
96.9485352284405
96.9247942796957
96.8415254186722
96.8357635193722
96.8850058811823
96.9021271899701
96.9043479995625
96.9474895981367
96.9061589094173
96.811701650806
96.8782111826947
96.9383261011494
96.892566300162
96.87927760565
96.9302565462637
96.9114361380849
96.8633532275936
96.8044267214894
96.8516109182521
96.9539642819832
97.0465588918238
96.9814948127615
96.8199808338298
96.8568361783482
97.0003600867651
96.9931265445825
96.9602004767291
96.9318775831382
96.9239173539061
96.8903015084906
96.8815241977664
96.9096548692426
96.9530699269163
96.9744972187699
96.9408033084894
96.8744214615082
96.9045950938689
96.9020260247419
96.8987559584151
96.8907746647264
96.8626619413724
96.844131718464
96.8266466829829
96.8025157506004
96.8014535497335
96.7397150169114
96.6578777787658
96.6104445575319
96.6447343819157
96.6236822716301
96.4727372358973
96.4122274281821
96.445162143196
96.418359529257
96.3204426319629
96.1923852688586
96.0576170982411
96.0227092521718
96.0424871831794
96.0055048715931
95.8710173036763
95.6850863680487
95.5924768263593
95.5355432054751
95.5635844541902
95.5269548946984
95.3652680186428
95.2915029744
95.265152681458
95.2054990796715
95.2456478726327
95.2089036025978
95.0885859440994
95.0051022508072
95.0049313143016
95.0547372613362
95.0400548881329
94.9134583751958
94.7879122050752
94.8146064485628
94.7050326293231
94.3173203317733
94.2461822567339
94.2087628784264
94.1239447490662
93.968707896334
93.7796148013329
93.6580433483717
93.6422837912506
93.2915090168856
92.8921369790075
92.8331684042362
92.8313593426338
92.7440829606061
92.5765253042222
92.2832246590815
91.8410760557348
91.7617815340771
91.5575653409091
90.7909008687468
90.8098302387785
90.3826516032245
90.1320463725827
90.2230660163184
90.0268200872733
89.773225445253
89.6994175367539
88.9488171888464
88.2000315053309
88.3391594987924
88.3689483188151
88.3390720775056
87.7607305496822
87.3977803152431
87.3787538089502
86.8533715285568
86.4153123642866
86.5330089706059
86.4635829780316
85.8442223481743
85.5158674941437
85.4865408386207
85.6029110248088
85.4700891716136
83.6630358644144
83.5909121584347
84.4534123075511
84.0929021710544
83.2621230764254
83.3071826217686
83.4236988865235
83.3778481369828
83.346351101685
82.5500672125978
81.743905917898
82.0950031182339
82.3487129886186
82.1007539006008
81.7410981544442
81.637523148492
81.0998558091157
80.9404773533498
81.2045979946893
80.8018647314736
79.95867738593
80.0406774029585
80.1343290434718
79.9291856552565
79.621520170026
79.361247184222
79.1572581051337
78.8984750308787
78.6900803441587
78.5297582478071
78.3555240900335
78.0872189132942
77.8769892783354
77.748538625359
77.6180986892944
77.4612725019889
77.3221375471901
77.1613437965781
77.0674584744861
77.0508584671341
77.1610925518887
76.4713899801624
75.9658537589417
76.614977966355
76.8450754833913
76.2094757078528
76.3197247594289
76.5362435288213
76.6890763045658
77.25579230645
76.53311192847
75.0992275976133
76.3090416682254
76.8741284614128
77.1935364833662
77.4207158612568
77.5175780488464
77.9922092838879
78.1010087450576
78.3009701697111
78.252139223367
77.8560101374111
78.747707398519
79.7457310868334
79.6868511303997
79.728267554743
80.2591475295913
80.531096905946
80.5669778307634
80.8386703353365
81.0249124117226
80.9061160583677
81.421209100475
81.5890660151811
81.7311546838343
82.0863043831534
82.2963711851221
82.5564125083084
82.1799823394465
81.7619147246036
82.6242678891867
83.2236641505751
83.3137538090833
83.1650709373277
82.976170074056
83.2275546058635
83.6573512219455
83.6223617389841
83.3914065656081
83.5521598979165
83.8202847518117
84.0054195780689
83.9477051305731
83.9239407335518
83.9763210825923
83.89431188408
83.773250625306
83.3809939189015
83.5427252524764
83.8628795632569
83.7949806433396
83.3218640458639
83.1286180645018
83.3227049273228
83.2163013458158
82.2976934306239
81.8581961588403
82.278455968418
82.2958280184814
82.1497105264596
81.7201672801663
81.4304693264366
81.3663303860029
81.2037613248843
81.0870029539623
80.9993693956069
80.2444482457751
79.8764903357955
80.0932330984798
79.901810584889
79.4561916755099
79.2252903787337
79.0971215177755
78.6760259660806
78.5541049978419
78.1695832176434
77.3280108522148
77.2964448854039
77.3673537071451
77.2196589607603
76.9203011834056
76.7255451070719
76.5982481554186
76.2668852287395
76.0694921964912
76.2129038536199
76.0222318931486
75.8280308064599
75.7569526892366
75.4932911256514
75.675137208563
75.9540344125076
75.8942829656571
75.6016665953962
75.7141036135943
75.8749453175738
75.9858162171762
76.0769351643361
76.2123110134219
76.2881879136701
76.2476048526904
76.5103889167994
76.7761838510421
76.8994051287964
77.123604691914
77.3309655778818
77.3449526279688
77.499489979975
77.7827038541966
78.0310720748183
78.2185089853032
78.4116397153506
78.6086164684967
78.7841120770829
78.9604017449015
79.1579470685343
79.3660084249415
79.5798505115613
79.6597929633412
79.7846248489168
80.0242472163015
80.2525182340951
80.421704734365
80.5545641910144
80.6548812930738
80.7669314951226
80.8908537737899
81.0244200866879
81.1343166075698
81.2216442522092
81.3118244752561
81.4329064176135
81.5217215033841
81.6139364606831
81.7317912843287
81.8157673420435
81.892280973928
82.0056637407279
82.1198465727492
82.2287651869482
82.3331678088697
82.4431637063271
82.5477257383238
82.6524390816612
82.7128919236038
82.7801076357488
82.8543408986209
82.9361888222669
82.9911845620275
83.020533065588
83.0392019437131
83.0811972806608
83.124589122132
83.1484953741854
83.1737170985805
83.1904075968959
83.1847719633153
83.1870299489453
83.1721403461192
83.1738936483169
83.1931270735286
83.1931648096155
83.2091180952055
83.2484585399461
83.2713048857589
83.2605497397193
83.2599814589635
83.2795663186526
83.2788290247651
83.2770463409395
83.2768072688078
83.2912526040857
83.2852658956627
83.2980050157861
83.329290689236
83.3397842991757
83.3511884941613
83.3816283681563
83.3931423751198
83.4102277677682
83.4542186645617
83.492864719074
83.5321331267324
83.589632523508
83.6389643225877
83.6851791477948
83.7484950711935
83.8282246422579
83.8999939018904
83.9695214301279
84.0273638245025
84.1037021461851
84.199110509079
84.2906711772352
84.3820864314193
84.4696764283704
84.5404671712064
84.6139631845629
84.6524816863768
84.6878689988062
84.7172131869819
84.7354146873336
84.7653813957954
84.7925382505119
84.7879137568049
84.7777896700095
84.7718454372674
84.7743371582838
84.7511644088776
84.7189421263801
84.692985183014
84.6688076020316
84.6360721140294
84.5991331050014
84.5753274357441
84.5426037505229
84.4815590936133
84.4074002083733
84.331496243154
84.2600635641936
84.1951566411072
84.1094592790951
84.012709156412
83.9242223054299
83.8278050488565
83.7255952512613
83.5988708603215
83.4852778571579
83.371540418406
83.2489724355074
83.1319518187054
83.0223146437635
82.8976102131233
82.7982204615354
82.6931680212706
82.5984183938303
82.5008163336936
82.4123511843541
82.3191053072446
82.2073282996572
82.1179473338471
82.0416706740537
81.9574119234153
81.84739612706
81.7454475051718
81.6456524776161
81.5033388330911
81.3675544884504
81.2518579797946
81.1480348758542
81.0179771618545
80.9012723814732
80.7878879782575
80.6322211921315
80.4860802572338
80.3886569392419
80.2837088544684
80.1648201200034
80.0426205795469
79.9448822909153
79.8464835904472
79.7592849382
79.668826979569
79.5368939725484
79.4170906751143
79.3405166300841
79.2643748738641
79.1576383940639
79.061139334654
78.9782345690749
78.8827218806394
78.8083420513629
78.7301140823832
78.6413829291246
78.5699273654692
78.5036152404876
78.4361621534523
78.4063590965898
78.4067675087947
78.4233321958776
78.4428872081398
78.4553125042206
78.4955995797153
78.5608686794461
78.6117864660131
78.6710636717422
78.7431357601293
78.822692267584
78.9368771390902
79.0716865004615
79.2138103844242
79.3714877512896
79.5204256879066
79.694647144929
79.8797020452326
80.0492003536432
80.2089417215909
80.3787239301918
80.5541950537271
80.7428243537847
80.9484391910679
81.1294135289665
81.2770614348849
81.4178488395271
81.5782829290137
81.7620449817291
81.9141578327723
82.0558407662961
82.1950926170809
82.3030184934258
82.3980053417083
82.5036651004876
82.6105199276816
82.7199785666004
82.8548230789617
82.997707824569
83.1017257898788
83.1671862934252
83.2369726058959
83.3665415766315
83.5075524085329
83.612416698603
83.6919724173662
83.7917876873823
83.9427189977395
84.0626572359556
84.1433158416236
84.2470949234289
84.3664030414366
84.4735093263621
84.5818186728808
84.6783490306933
84.7335630043583
84.8010088501129
84.8777826117103
84.9709747088994
85.0238570761293
85.0721416460442
85.1125971833748
85.1756579611032
85.2708369639361
85.2974548734806
85.2933405350975
85.3188935907733
85.3397489253388
85.3785990445848
85.4174698558488
85.4596272799066
85.4789634280049
85.5171380295415
85.5644510199255
85.5925029339355
85.6032405791458
85.6294627868325
85.6486886617104
85.6709732328433
85.6775895534612
85.6529511895408
85.6036487553871
85.5864076181325
85.5946386074941
85.5479306928555
85.4310071729579
85.3686355705606
85.2881109512475
85.1689668272662
85.0648616215016
84.9198540558452
84.7760131771091
84.6674343443263
84.526441932497
84.3935143441257
84.2344507463211
84.1203871616504
84.0528750569718
84.00208915221
84.0039367190798
84.0327777199391
84.0541069472382
84.0788700921028
84.1373880141389
84.218224853402
84.2066912995418
84.1816308617513
84.1347936125597
84.0724684184268
83.9772092014924
83.8508147386839
83.7304911282474
83.6595185045853
83.6005826512495
83.5012284918055
83.3668250548388
83.311738596956
83.1972819430425
83.0319310815795
82.9005574804921
82.8085474774405
82.7095911759817
82.5672262323236
82.4382195873063
82.3761871265033
82.3150645744364
82.1621185345869
82.0235117960572
81.9743264047183
81.9111783556578
81.7922175023859
81.6640827520349
81.5444245988669
81.4249826232517
81.36623835658
81.3181651388618
81.242566709665
81.1818265521799
81.0951399766459
81.020162927437
81.0020031430645
80.9726671900157
80.9163889578208
80.8524822818021
80.8174369476469
80.8128498765919
80.729042089947
80.6550735225347
80.6188539363955
80.5407824266857
80.4709537496066
80.3922914306119
80.3294671649952
80.2837903106805
80.2365608879654
80.1660314932803
80.1156510524586
80.0439055761263
79.9385888089217
79.8358927187676
79.7618050026073
79.6759443023897
79.6061769048481
79.5060797861876
79.4139474263672
79.3847259561043
79.2489523429608
79.098711160163
79.0089571852667
78.9211196586333
78.7947980246597
78.6556653946327
78.5440845237557
78.4476363605398
78.3557446768732
78.2266180543169
78.1440815267622
78.0494333407004
77.9171060451624
77.7736040552636
77.619439285271
77.4865054732454
77.4035646841768
77.2688612510016
77.1323923657714
77.0040296761569
76.9288688463571
76.8176102730274
76.6760430369451
76.5656286770352
76.4917383519515
76.3747256823393
76.260150741752
76.1982098523049
76.1389804058183
75.9689023781683
75.8099992560751
75.6797609326757
75.5663041636861
75.5001212330234
75.4974262743558
75.3299291195246
74.9889490733455
74.9878143258845
74.950888544348
74.8197949393137
74.7025961524723
74.5488223581021
74.4253564299286
74.3696414133527
74.3327921700379
74.230967650833
