1798
3999.43349933624
650.420452594757
1
128
4
94.5077141663906
94.6140511412275
94.5273964745074
94.4977084104218
94.5118606800676
94.4437362060918
94.434711233659
94.4702419167135
94.4702987130255
94.4723394967408
94.5534711472842
94.639215106122
94.5051296584904
94.4711835861618
94.5531769870134
94.5066342701062
94.4580934449583
94.5245766456678
94.5646047864094
94.5165044991715
94.5464091210627
94.6147836727486
94.6176909544832
94.5962592583718
94.547106529884
94.5446687437451
94.5950099549612
94.565896839811
94.4968148586871
94.4660199632366
94.4876053778723
94.5769309472582
94.6529581943466
94.6604239316102
94.6227619885499
94.6377324403786
94.6173473930492
94.5160440798289
94.5483846430197
94.6739148673066
94.6959288850964
94.6002655787328
94.4483127754025
94.4848777063458
94.6484669325763
94.7078973269178
94.7123863835113
94.7351859705732
94.6820250547472
94.5630207799654
94.4596816968032
94.3776267589615
94.4070507380281
94.6256884879904
94.7679772034524
94.7025751457073
94.5666762975426
94.5945378970059
94.642073957198
94.5043845856598
94.4833455199725
94.6309529899795
94.693018326157
94.7149210078339
94.7863040899653
94.7728939097406
94.7010557836518
94.5987021121771
94.5717154169843
94.654042452541
94.6427188160852
94.6070682689968
94.6583592463113
94.8403517671067
94.9262853167402
94.7813261563907
94.5213201862311
94.411923617166
94.6530291829596
94.9010875092937
94.9864108328591
94.9386663405461
94.7579712466729
94.6682608335636
94.6462012844559
94.6150823101934
94.7056750073974
94.8602610283408
94.8874698834074
94.9102545558305
94.9262084494426
94.9127460888111
94.8497520533594
94.6706542537314
94.5222541958909
94.6428805420739
94.7523921522468
94.7990906382045
94.9354810115698
95.0313596033767
95.0568029856436
94.9561493705525
94.78421397695
94.766016640773
94.7563184237165
94.7123934355388
94.7580663169235
94.8453685226409
94.9195348208026
95.0138226976911
95.0157323719849
94.8893789494063
94.7855193672902
94.8107328459546
94.8869338636937
94.8462673310893
94.7748527568255
94.8535108350595
94.9422031869912
94.9271335023476
94.9009646364871
94.9236312933487
94.9995712985938
95.0336258651398
94.9762844208434
95.0296959348871
95.0794000073691
94.9739744270081
94.891534261783
94.9545862724816
95.0243261339274
94.990222985666
94.8424394839984
94.8183038272798
94.9013319470364
94.9041579875016
95.0433432747541
95.1927262753393
95.1472823921939
95.0424969075541
94.8874810941246
94.8254248716647
94.9782946332818
95.2657449926462
95.3313256038248
95.2268478890886
95.0588412309683
94.9075220633253
95.0245618710693
95.2376168915925
95.2399602771166
95.2626625602838
95.1630064735782
94.9927829227268
94.9957510381289
95.0461945375932
95.1387533195204
95.2208326527686
95.1845846586218
95.1914271943563
95.2623659016523
95.2397069468487
95.2049095120908
95.2554659768757
95.2082864061338
95.0961996678718
95.1564457385534
95.379475092844
95.3763035827133
95.2407453269317
95.2259681936036
95.2199693135383
95.0621569232679
95.0146855992296
95.1631818071625
95.1983092463109
95.0770639584849
95.0020600942719
95.0874600153
95.1817448845025
95.1837118583642
95.1407629953417
95.1175761620057
95.1066259267209
95.0918086911416
95.0277012406644
94.9430231934185
95.0277012935126
95.0447576558684
94.9361191339888
94.9699229449322
94.9765347900284
94.8906806326701
94.9076981695359
94.9702263424249
94.8851291359021
94.6165822025399
94.4232571751671
94.4990092643995
94.677418538512
94.7410357345096
94.6799431373722
94.5195567522031
94.4437372599786
94.3725679113966
94.3158773296692
94.3524793071805
94.3626651804733
94.2999632614317
94.2451483580346
94.2500290772634
94.2380608137969
94.2014636247227
94.1151372507242
93.9314733024505
93.8988337843848
94.0164463526978
94.0617106229466
93.9338127890457
93.7180403442445
93.7224654575251
93.9073155690164
93.9147032183468
93.7567132889115
93.6251334818396
93.5515746970528
93.4942380671596
93.4498989349113
93.3931184915866
93.3352868010028
93.2301527289261
93.2092784391289
93.2394105864195
93.1709055400341
93.0933250014787
93.1045348041223
93.1958834547477
93.112446720887
92.9249026800594
92.938361214622
92.9561580997445
92.798193510629
92.7068773621301
92.7365310294145
92.7018611866698
92.6582932937203
92.5700930117063
92.4389411526234
92.3634892431008
92.4536767643781
92.5801481093517
92.4755304945798
92.3015817218961
92.2144771150725
92.1584374587716
92.1370619019108
92.0950923141873
92.0877702920888
92.0638158721813
91.9085572005582
91.7490147639895
91.7316234661984
91.7384817307763
91.7547117202942
91.7362546542369
91.6576758431395
91.5562788700492
91.5412241541859
91.5150779044343
91.4026368055101
91.3709476583614
91.3782008772835
91.3248959632353
91.2405599144905
91.1494112187112
91.1689787328174
91.1689919724622
91.0262585213483
90.9100125653263
90.9187443538413
90.9410240760799
90.8574058055592
90.7062615533975
90.663047760976
90.6377489310929
90.573927394293
90.5513456483635
90.4918185632949
90.3634034467641
90.2578173582844
90.2697303524929
90.404767389247
90.4092927602437
90.2990474630386
90.1767297415359
90.0694856476108
90.051208780206
90.0844905403849
90.0653644509908
89.97810189229
89.9115566677035
89.8309456787261
89.7394304327084
89.7427672479513
89.7576198848269
89.7033916550601
89.5521794121577
89.4180999654013
89.3779316776173
89.4364379169676
89.4874326382211
89.4816649742212
89.4162838429259
89.2736211714848
89.2145259592108
89.2149940271449
89.1053456226162
89.0163224503831
89.0324717922025
89.0543477471589
89.0143509515537
88.9783296070555
88.9760274150642
88.9050997281742
88.7394853554014
88.7214729595383
88.8278043056661
88.7627990662851
88.6526385025439
88.6561920954009
88.5587067461616
88.4535346198382
88.5113092093874
88.5672764605187
88.5495811831061
88.5369932658716
88.4672109264613
88.3998713695894
88.3309488709207
88.2954870797789
88.3347462538991
88.349328054
88.2991974497397
88.2036290532363
88.0964632745805
88.0789109583891
88.109735398421
88.1564933815124
88.1709065475518
88.1355184557878
88.0617888481031
88.01386573354
87.9834635923306
87.9837492551288
88.0042960739005
87.9609684397976
87.9446908787309
87.9685874755052
87.9713016392852
88.0116792252205
88.0017208348427
87.9130475318846
87.7732158445555
87.7043053665253
87.8030726646588
87.8914585654843
87.8112266233066
87.7733120866672
87.7946819624057
87.8154439523072
87.8583056142759
87.8570448700383
87.7852506708868
87.7501221232651
87.759368377322
87.7786346240225
87.8034730877951
87.8154074574448
87.7714864424777
87.7670712215911
87.7382395053482
87.6141424137082
87.558660603373
87.5934666682934
87.5699064461555
87.569698684813
87.6396182839555
87.6683755360329
87.5839365721938
87.5777854560021
87.7391315872597
87.7626039659328
87.6054542112387
87.5492303213825
87.5846345107991
87.582242136581
87.5736141794977
87.6093959831736
87.6348254668196
87.6108731770788
87.5952648077612
87.6536649630807
87.6327839750109
87.6100274081157
87.5709882713031
87.5357333219148
87.5766430720829
87.6016337531182
87.5775983714701
87.5672278190736
87.5885306252865
87.6264425418332
87.6319752620789
87.6237524384433
87.589198325823
87.5529153940745
87.590440663094
87.650457377499
87.6693693675022
87.6570782183914
87.6335851157909
87.6524642956176
87.6536363145069
87.6731478114433
87.7139350237991
87.6964904551136
87.6544001305554
87.6576109447252
87.6558418310099
87.6906904839345
87.7244226585793
87.7514211686088
87.7949272050394
87.7977592089466
87.7553832362713
87.8100229524714
87.8769276238641
87.8637735021737
87.8589423620146
87.8860251693576
87.881592058624
87.933853758353
87.9946617280893
87.9643198986717
87.9721464172886
88.0211694881305
88.0108879789823
88.0232217279605
88.0437550619086
88.0722449446868
88.0809351909444
88.050249555441
88.1351625394044
88.3206804340623
88.3085628796306
88.2346788335297
88.245284054746
88.2479573351632
88.256376338589
88.2795588575964
88.321157463612
88.4198495832216
88.4050952926832
88.3523939051901
88.423623370128
88.4830289100664
88.4724245519938
88.5301686910401
88.5859391889608
88.6052585601956
88.6434932312294
88.6672347882579
88.6777010432723
88.682001940859
88.6826103969708
88.7555520143672
88.8000512145962
88.8075224842504
88.8323774231286
88.8413146736805
88.7911002044843
88.740483372022
88.7948945051714
88.861122165081
88.8084158322173
88.8371699312252
88.9213960470666
88.9811910022995
89.0205502828823
89.0399420891445
89.0386146532138
89.0676223275833
89.1221661827616
89.1385494687092
89.1708564400088
89.2057130251341
89.1827663873651
89.1995900996796
89.201366101528
89.1648388337347
89.1780580405555
89.2093927814337
89.2237853903482
89.2885074104369
89.2896557356062
89.2805786813111
89.3327733295848
89.379570873607
89.3609617839228
89.3837420206437
89.4131616258787
89.4560209649681
89.5346176616291
89.5931373314963
89.6392057133041
89.6166999698079
89.6022869613286
89.6738647500258
89.6454669516896
89.6428519966372
89.722114744279
89.7040178623972
89.6497085735055
89.6860048117828
89.7696246806834
89.8021378265513
89.7800755538513
89.8041220414324
89.8509722238801
89.8836735645856
89.8829362023131
89.9249006259282
89.9517662087488
89.9411791122803
89.9185905317618
89.9002159457724
89.9470782853877
89.9908128801877
89.9669678166589
89.9825245374501
90.0757517182461
90.0882831335431
89.9846849310396
89.9581531352474
89.9494546358841
89.9357568945337
89.9528048566069
89.9814348060071
89.9549764197292
89.8934126120113
89.8661261498784
89.853949052933
89.8231946371129
89.8411640390978
89.8280099102802
89.768454183182
89.7547406479555
89.748240908942
89.7159052400169
89.7256466606026
89.7385621778608
89.7741855406513
89.7374562664992
89.6355835638401
89.6527669810229
89.7219221158278
89.7451232031035
89.7265816837027
89.6453824177271
89.6155962792272
89.6274255693727
89.6488154863276
89.6385225438659
89.6147448112673
89.6460298691158
89.6784403206027
89.6725653037347
89.696911662797
89.6822341169562
89.6678104675934
89.7192525959951
89.765611722263
89.7975169392652
89.8176004134592
89.8162095625371
89.856110531728
89.8939560582308
89.9402229848817
89.9624959002382
89.9489034439465
89.9450460718692
90.0046936978271
90.0566414870256
90.1267100982877
90.1570563172819
90.0733336966309
90.0383226485496
90.1181965946195
90.1754592209176
90.1939037612191
90.2225156810364
90.2121870610972
90.1787668427376
90.2014888990534
90.2360440053778
90.2556027567448
90.2821359055278
90.3312934865163
90.3669556992656
90.3608024565821
90.4046998643598
90.4898080650363
90.4839910151041
90.5023627657715
90.542800354664
90.5377295909325
90.5278685110731
90.5927672937837
90.6545001510528
90.6504259977867
90.5911469454359
90.5837168541969
90.6896338177296
90.7850318153427
90.831864365205
90.8964252647138
90.8917019077678
90.8842389874443
90.8603662886855
90.8256764486179
90.8811279223926
90.9677766976579
91.0095294226633
91.0314964778538
91.0651339579561
91.0710557683207
91.0471874526367
91.0689463389417
91.1141678932662
91.1366976372488
91.1558830814839
91.1764920296524
91.1586178966381
91.1842496954611
91.2472929070916
91.2815033051153
91.2780068630103
91.2800994740892
91.2998340855415
91.3051969268101
91.3434255394554
91.3745603951467
91.3297095451781
91.306129939235
91.3428374043822
91.3809111639205
91.4223515419896
91.5059933772536
91.5410403566256
91.5604546451626
91.5300789863426
91.4845225025673
91.5020064771694
91.4906730554929
91.4633663989081
91.498214993362
91.5152414564492
91.5294566947995
91.5758356953474
91.6175572636162
91.5977308968811
91.6114310635411
91.6823321936103
91.6917687041914
91.6704793820252
91.6420357505376
91.6561683529533
91.7199864127008
91.7370339321601
91.6923132519019
91.7000647380922
91.7517128065775
91.7607137094024
91.7838383763582
91.8043035610199
91.8011259861007
91.8066050832821
91.8137209577571
91.7954159657
91.7997379322749
91.8112600066345
91.8203149860292
91.8599981905264
91.884701729035
91.8950148301529
91.9112478992652
91.922709900398
91.9391168569293
91.9164407714405
91.8843678028521
91.888407040131
91.9212584624881
91.9627232083296
91.9968257905887
92.0070394622563
92.0115153885806
92.0408898888056
92.1069589573393
92.1447570753597
92.1305508502453
92.0802553728969
92.0412419423078
92.0619358013902
92.0968807023294
92.1096543375601
92.1429790043837
92.1689357390411
92.1852173013773
92.2031206900893
92.1858361945972
92.1849005328691
92.2202657984587
92.1781240887397
92.1395786487747
92.2042997802346
92.2386855522198
92.2517326337251
92.299026590145
92.2799579994311
92.2677844647188
92.3526914041371
92.4155652510792
92.4081041003487
92.4357225943178
92.4975983005321
92.5071042661836
92.4949792058841
92.507203087256
92.5440860302654
92.5329976232421
92.5272219669287
92.5907972321075
92.6366986891713
92.6822594411851
92.6885684390214
92.6371033674334
92.6324805623861
92.7320995415023
92.8170097261431
92.7875835780267
92.766018759238
92.8248252235348
92.828463950234
92.8078361272054
92.82383437108
92.8905341592069
92.908434707558
92.9191911388488
92.9707241051214
92.9017490323556
92.8397105004781
92.922222979888
93.0334093711731
93.0698015656992
93.0044554167889
92.9833138910118
92.9794427757451
93.0307880743941
93.0710130817921
93.0089327448428
93.0500279627264
93.1404590514012
93.1469966427955
93.1575468338506
93.0877745868473
93.0232463526148
93.04218643979
93.1141272167032
93.258190502046
93.3026152035549
93.1573457278135
93.1102807175178
93.2068557855569
93.2206769466658
93.2317343871371
93.2881456523081
93.305734221548
93.3738674354903
93.3837067603612
93.3264932359011
93.3174583832383
93.2955463602945
93.2685482474362
93.3058116560942
93.3548393192067
93.3597910909436
93.3275484426258
93.3573131230546
93.394792003545
93.3416189492696
93.3015465594095
93.3599539573166
93.4512621986904
93.4684938472439
93.3462256928333
93.3024360238115
93.4082465111619
93.3993230710222
93.3430268586642
93.4335123961873
93.5274284575965
93.5442108515311
93.5574163634132
93.5490582031806
93.4888456723678
93.4601481243641
93.4102294740033
93.4250106428477
93.4804559001105
93.4464152477723
93.4915417557226
93.5642895634749
93.5633654402463
93.4996427556216
93.4424453674696
93.428378703017
93.4880017020355
93.5582163898893
93.5848076469562
93.567855556397
93.4904212687823
93.4748202427898
93.4975425183919
93.5204348470147
93.5693674391027
93.612676978147
93.6346855492499
93.6169830319091
93.6122250343357
93.5991574425254
93.6168847567491
93.6394507673955
93.6214654226345
93.6126193829805
93.61675943544
93.604184630849
93.6641639361668
93.7499909342774
93.6999215026715
93.5956428154044
93.6153076684925
93.6958172668716
93.7203321515097
93.6598958443956
93.5876086762445
93.6480410255412
93.7093722670242
93.6942778872195
93.7162101143362
93.6750566994099
93.585278304786
93.5871912542755
93.6294280161863
93.5792785909145
93.5611294395594
93.6387590617169
93.679716116016
93.6722221847659
93.6434746284127
93.6665711001
93.6752706314714
93.6336932982343
93.6658316652397
93.687625853776
93.7539491300227
93.8607547188823
93.866281708282
93.830379357135
93.8133550511461
93.775316209529
93.6985447549722
93.6821750503359
93.8147267445985
93.8548002193134
93.7966370061242
93.7007972782627
93.5469158264049
93.457678435255
93.5356439470595
93.6700415654177
93.7455395482767
93.7318228623711
93.7279688141959
93.7071757873603
93.7013557008821
93.6998151057957
93.7105441053952
93.7281410225796
93.5933385681519
93.4598069022595
93.50946413391
93.6348484047437
93.699271930671
93.7322977374769
93.7243547683886
93.7481118468556
93.752706348112
93.76534750744
93.8611123836299
93.8643639747461
93.8467087397865
93.8407056961011
93.7927127047493
93.8752137942629
93.9515529491737
93.9594217608249
93.9812218116001
94.0297335510539
94.0412752500217
93.9856194671635
94.0153762957161
94.1310554602457
94.2682319691442
94.4069982282164
94.4358442987649
94.3346036072783
94.3722642750511
94.4543434557382
94.5345673303855
94.6258253578887
94.6620048371686
94.7773102963644
94.8412063306605
94.7890789721821
94.8225579310125
94.8793607321959
94.9225170497223
94.8798160111384
94.9753163674042
95.0072290095217
94.9631927307122
95.1183106094204
95.2195141291764
95.1961123775292
95.374305514651
95.533492709614
95.4924420812258
95.3084635389547
95.2179452683095
95.2338205528868
95.5033177081601
95.8175035226363
95.886523409627
95.8371530858908
95.8943808592196
95.7435733286414
95.5876037824746
95.7265639651709
96.0510180534911
96.2309973071247
96.160501937528
96.018571753336
96.0835598132551
96.1706366329458
96.0051466225596
96.0084803793243
96.2736051689194
96.2638814887167
96.1631886234033
96.4370728202641
96.7540862814065
96.6678815015409
96.5503691647422
96.8388373745153
97.1550896288932
97.0864200145464
96.7979429134817
96.8813960223491
97.0261489236229
96.9952193841499
97.1384651447532
97.3470288126739
97.2544630312515
97.0783339914713
97.4524551199217
97.9077776149155
97.8841666378633
97.9242521813341
97.8462427523205
97.9126429021135
97.9842835445209
97.4291805346652
96.9042143979974
96.6963781617621
96.6420173608285
96.782073445171
96.8400257708885
96.681258210773
96.5729739287356
96.3688281024742
96.0723581790284
95.922253432668
95.8019297194747
95.6671321054924
95.7068031258235
95.6829816046219
95.5324453856321
95.4903034646393
95.4906290521577
95.3933599223517
95.3058799693878
95.3730818199907
95.4037477610955
95.3241632570458
95.4447137572919
95.5646207889114
95.5586169583463
95.5105851087732
95.4945306827695
95.4567132364662
95.5605434199633
95.5631866935194
95.4889972244987
95.5476815239268
95.6331094270793
95.6451796298978
95.6391551986028
95.5549274192624
95.6970254988445
95.7314987765353
95.6827058267222
95.7477372778431
95.7606720722132
95.8647325501294
96.1194555544889
96.3098872066452
96.1660078634016
96.0038257344497
96.142863466109
96.0656385687767
96.0924366925555
96.2731196319455
96.3424574667579
96.4292112767131
96.4278489083185
96.4470736940496
96.8188696921018
97.1808445619541
97.4117535649132
97.2316786091371
97.0123248268327
97.0715779028342
97.6423511702328
98.0079262678168
98.0930204691068
98.296625129961
98.3089550797551
97.8847306095919
97.4044896668461
97.2670546638306
97.5496704634845
97.7631075527179
97.8518093877371
98.0228369861779
98.0970881203894
97.7747378372167
97.5982698624973
97.6361725214159
97.8166223855128
97.7185213427815
97.3941517459851
97.2250196321984
97.1779329053449
97.033915796983
97.0362107044039
97.0239437755457
96.883212024897
96.919793136355
97.0040996626315
96.9438737102654
96.9595897207018
97.3413742629668
97.5806940186444
97.4669928814739
97.7329637007259
97.9989839982727
97.9511823376766
97.604956903819
97.5330445226733
97.7015721924258
97.5362853820928
97.3357271789786
97.2006919641403
97.1195701514056
97.1547963978911
96.8961340712666
96.6937798381657
96.7128394635989
96.6526549345285
96.7486911529729
96.7661655012127
96.5658429013644
96.504599983524
96.4596628936262
96.3761614912119
96.2878281324725
96.1627485425489
95.9942799585247
95.9864879051681
96.0629012807347
96.1029227802417
96.0708171948281
96.0071533318914
95.99475066274
95.9562137671015
95.8436677024052
95.8644614938332
95.9829928764689
95.8828367128494
95.688748992813
95.7390306863626
95.8092329300709
95.8182869834696
95.7686208994987
95.7624684219798
95.797451320875
95.8172505422684
95.7109733537284
95.637504737465
95.7153423047033
95.7863765238023
95.7540226398884
95.6923105698611
95.6173879773452
95.628890382344
95.6585664758731
95.6856757738507
95.6925957062645
95.6175710607499
95.6635306951363
95.7382710890255
95.653204638702
95.6108237254403
95.6583558912968
95.7329360829132
95.6869000395806
95.5653101451607
95.5535413263827
95.6232769466981
95.6457122824981
95.6219834862998
95.5844090710126
95.6309577785424
95.7154624196057
95.6988894189712
95.6142951095791
95.5130697759951
95.6077129198715
95.7607209280978
95.7316474656405
95.6912823982823
95.6846408877059
95.6678208349187
95.6508196671594
95.6410288778876
95.6629554114993
95.6758830552801
95.7120196202115
95.7581655685378
95.7603242419133
95.7539526705138
95.6938128694724
95.6833488222262
95.7260936012437
95.7021163582204
95.6710780194906
95.7151566559859
95.7167425451798
95.6704358906749
95.6284887967096
95.6440107109786
95.6636540160663
95.6270489218065
95.5194009334066
95.4829032788805
95.5522378653608
95.5869679808368
95.5050010500533
95.3673583066101
95.3265931087948
95.3449883098493
95.3011378375321
95.2367801307126
95.1520773769901
95.0634621056906
94.9700293276175
95.0302575712221
94.9790547078028
94.8659172112762
94.7516558467113
94.6688021556879
94.6508179278085
94.655324212759
94.5972429667423
94.5901787898328
94.4995224007717
94.39005813258
94.403264732799
94.4387079447447
94.393878993716
94.2765689979252
94.1774257150579
94.1048559105835
94.0338680381538
93.9001908978382
93.7159655860703
93.8199473303458
93.8274327260108
93.6519432358213
93.4216857228179
93.2434413827925
93.0865912826916
92.8985059819428
92.6304093886004
92.4618163161983
92.4807530130584
92.3955830881537
92.1435499088584
91.8140072867771
91.5875007936765
91.4266644220507
91.1996447634362
90.9312111260707
90.5988378209546
90.538501506334
90.4721357165803
90.2844927028246
90.1203127681614
89.8049880404692
89.4600383693152
89.1150310448693
88.8287572698134
88.6808178733709
88.7291775779877
88.4726155542579
88.0941193924308
87.6879638631759
87.4380710882408
87.3134721046516
86.9817641216072
86.7665744138351
86.6394278378808
86.310745065519
85.9407303531018
85.7790848259177
85.6136110879808
85.238891569004
84.7345959271792
84.2516947182791
84.401159879903
84.5599252819407
84.0182680840489
83.5974607120633
83.5477453283097
83.4260137726262
83.0847839883868
82.7141304528454
82.3135112720557
82.1849423570274
82.4172637524681
82.2566728823909
81.8968949819362
81.6213357717685
81.4139692526215
81.2202879161905
81.1373123703834
81.022126508073
80.6382080205925
80.3785564637269
80.4385129238337
80.2988790006914
79.9430660629303
79.6582332698652
79.419383231843
79.2308980458933
78.9923030365246
78.798003645369
78.6125110431488
78.4086927904768
78.1876366866997
78.0216984591218
77.8680398964401
77.7300916876875
77.5872052312699
77.4579931557688
77.3239543600961
77.2295018070992
77.1054476975237
76.912703311374
76.614069933268
76.6029830706058
76.9525837325699
76.8082108068971
76.4816854257509
76.5921196493328
76.7654652184966
76.6882797709802
76.5164295683908
76.0756228943586
75.945095346797
77.0582964718798
77.450299157645
77.3845405321569
77.4526580463735
77.4820739070044
77.7285249243519
77.7946208894652
77.8280625385675
77.9979842485699
78.2853809004088
79.2374415220509
79.9618662920517
79.8609615773687
79.8942168774109
80.4342376409906
80.6763656716632
80.7636893324343
80.997462271945
81.2913978520923
81.4619742640141
82.0351714001945
82.4672918892181
82.6104663022732
82.9429092050139
83.0978369404442
83.1759840570188
83.0855380332426
83.1168938733315
84.1231767454444
84.8192483333037
84.7467586279368
84.6097481309072
84.6841497392472
85.0506229980873
85.4427885749278
85.4731397292621
85.4170692099499
85.687068793252
86.0131034160065
86.2204288727576
86.2518710027539
86.285461338515
86.3544737186555
86.3331850462915
86.2945244155211
86.2459750789759
86.3448204312857
86.4798257160686
86.2517700228603
85.9284873667583
85.7814629823765
85.7547789523058
85.435138965502
84.9776860129136
84.8234356823199
85.1529270980248
85.0193457484226
84.6644339242264
84.3295884969799
84.1510161245846
84.1046598559761
83.9697965700641
83.784645581594
83.5600416670272
83.2739098986676
83.1777002115225
83.268120156444
83.0370165702267
82.7360600043586
82.525951996186
82.3378992635343
82.0477404984012
81.745199679653
81.4010934856865
81.0632190382447
81.01898592192
80.8757324196098
80.5278099857505
80.1756439247147
79.9051336334347
79.7031567568582
79.4686643697621
79.302245000704
79.2230660458319
79.0343772854911
78.8322658588086
78.8089048132926
78.7590801220445
78.8320362484338
78.837259436343
78.6678192919437
78.5559316290529
78.682920852851
78.8156594937807
78.8228855338676
78.8126749620782
78.8428946914307
78.9001887734795
78.9276698394275
79.1165647524368
79.3155270675989
79.388172881403
79.4903796718561
79.5944780976548
79.6593086989562
79.8468025112713
80.1351943501856
80.3263287286662
80.42205015281
80.5450171684491
80.7210490997405
80.8822442408751
81.023937617423
81.1802277141223
81.3445574299319
81.4875558097119
81.5719398959514
81.68969720473
81.8960233072308
82.0684121509436
82.1735606966768
82.2496867860939
82.3564667244514
82.4602624350945
82.5367874962053
82.6070342817333
82.6775120821492
82.7336641738353
82.7840780693488
82.8651711452056
82.9471822761349
82.9898358027918
83.0346857885069
83.0968201319167
83.1547783030544
83.2120585807918
83.2701403239608
83.3431464831618
83.4019445589881
83.432466561242
83.4764313635224
83.5529674822815
83.6353627900236
83.6871995494806
83.7387005010819
83.7891854085853
83.8495389295003
83.8956261801263
83.9090479623623
83.9170970652808
83.9357068672119
83.9318477781028
83.9190588856213
83.9082686347878
83.8879364143771
83.8658908038171
83.8468368730601
83.8215412048277
83.7731862289693
83.7267008387843
83.7092355400194
83.6816858792798
83.6483637017235
83.6441680968206
83.6280129311015
83.5898998247686
83.552970158699
83.538755611724
83.5225967888292
83.4875968756221
83.4725022806192
83.4681685006644
83.4614080258529
83.4931125180583
83.5104576980349
83.5203125906276
83.5597051953632
83.5991212776831
83.6550971732441
83.7033152338591
83.7397755934608
83.7819582234207
83.860271915774
83.9459294141736
84.0171059212637
84.0933873805915
84.1865115289603
84.2897163127006
84.365867321194
84.4609644260694
84.5901260215105
84.6959526351536
84.811582804779
84.9284675894861
85.0298371124641
85.1287309220956
85.2167248607675
85.30228747875
85.3928342460289
85.4713758188776
85.5422410477952
85.5836744938559
85.5848746199997
85.5956688924233
85.6308347253872
85.6215429979704
85.58962891969
85.5679056081407
85.5561802363356
85.5372744849063
85.5195495860782
85.4925393091887
85.4525567530961
85.3975059994383
85.3282116080934
85.2352603894613
85.1515737545963
85.070666446705
84.9721280649168
84.8558547031139
84.7643252625281
84.6632413724676
84.5286506496724
84.378726523522
84.2190544600251
84.0720640474761
83.9084424335296
83.7116710099303
83.5407469784913
83.3834366167981
83.1882324879808
82.9727533934417
82.772773815446
82.5932618159507
82.4120774771077
82.2465283774248
82.0638268926601
81.8764259616066
81.7239821453354
81.5515046264852
81.3987918892634
81.2460661046272
81.0596833402351
80.8499611197741
80.6500330702206
80.4721572688961
80.3015273490082
80.1320739808916
79.9428487357797
79.7446687199393
79.5786514534866
79.3982328137155
79.1970696972113
78.9928303185714
78.8208601071848
78.6517162971088
78.4663686545193
78.2941011732928
78.1354297574824
77.9709674651136
77.8245097092335
77.682656994606
77.5292639620131
77.3689325390255
77.2236294201643
77.0845628130212
76.9441074984754
76.7981421881861
76.672935534741
76.5407413383215
76.4205100344695
76.334001143396
76.2551925516811
76.1494256276198
76.0558856043034
75.9962338324006
75.9339532080027
75.8798539697705
75.8597336524658
75.8476224182362
75.8498494648282
75.8589959636721
75.8747175102216
75.8796593633071
75.918232623115
75.992997940103
76.0897183828717
76.1868405188275
76.2871981981869
76.4017768205461
76.5209871437242
76.6454405649552
76.7771890707942
76.9096334908367
77.0594895052479
77.2333126558049
77.3873797920809
77.5498777089378
77.7421548649754
77.8932963207679
78.0569929397225
78.2642756189578
78.45100649743
78.6372756308725
78.8459426112405
79.0577203250644
79.2768826402863
79.4717179849773
79.6785215212413
79.8796098386515
80.0695517189112
80.2331746011626
80.3896445447182
80.5437687174126
80.7080408710149
80.8813322287601
81.0576933356415
81.2278293569825
81.373056208246
81.5006182483105
81.636697389245
81.7916911537388
81.9626302658294
82.1387992983739
82.2687622622178
82.4051388980265
82.579651892099
82.7386268687687
82.8812042725559
83.0255933652607
83.1651786899932
83.278237607133
83.4104544931561
83.5597371381411
83.7102121782372
83.8092519886478
83.876582824181
83.9480672345238
84.0635230505386
84.1502551983957
84.177248183725
84.2277388832661
84.2992519335679
84.3361519788863
84.3523747130975
84.3872932906006
84.4626232035799
84.5283507339165
84.5682934503484
84.6466226958576
84.757458390772
84.8058721889335
84.8144414075988
84.8376236892339
84.885564022947
84.9183200989345
84.9252738841217
84.9390549838296
84.9892607300058
84.9869978049095
84.9641066975135
84.9783453599135
84.9794412867325
84.9608685571026
84.9388495365322
84.9341442997527
84.9267242372473
84.9392103880586
84.9467632025516
84.9284529347311
84.9089895729427
84.8858448872884
84.877332020643
84.8672926225236
84.8707328388726
84.8827678192651
84.9189039439089
84.9016968702798
84.8722045524041
84.8581017601661
84.7983954858533
84.7548744882389
84.743950690371
84.6944777873275
84.6136220506966
84.4981200052192
84.4281093619734
84.4008847949889
84.340514145137
84.2398454533344
84.1771462928773
84.1240329854401
84.0272706572895
83.8923160411375
83.7976975053672
83.7297469882077
83.6543456326927
83.5777276236332
83.5114496002985
83.4041679894055
83.285842256305
83.1785031382787
83.124909552655
83.0468835816755
82.9798516614408
82.9655354437267
82.9216137410956
82.8242996448435
82.7197890234684
82.6209613068076
82.5339386974246
82.4814262493476
82.4695974141871
82.4608126416992
82.4455884436609
82.3983108418232
82.2860441190277
82.1885437186206
82.2229596731335
82.2825613839302
82.2857114494873
82.2006273349505
82.1623999744423
82.1707425831216
82.1629434691145
82.1254141232306
82.1240780159531
82.0987429135322
82.04337979978
82.0227549406128
82.0071796811851
81.9631367108483
81.9627248212641
81.9876559107203
81.9715772151327
81.8893524924312
81.8329502232722
81.8245049127753
81.7847846642854
81.7092420305623
81.6847235444144
81.6512836124351
81.5786416823012
81.5094932525525
81.4253911769417
81.3632326530753
81.2723140147483
81.1708382390235
81.1046555944676
80.9956660591591
80.9096997365642
80.8571573837912
80.7675912676752
80.7017169687779
80.6622481009094
80.5428918861714
80.4011940119148
80.2962316007616
80.2289997978126
80.1222865920061
79.9965756040207
79.9315625206776
79.8700411010694
79.8068054777745
79.7582982789726
79.6673847965635
79.5245884882929
79.4581404607043
79.4748562872647
79.4072984843695
79.3312042661445
79.224916537684
79.1485419593956
79.112193424707
79.0639531044766
78.9147913051977
78.7397103807256
78.5754702373077
78.8375579899135
78.7678289747392
78.5258308509423
78.4634504380126
78.3634490500427
78.2150181108807
78.0595354391644
77.9434276642205
77.8514009873957
77.7498669580995
