1798
3999.43349933624
650.420452594757
1
128
4
98.7165599663931
98.5380760828599
98.579362818841
98.7245156540577
98.6777392178508
98.6726710786434
98.7508383952907
98.7272458993753
98.6524994187783
98.6454400349968
98.6713024237637
98.6712138897477
98.7608990310464
98.7497522294183
98.7317263541269
98.6994971401833
98.6967059159026
98.5903991823482
98.6371971751335
98.7812658976767
98.7225906273693
98.6513751100693
98.600887432271
98.5513638358937
98.5551345131857
98.5580473855218
98.6893514985696
98.7919472641977
98.7615877939084
98.785762509722
98.7658697208074
98.7261413007393
98.7707683834373
98.7401749518741
98.732516833904
98.6252447128478
98.4861234233716
98.5648532962372
98.7855241336615
98.7890806348221
98.7127815022969
98.5706738485942
98.5428505021398
98.5728865814053
98.6027433965883
98.7063496417656
98.5928751844591
98.4937321445568
98.6541253775768
98.6640957277128
98.4412239640506
98.3488810267276
98.4357550875916
98.4986590146932
98.5715964972435
98.6661302607777
98.6861981844092
98.6292502940182
98.6883712686973
98.7118446364978
98.5317901249643
98.6096640623763
98.824472606767
98.645835696841
98.5481021773079
98.5650644968321
98.618088712765
98.5984791115304
98.4773879659191
98.3256140428517
98.5701149408101
98.6705320243828
98.6432855543825
98.5472603922282
98.4825179537397
98.5984771873964
98.8082807093939
98.6555315339746
98.4444653200589
98.6075516253701
98.8016917454162
98.7748184454754
98.6927878730755
98.61455558252
98.5831486144242
98.6202592498479
98.5112555097
98.404554052249
98.5658493609679
98.6419724031321
98.695358414851
98.6618090004267
98.5702490701351
98.661754835794
98.6420364014081
98.5159786945721
98.7693656359339
98.8141115003172
98.750199090845
98.845410862466
98.7800200957707
98.8286414776037
98.6858914039464
98.595006667146
98.7198389836536
98.5591634023184
98.6536251078384
98.9072798904395
98.8608853405194
98.6678858380943
98.6536929106583
98.6103953449744
98.7078182318108
98.8191219810252
98.7861828127173
98.6696454053273
98.6495085305345
98.6889599719397
98.8160999212969
98.6919343040339
98.5661854412183
98.5249101647204
98.4364593381982
98.5815855639218
98.7679231892347
98.788971761473
98.7898076897866
98.7285037284189
98.6217528598718
98.530253200654
98.6652794842012
98.7969521778451
98.6163215936966
98.5224783513485
98.806631461914
98.8632816182472
98.5997857197679
98.7011702545727
98.8265722313366
98.8851089823007
98.9018307817213
98.8330421991143
98.6368255182295
98.6143269577487
98.850658606498
98.8935400812696
98.9273746854244
98.8000845808681
98.8338949907505
98.872330574746
98.8773923800191
98.9081452210799
98.8685129218085
98.7981466533989
98.7082839864395
98.746302443045
98.8942693690465
98.920946632894
98.8751497021763
98.799414076733
98.8802046776489
98.841118199011
98.8330568995643
98.7519373049963
98.6774305815006
98.584900109902
98.6626022125109
98.8008785056311
98.7983984173167
98.7186058368313
98.799117586062
98.9295732904465
98.947523389736
98.6660646665891
98.7502683041429
98.720621901293
98.7235107546255
98.7726761775466
98.7851753522259
98.7163302856337
98.6905519559324
98.6442371953865
98.6355692898515
98.5209265928747
98.405986864929
98.4423691886371
98.5091750125153
98.416734191163
98.2675167044111
98.2397741397161
98.4337093401332
98.4940502019346
98.4384869301323
98.2727613504616
98.1672262617063
97.9812561110102
97.8265355305932
97.6841297029832
97.759469119508
97.9333903003407
97.9577388431116
97.8954568031635
97.7324114327132
97.5367682224543
97.5872186016241
97.4149630711181
97.2944905580753
97.4181397539575
97.4929628760746
97.3163052791893
97.1508908111399
96.9260707862767
96.9435469859392
96.8532548628391
96.7358616431563
96.6207963453445
96.5513093494991
96.5189169818913
96.5090807295482
96.4645581284027
96.374173576435
96.2115926478445
96.0992643693308
96.0204651524558
95.9941458552644
95.8684329256825
95.7290215506423
95.5633304125117
95.5726588929294
95.6780044913191
95.718014373004
95.5989162371362
95.4913755505519
95.2365834991706
95.0111681096137
95.0114442782824
95.0686242253896
95.0151035844926
94.941911652268
94.7685852338935
94.7188475399711
94.7118385177163
94.596633736734
94.409412592925
94.3496733428695
94.1702289273861
94.1599628226631
94.1603653259095
94.0873327011466
93.8941889176303
93.803381389469
93.8086732894441
93.8615653288678
93.624794991988
93.4427500793204
93.4227055922101
93.4659827318734
93.4664089303875
93.3345694227745
93.1298160155879
93.0057210414873
92.9479599547815
92.9217275807698
92.6162022774361
92.5705700697087
92.5706086764363
92.485066321155
92.3653491699788
92.2624256846968
92.1525078499522
92.0408098332693
91.8856051289726
91.9524391298457
91.9161689201295
91.8174508646597
91.6529752292856
91.5463287048495
91.4979400609244
91.4879071845717
91.5040161941529
91.455672004507
91.194292490866
91.1004233146964
91.0903842278011
91.0053003876167
90.77045260575
90.7059221057281
90.6225980917866
90.5434500611228
90.508725467928
90.4381499992557
90.2519927205321
90.1883483622329
90.1838620158058
90.0949140033867
89.9750548480747
90.0058424110396
89.9275042105833
89.8134670396688
89.6463254394269
89.5023526061857
89.3894640502683
89.3549231033071
89.3212972886515
89.2386795644534
89.1541064578732
89.2160441398763
89.2289944579778
89.1160371721075
88.8882498541778
88.7382713655913
88.6016188594229
88.5980104024392
88.4813424945587
88.2417847948231
88.1042957874113
88.2836533784365
88.2537957784431
88.0540881362779
87.9380382579349
87.954450571425
87.8967792313471
87.7376552332879
87.6551754088585
87.7560245502521
87.635471078155
87.5526595552098
87.4909949073856
87.3499685767571
87.3527317603221
87.3893687477533
87.2043283214992
87.0996184605885
87.0165667420729
86.9785623307231
86.9032890661316
86.8523956201452
86.8560388522868
86.877120443837
86.7407466540052
86.624369110338
86.5838957789503
86.6508289357916
86.5225435200396
86.3635634085065
86.3164394195993
86.3534291071227
86.3928661297759
86.3438895534399
86.1542376625834
86.2592625071543
86.3660227065808
86.1831614538296
85.9793519763803
86.0079490986112
85.9376506373522
85.8521482808045
85.8905007358249
85.9134949734442
85.8250321143151
85.6519494884139
85.7172246871655
85.943094151423
85.78870318769
85.73412905416
85.6362095465318
85.4439024326016
85.45287094169
85.4694037564317
85.5154065516727
85.4804476053247
85.4131230072314
85.7392415090184
85.920717191635
85.8014246802212
85.4912293195523
85.3181528461294
85.2102233245211
85.0279294329235
84.9943102023559
85.2224601098826
85.2136944775212
85.4500089869879
85.7012852537676
85.4798643761108
85.1615060471428
85.0331177254792
85.0184139775676
85.0776586735086
85.1404043590457
85.2327364293851
84.9882652973425
84.9426703865282
85.2307500885785
85.3950055570781
85.366549688207
85.3067500483056
85.176588637191
85.2360569991571
85.3665859360096
85.1634549623206
84.9209255499147
84.9572334185785
84.9617619104657
85.1904627482012
85.496752548955
85.5058044576215
85.1290581774624
85.1214810813464
85.387000601472
85.6418420399639
85.9367595821421
85.7783287149034
85.1774241295908
85.0100982909471
85.0649888020053
85.203663930943
85.2562722864822
85.3046139608043
85.4720567416994
85.5781824059063
85.549605302949
85.5011624922727
85.4721357347694
85.8259119670262
86.0227683082047
85.8759359903407
85.7806973896613
85.8634083467504
85.6897768258608
85.552391058384
85.6636470997754
85.873364728843
85.6558525533496
85.660152762012
86.1494799601309
86.2802853993012
86.0131951713349
86.0605976939457
86.1974649343007
86.0469926335
85.8688129769882
86.1087420851824
86.4117793612395
86.4982648266031
86.3383024321185
86.4715593668082
86.6627553018858
86.56029444167
86.4095432047429
86.4785220163035
86.5823286773489
86.7000202840501
86.8554395071341
87.0186595999309
86.9357301283892
86.9003460027883
86.9626283848671
87.1087326462142
87.170666550612
87.2849880595332
87.4054414892942
87.4934831353557
87.4700495137055
87.4232243271512
87.43314384213
87.5535106584684
87.5669039750731
87.6008568700314
87.6231303123189
87.7238783262109
87.7471903010544
87.7612744890072
87.8716266550457
87.9360708213505
87.8451369789042
87.9407724825627
88.0557877174513
88.1354864183421
88.1166476332525
88.1741841744804
88.2228978311967
88.2409759503092
88.2032549656
88.2250953418253
88.3016569301124
88.4569457071631
88.4932074117165
88.4581087993121
88.3905688472101
88.4543948698049
88.4937116808699
88.5727083291715
88.6956691621217
88.7887013481525
88.7157554058254
88.6892089737458
88.74922008232
88.8295736902401
88.8249417796605
88.8934286106413
88.9204420041181
88.9429052690651
88.8689608227508
88.8817745815047
88.9661669082793
89.0211874064932
89.0260308085194
89.1332114345614
89.2489028286647
89.355979841675
89.3503581885526
89.4010628387124
89.4284107940762
89.5055141862847
89.5449015993394
89.5183870348947
89.5212540213218
89.6685453764955
89.7538436676078
89.8299722869115
89.8069745492873
89.7805691355784
89.7392742024121
89.7747257269879
89.9333396325143
90.1036911498033
90.0143993535507
90.0556844563098
90.1833982371757
90.2106037557796
90.1647482038785
90.2600811137301
90.2859115700392
90.2784761355453
90.2601870630933
90.2372740979781
90.2658191704357
90.3021641080255
90.2626026291058
90.3633522293121
90.4116904664061
90.387595742414
90.285884447517
90.3110013468168
90.391923191593
90.4078605393375
90.3262328605975
90.256745652695
90.173126457036
90.2393997836382
90.2824283949577
90.3064419108124
90.3180686466093
90.3554032504435
90.2951054325997
90.2141859593759
90.1763550123394
90.1933112206362
90.1540583917179
90.2139357634787
90.2201930650074
90.1748831927922
90.1012643798781
90.0822306401737
90.0861614790168
90.1674630107621
90.164064960284
90.1349529626062
90.1077661809428
90.0722463336713
90.0062042890363
90.0608373402781
90.088013317649
90.1329344029521
90.1053787340716
90.0542118880093
90.0831635133931
90.1730391895902
90.1608235529429
90.1521516551503
90.1037252406501
90.1836828009972
90.2688936909764
90.288523405401
90.2500962875919
90.3131749097328
90.3599588634114
90.4162452373362
90.4984889723833
90.562120873661
90.558280954512
90.6252979124183
90.6278702893329
90.59030235172
90.5745282796142
90.642387480543
90.6738760131394
90.7275652020173
90.7554927330138
90.7941986802167
90.8133523262106
90.84284086231
90.8431355668898
90.8779031432998
90.8606919341119
90.8838939729711
90.9498695544276
91.0119057115294
91.0569679295077
91.1726281366554
91.2077617554252
91.1952536669523
91.1697608720852
91.2558372787352
91.3331399546991
91.3606290358684
91.332200615106
91.3389418429754
91.3055764116481
91.3440962687218
91.3926501903036
91.4303224242268
91.4647907016409
91.5242295192913
91.5995340611942
91.6752053412498
91.6594121626191
91.6868330047195
91.760097886902
91.8684241159403
91.870237939102
91.8757305165854
91.9222782812008
91.9624415412927
91.9687841557933
92.0208670573197
92.0328334308088
92.0456333952562
92.0486696192097
92.0949457242835
92.1334120075457
92.1229115664534
92.1015229071503
92.21113367262
92.2842453083586
92.29504435194
92.3347125634818
92.3780361070954
92.3744330326406
92.4199091287541
92.4009981874776
92.4041369188779
92.4326309746818
92.4609290489467
92.4969815387189
92.5621643131084
92.5266151504848
92.5226463415252
92.5437769452453
92.5876256139452
92.5974436018809
92.5817661778922
92.6121993967435
92.6916833119481
92.6788427444179
92.6700214459213
92.699221593467
92.7411409056399
92.7672655619008
92.7977941886108
92.7763802645162
92.7758083444004
92.7785063015981
92.8140888916605
92.8222778662623
92.7916216880384
92.788126207864
92.8620284603129
92.8912794297193
92.8878685068506
92.8801966129247
92.9178363747742
92.9501805154538
92.9475225987812
92.9285903792213
92.9874159681124
93.0352153779172
93.0777981749313
93.0893016138662
93.0726644645327
93.0454977535216
93.0543069465369
93.0556475630579
93.0739084192647
93.1025431860195
93.1230605761654
93.1292020296388
93.1613252247604
93.1815145726499
93.2471590931903
93.2592330877894
93.2515755941967
93.2195319402662
93.2092027337258
93.207010594976
93.234770825717
93.2660852887125
93.3124171865713
93.3443000732806
93.3425854604945
93.2897489906566
93.3206208591449
93.3559225599012
93.3798091765739
93.3649697942659
93.3690451840219
93.3594330289231
93.3320049523303
93.3239164558371
93.4062781702156
93.397626304865
93.3333443945555
93.324784790362
93.3076798694215
93.3026277532006
93.3708547600245
93.4113963315576
93.4094681627292
93.3933024639622
93.4738993236354
93.5531952486643
93.5257316792879
93.4197989475264
93.4995865017488
93.6538266711777
93.6226175220914
93.5744972885639
93.6593003645905
93.6646938935023
93.6405206151234
93.6148559273435
93.6898140616068
93.7575927913296
93.7705859746434
93.762293488569
93.7886668538891
93.778180832332
93.800841781539
93.8538071069327
93.9106226889452
93.8954260229659
93.9235171625244
93.9824022351944
93.9815035470069
93.9548950438669
94.057520423157
94.0394517992022
93.9856585066153
93.9836365710991
94.0445099063028
94.0324905539852
94.0369585179343
94.0643673503979
94.142123493418
94.1825489699342
94.2125079359509
94.2654932370945
94.2785432517261
94.2482055022763
94.2627217529909
94.2418401587821
94.2531819928789
94.2453661829775
94.2519322091351
94.3485970186703
94.410062167474
94.3515786354399
94.3557784018959
94.3737081786516
94.4458772945657
94.4168628562167
94.305047416784
94.2684597565821
94.4835155949343
94.608975910184
94.6467540506014
94.6171674928314
94.5265183852135
94.4242392780143
94.4418528901462
94.5659973659642
94.6037876448878
94.526569232153
94.4246913876363
94.4426447330081
94.6343347170558
94.5857818601621
94.48754495883
94.5150739388111
94.4976168630124
94.5153966163933
94.4978095757346
94.5007504492093
94.6420598260152
94.7079763383903
94.6405910969822
94.6009106969077
94.6359955343255
94.6242281930951
94.6998360458429
94.7413398036306
94.7056796290131
94.5730867275074
94.5602238127227
94.7110993895525
94.7987634914379
94.7497959749079
94.7452504713705
94.7998844800863
94.7655711368504
94.6470058010661
94.6301703504873
94.6515005441136
94.702161261517
94.7048838542494
94.6457829392142
94.569178122995
94.6401741304169
94.761418157642
94.788391783882
94.7102883995866
94.7394596073774
94.8129102475898
94.781163773565
94.7310219916467
94.7705766106551
94.8272117399004
94.8832744596609
94.7863120265373
94.7371595071517
94.7877871968903
94.8046694557846
94.7793850815843
94.7855274962702
94.8672878776047
94.9245819244209
94.8813188673111
94.8349008318355
94.7780249703532
94.7349911387017
94.7191912687441
94.8127349405503
94.9161328909074
94.9048259876642
94.8770124156176
94.9041445661906
94.9817373027791
94.9840083498155
94.8543329265778
94.7977058001607
94.7743257139722
94.8519342807449
94.9216866334732
94.8120826307287
94.7513754340645
94.6884983392286
94.6458498233405
94.6093081189605
94.5719347938021
94.6187758286708
94.6720458559889
94.7330968450431
94.7412090623356
94.7585698317547
94.8151021873385
94.8376095703856
94.849658786963
94.8923180379288
94.9762670553106
95.1393574236883
95.2001422598649
95.0622282470574
94.8987256851136
94.8909062218985
94.9652169259509
94.8964592435522
94.731609589831
94.6028624454226
94.5701573466354
94.6202852627123
94.6848294120914
94.7667712353625
94.8177879266922
94.8407656267197
94.8190215037396
94.8209937280357
94.8031138063526
94.6512479585093
94.5351755289218
94.589440852957
94.5681680881595
94.5540040252928
94.6324204005604
94.6290552813569
94.6512743144309
94.7410159317211
94.7738860560478
94.7508765719893
94.7150256366107
94.7242193609119
94.7594551418754
94.773350583206
94.7231454754973
94.7579130489275
94.8924627450687
94.9137535524874
94.9042874580206
94.8880527720634
94.8128624674608
94.8008611459906
94.8631797355797
95.0927875802662
95.2914848373509
95.2521710665372
95.1672570050623
95.2269470949763
95.3411712029898
95.4353186197442
95.4883770877944
95.4624370437279
95.418281600548
95.5934774873066
95.5712992880147
95.4692277096286
95.4462697410178
95.6032650104514
95.8896224349591
96.0933095334434
95.9826131723641
95.8518452368113
95.8639208968915
95.8533016316729
95.8156476546593
95.9448030353774
96.1455286379112
96.1275224801746
96.2214060499508
96.5789540215265
96.5812235346444
96.2987108878228
96.4565868808348
96.8253456330729
96.7814795363497
96.4839787724846
96.3475788864655
96.6905903742581
96.9099853987977
96.9761197449167
96.9353082356617
96.6721672074291
96.5554523993183
96.7912482511001
97.0948731683297
97.0167299971415
96.9518712920422
97.0226637069831
97.2232557244823
97.5789398143005
97.6326593367594
97.6000148040133
97.2398134142617
97.1999040236236
97.3876941584101
97.6283159804487
97.8702116667123
97.7193067074469
97.6375040285212
97.7830512445807
97.8723718620284
98.1207150492555
98.3626181248509
98.3796187768842
98.3188774416723
98.1082802767944
98.2885160329111
98.732355964508
99.2601692889477
99.9509640159308
99.5091761885363
98.6632121849963
98.474018669205
98.5541224077825
98.4674017497637
97.9996267544213
97.488534529764
97.4182239184007
97.6653580323785
97.3729907558093
97.1629486971974
97.2615659267804
97.4479399193047
97.2854684550457
96.9741796666922
96.7731460357271
96.7173897881572
96.5945287972641
96.4926362121087
96.2909977568003
96.1387780244408
96.3372941331155
96.4559813684783
96.324807196831
96.2659832819849
96.2732588091596
96.1295311446824
96.13661662699
96.3425664463377
96.3407377132799
96.2730492270867
96.3625965541745
96.5189864133002
96.5267075156857
96.3245870648541
96.2563451845504
96.4085336921131
96.4367827814325
96.3069478839669
96.2798170860875
96.3619502743913
96.4166293888793
96.4753087126697
96.5215964586103
96.5969254563549
96.643171009131
96.6788556101376
96.8343899885831
97.0196764769694
97.0421757827061
96.8261695868965
96.9116324941923
97.1699807880355
97.268507712096
97.154664921555
97.2025774437666
97.5629725264454
97.7883558781737
97.52785043129
97.5000512408346
97.9858338997705
98.3987737918594
98.390259106842
98.6928565125912
99.1377766578341
99.2347878020181
98.8875909223698
98.5510225617011
98.5458777852317
98.7071494765547
98.7051683902223
98.6237552455821
98.8147501071528
98.9366276679342
98.9220234395305
99.1528591854348
99.4560400177432
99.3336512592012
98.7824593073651
98.4927459180616
98.5178563820827
98.3601085393237
97.9633540988812
97.8992320486791
98.0144682014637
98.3268375146747
98.3067300113418
97.9465708869896
97.9635627215046
98.2447613298024
98.2839110522116
98.1978369063389
98.2632680560596
98.1848598816573
97.9992918091132
98.3418042616989
98.6538520903689
98.5707262698179
98.5126336364451
98.5360919350583
98.4460012855062
98.6281259469956
98.3859954185653
98.1441621361924
97.7308752762935
97.8810445732363
98.1325129804726
97.8946718513101
97.5161922842056
97.6141998016794
97.6924350117885
97.5602779661501
97.5368875734278
97.4626064862879
97.1352693002431
97.1398075798563
97.1854437617465
97.1597534962953
97.1832679485343
96.9392359290074
96.6837912631132
96.811447721186
96.8680425581049
96.7884919268429
96.6966857841498
96.6671891522232
96.6028859085307
96.6707521125181
96.5980502937118
96.4298251409831
96.4653022872532
96.609811348987
96.7472540404635
96.7219308124169
96.594642260855
96.5471360118165
96.5590587695146
96.6369207825879
96.5525183155923
96.5240062612804
96.5124931828364
96.4534004942958
96.3620666143452
96.369464386012
96.380336907302
96.3698402654419
96.2666126125986
96.2673645576699
96.3961956570294
96.4397289913363
96.4286814859061
96.4158030950966
96.3391949550636
96.2273761618713
96.23589590683
96.2840996734733
96.3258601338889
96.3581867925098
96.3395227165431
96.3333814435297
96.35101357956
96.4014807180522
96.3314043698912
96.2836907188561
96.300425194521
96.4166167637167
96.4301156696245
96.3284669200418
96.2585764969195
96.253656889113
96.2600410901448
96.2344224387708
96.2943454307131
96.4236711182552
96.383910723648
96.3092169274925
96.2824139840935
96.2707220301161
96.2837956882698
96.2906479752866
96.3181692031627
96.3813220448656
96.4219288585045
96.3831647211911
96.3621225250841
96.299183944054
96.2483098442607
96.2701094870567
96.2385398805204
96.213380070001
96.2127292513633
96.184335989724
96.1547480460887
96.2523928499961
96.2761246990311
96.223602662478
96.1628817551331
96.175280280657
96.2192058208807
96.1899824247328
96.1089510641805
96.0411583622129
96.0473265746241
95.9761529638634
95.9953669589542
95.9343478051658
95.8806778936591
95.8105745764698
95.8204202791281
95.8540164775437
95.8109528569834
95.7167234545383
95.6290683256029
95.5634899438468
95.5368600072785
95.4558871594866
95.3449184726859
95.2926985424219
95.0975785718392
94.9831420906634
94.9087700235192
94.8031192164261
94.6597321298865
94.5014146337061
94.4336651245583
94.2527890740865
94.0919453900107
93.9358832581089
93.7905618912048
93.8163527194124
93.7242188475684
93.5642050869341
93.3815725427585
93.3278523121923
93.2398675584146
93.2131101801142
93.0671278045394
93.0590470003992
93.0999178639814
93.1008082738805
92.9747737887736
92.7560493173057
92.6723056151399
92.5420614025378
92.3100126946156
92.1621191557607
91.802529075152
91.7130115766642
91.3481273575451
91.0228582258602
90.7140550050292
90.4436474706973
90.0289533157027
89.7173951340233
89.211657971176
88.9084070918801
88.6797147093963
88.2083850387815
87.7969397645893
87.3415915320213
86.9218670374178
86.563593293424
86.1788298474757
85.7650434198703
85.3294972452811
84.8733269729077
84.4077707285288
84.0864951749715
83.6805239397733
83.1526157757222
82.996781593044
82.8402541726207
82.5958321348587
82.3730638578231
82.1669116760545
81.9240910940173
81.690258599359
81.4946843167846
81.1912493288429
81.0767428399334
81.1674768142169
81.1625851125849
81.0293144624057
80.8866136184365
80.8676744507494
80.7931605598421
80.8833133481623
80.9997115686739
80.9003224195476
80.8384439338527
81.0203352957526
81.0125483554373
81.0006843917045
80.9699505526442
80.948428805397
80.9119479032878
80.9039481575421
80.8424465420691
80.7980651579338
80.7620263842098
80.7397886294002
80.7233518643088
80.7285547953661
80.7755521060329
80.8359692051746
80.9058151085868
80.9965489235354
81.0773181946685
81.1951924945942
81.3883827785862
81.3749218691834
81.4618474954104
81.7698512659147
81.8909953780572
81.8580392883593
81.9645540441402
82.0116618721391
82.0496982707614
82.0880342857963
81.8661174002844
81.6763861515255
81.9760141330996
82.1564858497321
82.2712302241642
82.1544606458838
82.042938488145
81.9689151119919
81.9119136558979
81.9332002346496
81.8362624432253
81.7560061237099
82.189184277194
82.5918019093728
82.5492643521926
82.593759903697
82.7107271615831
82.8497485483693
82.8753976557366
83.0109254031737
83.0889854213945
83.1556710657695
83.4174471841543
83.5304198817856
83.6728998881033
83.7342167007669
83.8030322353145
83.9137107095792
83.869015951757
83.7975024868185
84.2325700945016
84.7507529970312
85.0148219505734
85.0637346384804
85.0740344274206
85.3351319058432
85.7417530351295
85.9771086120753
86.1336812820479
86.3348453237699
86.7165698539842
87.0556031292801
87.2710814202836
87.4295681986997
87.5144300792092
87.5922882483733
87.6267930287061
87.5049911636199
87.4127891273986
87.3035937380626
87.1524135653263
86.7809117478042
86.4923430802244
86.2970013548791
86.1616438960586
85.8588783939761
85.654813858465
85.5917401601783
85.591477661265
85.5156926716083
85.3491743165612
85.2820020883896
85.2540296050276
85.2227828602715
85.2483063010354
85.2678035611482
85.1196579596601
85.0591097284327
85.047913992422
85.0057668432179
84.8071013659931
84.6088356830972
84.3786411865689
84.1203829192102
83.9103921112015
83.6385916805786
83.4415230572253
83.3712244478288
83.3605574195792
83.3026935844766
83.1985884939186
83.1810543306933
83.1892317437202
83.1636998628031
83.1643802685547
83.2747855483616
83.3173901309095
83.3695221799794
83.4391124652013
83.5046980131101
83.5882120683417
83.7376583561451
83.7563652829915
83.6885671617042
83.7321765565347
83.821610487224
83.8617676605206
83.8256674276801
83.8370385196368
83.8043381031293
83.7734570837966
83.8438696218894
83.9277024390914
83.9754722020433
84.0368779835532
84.1113977262543
84.1827346250575
84.2688170145818
84.4309302067421
84.5983002888259
84.7039813632307
84.7600974831665
84.7950257672067
84.8552777711473
84.9328671185066
84.9948624175493
85.0516449071072
85.1127895198841
85.1202870033681
85.1209766754056
85.18759558077
85.2855410689333
85.3423688646879
85.3796123557131
85.4239145120059
85.4674189400263
85.496564323057
85.520039971514
85.5476953560639
85.5998601358217
85.6374157083675
85.6848402494956
85.7565562298558
85.7927545671146
85.8118107864686
85.8603966996745
85.9250810079855
85.9774167838875
86.0268337144291
86.0851892656913
86.1346964302933
86.1925667725008
86.2295817731732
86.24757114055
86.2827063483835
86.3072605325782
86.2868471074124
86.2726074405007
86.286015223829
86.2738386161077
86.2243158009959
86.1682254956943
86.0965278019746
86.0102755096883
85.9117495729019
85.8062164044718
85.7038077337184
85.6103150598663
85.5078777256749
85.3800668970047
85.2288663579992
85.0936518956709
85.004694162718
84.9314452148306
84.8409368730265
84.7453552294081
84.6552194070543
84.5814596898572
84.4906188247476
84.3937209130528
84.350682797874
84.3115586221893
84.2691602653576
84.2417398489138
84.2215226326997
84.2308280876672
84.2718531930615
84.3264424407664
84.3665092618068
84.4148179942094
84.4902679281699
84.6000044335494
84.7222472601809
84.8060318614394
84.8847419167373
84.9794153845177
85.0681735403645
85.1731647153239
85.2918748608179
85.373000509818
85.4310461182765
85.5020870975681
85.5701806804724
85.6443610590721
85.7439741787665
85.8358149154625
85.9240336369612
86.0251754021047
86.0947039257808
86.1436177090739
86.1659435687208
86.1227246862445
86.0635269112213
86.0111981755771
85.9203507502436
85.7776350153882
85.6383418967492
85.5182587993689
85.3876318475651
85.2591393752717
85.1515165232746
85.0455041633446
84.9595777122785
84.8604884596539
84.7056199295477
84.5498594605662
84.4074101327735
84.2684557251639
84.133344753592
83.9816622820535
83.8538174324279
83.7656443627982
83.654292303641
83.5109042583616
83.3593285835792
83.2030552851602
83.0124306909512
82.7682677076825
82.5069464484865
82.2317461436298
81.9026950189167
81.5402208908104
81.1915542594376
80.8635439538808
80.5903053071468
80.3942512347496
80.2223054294738
80.0688685366451
79.9630360164369
79.8738592908565
79.7693450841818
79.6433505323259
79.5193229860384
79.4163756247241
79.3038540781856
79.1523387901454
78.9822819430225
78.8097616267961
78.6047830925384
78.381763004973
78.1474298904027
77.8657753879048
77.5957077134989
77.2989697723128
76.9762845405424
76.6901966059951
76.4080663370574
76.1188252674406
75.8589213585221
75.6189202235137
75.3882002300966
75.1763660738994
74.9863555696452
74.8331541403741
74.7117249894069
74.5991098197869
74.4816050485412
74.4005566601911
74.3369026439089
74.2245697169764
74.1371719281939
74.068006937268
73.9448477017536
73.8360783108742
73.7371384828966
73.5870320496678
73.434081195712
73.2939573079888
73.1557849668633
73.0213098902716
72.9351890264801
72.9121726962329
72.8852165453333
72.8497764634542
72.8451429756317
72.8531492262228
72.8721222809592
72.9087428598997
72.973801507196
73.0568997874996
73.1623582007046
73.2684697589775
73.3631058598622
73.5050274545932
73.694530919924
73.8996758371704
74.1308587108564
74.3769173261265
74.6106179992187
74.8410783619569
75.1011057113364
75.3730602430603
75.6467505671725
75.9022846880158
76.1485436288034
76.4217079432136
76.6751958685101
76.9317892869329
77.2201216376346
77.4545420133074
77.6508627133718
77.868404957802
78.0894122822028
78.2967629146061
78.5189000531993
78.7079058281668
78.8711040343171
79.0742345102164
79.2954048216974
79.512953450625
79.7551341912084
79.9831206110574
80.1779541662255
80.3811095593486
80.6135440056457
80.8032412929817
80.9401142655344
81.1001973791928
81.2890171678475
81.4641354629683
81.6530280527568
81.8630240666067
82.0426008016545
82.2115693273085
82.4114896837399
82.6065194317774
82.7910785583488
82.9554163478268
83.1289423381308
83.303514986339
83.4313672813627
83.5553092735067
83.6750255665287
83.7557424444931
83.868821616424
84.0118655106251
84.1240734832737
84.210216009859
84.2837695559794
84.3667754458937
84.4625990299641
84.5539449005757
84.6370763097215
84.7006067958168
84.7516056356157
84.7932558365996
84.8561295778731
84.9060786883907
84.9538076251538
85.0103778940338
85.0551156728662
85.0790802392821
85.1141915680811
85.1578869605808
85.1933977447943
85.202871092602
85.1806913461851
85.1692815425482
85.1687227376782
85.1824762147702
85.2058498136108
85.1832084087558
85.1678482443144
85.1725670154935
85.1638674955372
85.1278098102517
85.1178240137754
85.1378775712767
85.1371442093958
85.1147549702656
85.0811107088968
85.0246630220119
84.9668538308377
84.9142051871116
84.8828842459552
84.8483901391017
84.8074983361334
84.7266909856534
84.6302151043142
84.5944655706469
84.5697156482114
84.5432944430235
84.5264676172888
84.4657019103128
84.3707570017731
84.300632072705
84.3015706741076
84.2682256359345
84.2070784457843
84.1578238395811
84.1197350800063
84.0691036245828
84.0034543912827
83.9564647502124
83.961851299244
83.9391452899453
83.880716017592
83.786224671844
83.7073398329647
83.6741244625685
83.6807877151561
83.7238352502908
83.6745678731868
83.5436718518473
83.4372954236105
83.3345326642005
83.3055305120499
83.2571043498099
83.1388427150206
83.0521025701045
83.0359975735739
82.978241506092
82.8928120922926
82.8598759232026
82.8273819886225
82.774333981701
82.6943608527407
82.6077735451287
82.5598662152237
82.4846117958189
82.4138116144695
82.3215093357292
82.2221278870446
82.1254274579986
82.0422736031677
81.9771106010044
81.8858134695681
81.7741961464133
81.7115449851634
81.6388337267617
81.5647287404556
81.5196944431074
81.4632176120412
81.345918548018
81.2632695607708
81.1863089203431
81.1083776041616
80.9889422387958
80.8865698215499
80.8123951572841
80.682981511349
80.5522233789194
80.4689974630371
80.3600451320034
80.2393459041317
80.1175748229084
80.0334796137921
79.9218811547449
79.7672005391895
79.6200223462088
79.4959072989238
79.3142929845952
79.1766903639996
79.099353198617
78.9898139700348
78.8315773484916
78.7596169018349
78.7103880332097
78.608814831338
78.5120517542046
78.4939210004628
78.4205392443605
78.268065535602
78.1486376188237
78.0830481897924
77.9691026734168
77.8510661028991
77.7402388244028
77.6511410640922
77.4623125173216
77.5371585234672
77.5687543484674
77.2835617449382
77.1160286900417
76.9772622509773
76.9426645597162
76.9075481547223
76.7783334127437
76.6500063707215
76.5196701190437
