1798
3999.43349933624
650.420452594757
1
128
4
94.78067968674
94.6735346816383
94.6487464558422
94.754890598509
94.7253919736989
94.6778590939734
94.7194947654614
94.6771956572994
94.6231434031729
94.7367053347104
94.734740342076
94.6656001623353
94.7090347460733
94.7449472543731
94.7817565286445
94.7904694883368
94.7183351347189
94.7451255339971
94.8215911183568
94.8656238525763
94.8325453998279
94.7712492217286
94.7022534696234
94.6977044363313
94.7703532769709
94.8381078299377
94.7418932584012
94.6315937515462
94.6662399889496
94.8314712135859
94.9118257492767
94.7868809658273
94.6651011015613
94.7941494958126
94.838280250653
94.7704678697445
94.6522394952542
94.6481846935901
94.7867259106381
94.8573987780449
94.7783553042459
94.8109769667146
94.8148992525063
94.7569578899039
94.7186934095893
94.7561299541999
94.8157841844949
94.8909179057703
94.8783927757095
94.8711349439807
94.7082209917842
94.6095479522783
94.6625245649973
94.6277387502143
94.6672668747893
94.8715401152115
94.9531614184693
94.8777930455842
94.7713181505475
94.9121660606197
94.9264840573825
94.8571003551948
94.8963966372607
94.8970422119253
94.8276849097314
94.9785993412258
94.9680062605816
94.8824376939334
94.9397660788051
94.9249298594731
94.9199858672172
94.9845875089288
94.8197054849994
94.8652657093935
94.9324053200506
94.9314872744051
94.9335145071076
94.8089806401612
94.4823072848739
94.5428997053026
94.8565200885782
95.0523477831385
94.9783102810461
94.9374681001963
95.0340596582406
95.033681093809
94.9459097548946
94.8829721809808
94.9360150219549
95.0523852197702
94.9437584107406
94.9203912921389
94.8988740001055
94.975619285606
94.9762327148534
94.8427920059744
94.79466336466
94.9368016755188
94.8782168497688
94.8853121086354
94.9925490869676
95.1078801638361
95.0798232420057
95.0138270041589
95.0144526492596
94.9354810224561
94.8102243539675
95.0309683800521
95.0070672399464
94.8991095303393
94.9614657295385
95.025372051996
95.0913658185481
95.1420662679277
95.0469857538146
94.9830028448875
95.0148562493396
95.1347851949622
95.0293553786335
95.0430710021563
95.1509509818221
95.1279032691822
95.090640451715
95.0842167665389
95.062595812237
95.0886672080452
95.0293285583236
95.0889395446716
95.0344799308575
94.9420215701246
95.0032096668835
95.1419701679325
95.0008822761343
94.9702882409413
95.0652094524136
95.3227016898285
95.1993651221879
94.9828286918
95.0594930356142
95.1963705857262
95.2197006917599
94.9609868504661
94.7916843130742
95.0342354865729
95.1839967928024
95.2487192780158
95.1918624466345
95.2872990824579
95.3744892231985
95.2914582801301
95.2714656241677
95.3284510181536
95.363254953067
95.2374727523502
95.0337838466077
95.1020749380734
95.2200915832192
95.3217634328163
95.3831843918961
95.3520008504006
95.3415780384646
95.3745761599517
95.2846008667523
95.3619180866503
95.3321565127585
95.218396398752
95.0965466270843
95.0707366150097
95.3657437087526
95.5428922028273
95.3846475469048
95.3264020983304
95.2493692430479
94.9128067038487
94.7529255948363
95.0101098819827
95.0034388121234
94.9182162335681
95.0322606875697
95.2078236100714
95.0652113461991
95.0980769581566
95.0979283179785
94.9369146859921
94.7827918439047
94.9069513790402
94.8627724592638
94.5471715158535
94.3306511309586
94.4124264135227
94.4353115060956
94.490923885026
94.5085817643986
94.4782430973077
94.3343370189183
94.3330230245774
94.3696629254067
94.4176486014038
94.0157045608458
93.7399781903608
93.9349790472533
94.0374016474769
93.9827921759909
93.7713018485717
93.4720457463393
93.5604053574721
93.5650253050337
93.4736388897633
93.3373500747095
93.251429410011
93.1019033581545
93.1550573955416
93.1615237936172
93.0662251184743
92.9941735522256
93.0806829967068
92.8174005496195
92.6897349476128
92.7153901344531
92.7335303438724
92.5947051115879
92.3268915453212
92.2176562961958
92.2120451611223
92.131417850054
92.1503393806834
92.0512891697734
91.9638540140613
91.8116750523263
91.7811738934879
91.8733548579703
91.8139482566151
91.5549963966566
91.5372101352371
91.5618829336135
91.5145634974395
91.202163645151
91.1392112911751
91.1938752267375
91.095439252365
90.984587183643
90.9996209071723
90.8467491408167
90.7239304305546
90.6004137550861
90.7114392216078
90.6059623886635
90.4207989467762
90.364276930463
90.3043362548653
90.2018736029446
90.2350145385444
89.9573409829187
89.7799041746347
89.8921483647648
89.790873380183
89.7059393367835
89.8466636933991
89.7893410441792
89.6587687198262
89.5017726468322
89.4188362796715
89.3091677059737
89.1456692015863
88.9737434632101
88.9401896179318
88.8082035164466
88.7376003450696
88.8239902444479
88.9405722452356
88.8154531531945
88.6105460897369
88.5220029652194
88.5114756015025
88.3769646544555
88.3161275022775
88.2873998912794
88.1734007316227
87.997019653915
88.0796466255091
88.0810657910057
87.9001250709729
87.8096289795215
87.7511816847501
87.6165065541813
87.6038208235204
87.6292566531458
87.6014946974518
87.3709641950088
87.2129956002258
87.1786949114745
87.1532936854937
87.0264268111284
87.0036610520145
86.9481729650377
86.8853675918428
86.7313250848944
86.741210198628
86.7200253541318
86.5804209777891
86.4382436820395
86.4385128915896
86.4355262094759
86.3630569480611
86.2568548866225
86.1835246134745
86.0562876575358
86.0350987589111
85.9684007992998
85.8715137470552
85.7900053648591
85.7665668804813
85.7576072925939
85.6619276037984
85.461365696479
85.5012696795644
85.4704583944584
85.4416724888384
85.3858334437382
85.3201628089363
85.2964777845931
85.3151146054101
85.1518371003774
84.9983589131214
84.9574193554779
84.9955534267605
85.0160309037854
84.9829347750684
84.8626790304334
84.7733796732395
84.6713774097831
84.7720659942111
84.7693248159029
84.6493450818913
84.4731299333194
84.4344589255231
84.4319185701667
84.3719577907722
84.3513780052522
84.4120547975552
84.3661512897965
84.3326657372476
84.282823988303
84.2741869269139
84.2433944972006
84.1715316093636
84.0446589856812
84.041270197838
84.0553222585792
84.0319009780043
83.954342004281
83.9822017900861
84.0241140271293
83.9552916374403
83.8692581288978
83.8357611442816
83.7361257832389
83.8643134897857
83.8964476474918
83.7277514944166
83.637175441471
83.7485314748505
83.7739511627732
83.7678631657462
83.686320225427
83.6949925283337
83.6753729143439
83.6342619112512
83.6092410018509
83.6392982560712
83.5728548977763
83.5787898681194
83.5881649187663
83.5731586017294
83.482402955052
83.5919642478673
83.5573606598182
83.5010495500149
83.471619897085
83.4644425961198
83.3937535578882
83.4707510690225
83.4919552019815
83.4726338564034
83.4506686917918
83.4787177336126
83.44415067985
83.4227247966804
83.3748038570366
83.4249298050095
83.4379154551961
83.3773600296273
83.3725627523177
83.4188545800397
83.337615545874
83.3655183630332
83.3748293962721
83.4263613421587
83.3827919308217
83.3459218934989
83.4086507809129
83.4447427312633
83.3622950279738
83.3179685809334
83.2772312567601
83.3344718317053
83.3708660972963
83.3541984268233
83.301679961052
83.367650310285
83.4201008820477
83.4010027241714
83.3716165544633
83.4204991511833
83.3669361743741
83.4062891761401
83.4170488771753
83.3821954051477
83.3439844429126
83.3983353374892
83.391666097631
83.3681317776025
83.3484197818767
83.4118391348441
83.4584285868375
83.5335485142269
83.4287572852589
83.4161056294092
83.5512819985622
83.5690473068648
83.4736331773821
83.5925010840388
83.6350214364482
83.6034338898562
83.5380203371197
83.5479745976423
83.583486956536
83.6693271323037
83.6807215272747
83.7193071495216
83.7733271884999
83.7963568232748
83.7650131857108
83.8418933895089
83.8727082398071
83.9433797787591
83.9541594668114
83.9407512124886
83.9653747800392
84.0550183631615
84.0735187254475
84.1399909499002
84.2342737172816
84.3426257115999
84.3303474692892
84.321541824746
84.2549844340519
84.2289211204901
84.2480775812121
84.3335653420132
84.389976559351
84.5493065084153
84.5886488827825
84.560984693224
84.5381039053639
84.571373531547
84.6861102614929
84.7771223178111
84.7483830794395
84.7960470242258
84.7868475798702
84.8597474898435
84.961008173627
85.0410630101549
84.9921915838925
84.9621398092648
84.9716203857618
85.0380952826512
85.1003749180478
85.1904946950914
85.1643919213529
85.1442267292786
85.2036627206461
85.2433106500677
85.2175268954565
85.2466359460935
85.2752254409669
85.3599944288839
85.4212910712878
85.5172438449321
85.5469878313639
85.5554048389715
85.5840000957671
85.5930926928747
85.580920291478
85.6203646426112
85.6247889499225
85.6441673102553
85.6814251352982
85.7691295571735
85.7838141466182
85.7564697886389
85.7338820694816
85.7851994168576
85.8493321244121
85.8984211171062
85.9186310745997
86.022354416802
86.1217339610832
86.1272616628214
86.0911410132203
86.1412746034103
86.206613746041
86.3213942112043
86.3475271467233
86.2870491830272
86.2568524776405
86.3958455720075
86.4597834679544
86.4117317582121
86.3756594324137
86.4809595350844
86.5719492965447
86.5901527915212
86.5807254113491
86.6470645692873
86.6912664554135
86.713601594346
86.7270926860539
86.8012543372357
86.8286937241515
86.8531281910647
86.8469161914122
86.8527050103599
86.8297652494349
86.8379919640501
86.8743130807698
86.8799796714723
86.8448445059065
86.8130284361675
86.8892002902097
86.9842776426362
86.8826599244778
86.803523771784
86.7313406916984
86.711900196026
86.7111354242194
86.7348734552439
86.6892518328367
86.6967992529468
86.7028349640654
86.6278800486364
86.6090673335707
86.6876383436861
86.6310899453599
86.5884112983547
86.5490215126742
86.4605005064485
86.440843201634
86.4988800761721
86.4686716295836
86.4634606232793
86.4184194382411
86.3831756538593
86.413976681366
86.4265426028872
86.3813675544589
86.3197201677885
86.3182351435564
86.3104842661004
86.2944708092369
86.2815286031396
86.2563169520851
86.261092521563
86.2048171635676
86.2181999848191
86.3041807004581
86.3270617953102
86.3171960407044
86.4406383473906
86.5444453955406
86.6314124705423
86.6646702575623
86.735445712218
86.7743573887471
86.8721454198652
86.9686199913348
86.9563357056759
86.8756969840587
86.9217474545109
87.038009595209
87.1378786040683
87.137879757451
87.1442016340704
87.1563433319295
87.2025633662101
87.2715548510243
87.3375462029221
87.2991160637594
87.2702301850657
87.2718456430064
87.3208912986378
87.3550000544519
87.440389775879
87.5356143745865
87.5760283323343
87.5848751556323
87.5936816642438
87.5896378933211
87.5920910985176
87.6101510539733
87.6706475878046
87.6941834544584
87.7353103476138
87.7662968954986
87.7682657999324
87.8552029957349
88.0154998789343
88.0540546415477
88.0783506782657
88.0751750122863
88.1270202109516
88.2491481813045
88.3563337761551
88.3509072477398
88.3620547373826
88.4279882809152
88.4685866609067
88.4040796983661
88.4473688682456
88.5534397954612
88.5914102174038
88.5728139170325
88.6317544620554
88.6579595145575
88.656483320964
88.6638233231044
88.7312294053854
88.7708813653339
88.7554765442201
88.8030143173455
88.8561679857865
88.8836750868776
88.9473142253333
88.9884976086237
89.0060645137105
88.9914124358772
89.0162110018805
89.1266684631416
89.182143967887
89.1551440760284
89.0975888394796
89.0757753608252
89.1177152502685
89.1512323534414
89.1709437725182
89.2210770264472
89.2652128468215
89.2613321656017
89.2983456625095
89.3263416970956
89.2987400837943
89.2935140841525
89.3156574151872
89.3313724319477
89.393310576134
89.4527638677878
89.4774582084141
89.4491162139941
89.4891573084644
89.5220239020597
89.5496892417007
89.5671587461535
89.5937178965227
89.5981320057864
89.5621955048572
89.5923641985716
89.6746609856305
89.6866295611109
89.6841945729368
89.6529982797251
89.6409875441791
89.6890414096077
89.7796203229488
89.8253712676785
89.8532045866192
89.8427785829849
89.8257764882995
89.8273138807033
89.8623598953105
89.9125066343577
89.9296961281299
89.8954264100246
89.889304813887
89.9286625403921
89.9537458253249
90.007552641147
90.0409765400298
90.0378804424796
90.060472453884
90.0436087023246
90.0609905032869
90.1009258378114
90.1087927536975
90.0955551782682
90.0910167066136
90.0972091627868
90.1822145718146
90.1980751198889
90.1762959685538
90.2203830539841
90.2411314505493
90.2482225693152
90.3115968688128
90.3376991502408
90.2989605331491
90.26636327349
90.3261120385648
90.3476794273344
90.2972265405218
90.2407128246874
90.3128954842125
90.4045113566587
90.3741417602122
90.3401067162456
90.37743702285
90.3944215694943
90.417795188382
90.4336171789286
90.4290573201412
90.474097646471
90.5461842697114
90.5762679325504
90.6006675909443
90.5803519487965
90.5796707356914
90.6047085470429
90.6093827869612
90.6399765407154
90.7698484650588
90.8046280676372
90.792375747596
90.8111734043313
90.7850466020913
90.7726658612824
90.826051966455
90.8338248620115
90.9134681174976
91.0257398368703
91.0539068065349
91.1086838592453
91.1431508103086
91.1499282153147
91.083152798575
91.1000763633602
91.1997048483917
91.2317646240445
91.2171262133998
91.1497495877557
91.1658917009788
91.2016690697704
91.2536645259403
91.3503893285683
91.4160038734241
91.4252260142956
91.3933605829456
91.395390969709
91.4976333049446
91.5639267310838
91.5636663121208
91.5413347095033
91.4940311430554
91.4520392768309
91.5508527747561
91.6638524269955
91.6789103154161
91.6275697557467
91.6170223899963
91.6205186721374
91.6567921981002
91.6554385386164
91.6503938303762
91.7078248834089
91.7917328731953
91.8457559021007
91.8264552993459
91.7527741807081
91.6840015669551
91.696027118252
91.7918923482465
91.804767989862
91.752635804557
91.767576004462
91.8186455066567
91.8515933596447
91.9487585147971
91.8874615651408
91.8181110474388
91.9087863369145
91.9611777171223
91.9130508887489
91.9241373383795
91.9710501439872
91.9936050732492
91.942551131583
91.9413779543034
91.9522776810998
91.9606951584113
92.0116557546709
92.0834289069483
92.112949892962
92.1210653207713
92.0429185580453
92.0473504010428
92.120152845173
92.1136133759081
92.025844003028
92.0283809467146
92.0334371780854
92.0303011416148
92.1054634962513
92.225240140816
92.1683640724336
92.0668855930929
92.1362412045722
92.1467372697973
92.0906846434723
92.0597525455573
92.0806100463368
92.1081386620786
92.0755379010035
92.1700691010874
92.2574807610523
92.1994438938245
92.1363847887703
92.1489200595954
92.2166648295943
92.270666225477
92.279721557203
92.2491565638544
92.2324817069558
92.2610156390967
92.2232595529294
92.2117200709937
92.330295447504
92.4380936636957
92.3814583543797
92.273062471968
92.2456757749351
92.2769902897816
92.3259313002879
92.276495419548
92.2617384366932
92.319637723847
92.3639692601271
92.4260589928907
92.4117968479544
92.398130829181
92.3092607217607
92.3426485848618
92.3758293177069
92.3431901209967
92.3559153387144
92.3293221700638
92.260122504772
92.299794995996
92.3916791371851
92.3790584529074
92.3009358388807
92.3091098134195
92.3663037906434
92.3859404111686
92.3575505606155
92.3344360894414
92.3954826160244
92.4437632838917
92.3994828967911
92.3725122949251
92.4076511893333
92.377973934276
92.2928908556035
92.2022331260598
92.2830752596755
92.4277159709792
92.4919046658464
92.4680574029044
92.315405984019
92.1769325444279
92.1807338241131
92.2320466511245
92.1928331913895
92.2006115799934
92.3159073253388
92.3745003285326
92.3514579576261
92.3244374467485
92.2719443320647
92.2240350420987
92.1146721086807
91.9672158021928
92.0281578696415
92.1292061963777
92.1289427807046
92.1857229730937
92.3259080474566
92.3840382902308
92.3801648071013
92.3557546000782
92.4066965566955
92.4846092032398
92.4641556841712
92.3987204507693
92.41522673927
92.4589921626158
92.4086570545661
92.363727736991
92.4569118610757
92.5152293175691
92.5408101568621
92.6388051557002
92.6585893138967
92.6839703134664
92.7466998827567
92.7549805482255
92.7267535036872
92.8130806286591
92.9819025192519
93.0571660979735
93.1385722161925
93.2005049081158
93.2269597316859
93.2266918827937
93.3557647769051
93.4685992152641
93.3817620672152
93.4280297944073
93.6460600137536
93.6543409430484
93.6777834740488
93.7254284242036
93.6646072310081
93.7284067095022
93.843263067725
93.9220559459368
93.9350156064555
93.9592923435652
93.8311111296988
93.6409146858555
93.8084763064276
94.1092114400485
94.1895731399472
94.1018159581792
94.0563114910041
94.2775400304496
94.4454522014545
94.3878658166173
94.3649659423837
94.5153675231682
94.5593888254685
94.650402839517
94.6426729927468
94.3697581088651
94.4990139937387
94.8312429656708
94.8162173201876
94.6472273139655
94.7252063381715
94.8884984826137
95.1456758259838
95.2245811254285
95.1295752270206
95.1045423294569
95.4224026300039
95.5971439902739
95.4488243845247
95.459323232689
95.7095249651308
95.7744925065653
95.6061969854471
95.4375063416559
95.5275372614226
95.8518617275768
95.7718749859949
95.8419175814833
96.0995270144619
96.6243567852012
96.9127184833996
96.7806734753841
97.0451106801217
96.6664577645715
96.2423884803057
96.4689328656703
96.5382455308527
96.0279153665046
95.8238082555109
95.995842474202
95.6793966794446
95.3553890645668
95.2714820470465
95.2244883419436
95.1634857340906
95.069207493119
94.8661003481068
94.8335223299248
94.6676797141701
94.2291005833419
94.0675022888695
94.3616774648646
94.4579170257585
94.3036537601196
94.2310496445814
94.2101746314809
94.2676021535893
94.3003301487652
94.1601470543129
94.1430242280439
94.1654843294292
94.0969843754461
94.2194183078371
94.2161744173189
94.2123985904511
94.1683001967952
94.1281571916726
94.0988014836236
94.1273713806687
94.2400389906651
94.2401647537476
94.2734699229319
94.3674693465265
94.2913122670574
94.4256057675313
94.7214621536472
94.7478258976879
94.5313929849984
94.6156947901209
94.8002034831347
94.6910181182546
94.7887587126782
95.0642609948996
95.0242093502433
94.8334612594952
94.9471794333903
95.0301084887248
95.2143990198461
95.3615695408759
95.244649744671
95.560004941908
95.899110035413
95.8578140984969
95.9426844741074
96.1365565354395
96.4773704538973
96.60062957555
96.5545715873839
96.632032539362
96.8354088623806
96.5923809796874
96.7722923870469
97.3049345968456
96.9169196421517
96.8048697647562
97.0571141587951
96.8513185962471
96.9751785698645
96.6496737180013
96.3204883880977
96.1648421653488
96.1019982981608
96.2940509772995
96.5704987482074
96.7519279744567
96.5125926616853
96.2736748284466
96.219293392211
96.2421688485934
96.0403698081844
96.0100006214015
96.0931918585764
96.225439732658
96.3556150388297
96.3173300461099
96.2039467816688
96.0187382100924
96.2540909390462
96.4371766465106
96.451801326258
97.0424438035933
97.0785202219615
96.6280635300315
96.5182859623905
96.6975416620274
96.5527199756823
96.3430867799708
96.1846247493513
96.0233175539937
95.8545579290795
95.7462437510867
95.7600979950474
95.8053523323194
95.7206713792801
95.4702976422077
95.2866399587242
95.2669578572509
95.4378174533997
95.3161565529579
95.2917330386826
95.3864681339612
95.3005659259684
95.2702945092593
95.309156856875
95.2761520677037
95.3167825412162
95.1578357269864
95.0287918511237
95.0551987291029
95.0129821939094
95.0060181323989
95.0631226279078
95.0202769535215
94.949411874682
94.9106196076269
94.8123342322862
94.8179058172983
94.881861961223
94.9348580824874
94.8572854370431
94.7994282238221
94.8105575283032
94.8451284789881
94.8251676408349
94.7918551934599
94.7879701020189
94.7497737233134
94.8373301945998
94.8107036718718
94.7521335833035
94.9049435046836
94.9144352306788
94.7460701744854
94.7862647389593
94.8360174074636
94.7967240777145
94.7601419023918
94.7245620118149
94.797149477233
94.8219341364983
94.8108228101759
94.8004108741208
94.7478477807762
94.7700402140513
94.8308824266654
94.7810528049065
94.7471112108804
94.8313520566057
94.9151683763612
94.9430690201601
94.8935144802916
94.8388140946149
94.8667080108992
94.8928617781239
94.8769134950761
94.8894281896291
94.9289754601549
94.9502965730475
94.8928602946563
94.872113532765
94.8826844766728
94.9258113323097
95.0187008182579
95.0298440353514
94.9940603411202
95.0124683378075
95.0105456557508
94.9689879934342
94.926481414583
94.897730617954
94.9177149283197
94.9339885639862
94.9121511031322
94.8441731342668
94.7928348305603
94.7894933086523
94.8150168634015
94.7837302480944
94.6796321044132
94.660749794794
94.6413189711512
94.5374707666512
94.4447112563437
94.3879397251021
94.3222936887937
94.2656218412674
94.2259573310923
94.1136010249172
93.947370361645
93.8032236717007
93.8038594422976
93.7285606988172
93.6164858977322
93.5542666143962
93.4585918034374
93.3435250951121
93.3025549993414
93.2458629134888
93.1856953103805
93.1262459442527
92.9991351274317
92.8635291267093
92.8136742605423
92.8413631445707
92.7720367320976
92.6288703897778
92.5260958021921
92.4443302577501
92.3699925392065
92.1010527660377
91.898707726033
91.8766686740009
91.7198205112595
91.5627452811419
91.3884276565001
91.1730334407263
91.0020030782641
90.769268704628
90.2571459474709
89.8515882926657
89.6968826913834
89.6045007195849
89.410902221809
89.1422128632546
88.8211365733696
88.463869556313
88.2987011783104
87.8899999712562
87.3117740254904
87.3161569602859
86.8897331418004
86.692445707422
86.6277418504013
86.3059976838139
85.9716569034134
85.6504465935067
84.8794198139739
84.4545094596501
84.5062397202455
84.2771562728595
84.0220327962204
83.456682971624
83.0969124981271
82.8571446687369
82.3149806682968
81.9369031577919
81.8717336659698
81.5947122693791
80.9840703364171
80.6391016461238
80.420824953216
80.1987878251165
79.7360503953759
78.3939232526823
78.4835202402349
78.8378036987176
78.3176457279542
77.7464470756047
77.7772703686985
77.7061248574792
77.4446942207489
77.1490855168385
76.4245495379065
76.0061635822722
76.3043651506082
76.3090085198259
75.9459208178825
75.5719771218814
75.4036349981563
74.9862215596235
74.8153221524754
74.8319246568636
74.3729828264725
73.7854990372835
73.8489570767359
73.738341115091
73.4334127972655
73.0928424436806
72.8132920940121
72.5334725238464
72.2534194197273
72.0181910888478
71.8191915662657
71.5954694542928
71.3224752023996
71.0777456827908
70.927228489087
70.7530748052805
70.5820923438772
70.4187195563213
70.2494162605758
70.1211804571697
70.0719754614335
69.9864267913082
69.4038362763197
69.237376320363
69.6766075450408
69.6057531239106
69.1892273735934
69.3998691060819
69.5984301776304
69.6376530244002
69.7412014295279
68.8933053027209
68.5236119177577
69.7271342249043
70.2162784577087
70.5291645109061
70.7169676282759
70.8959421408009
71.2608622287051
71.3018670509755
71.4549404297484
71.5283275284274
72.0631234106552
73.2161687016869
73.8097400008107
73.8188996318941
74.2991471630344
74.8181708820373
75.0907660813842
75.3188252734007
75.7077547986143
75.8902055770611
76.2790163742946
76.9570469603888
77.2712428258067
77.7216999271739
78.144283330157
78.3416493120854
78.3947877311069
78.1118680518698
78.8868921986097
79.9960454055271
80.3319231603567
80.3141670474526
80.3236491050529
80.5263091275773
81.0486672713501
81.3017248940317
81.1689292263955
81.3033563091127
81.7354589425871
82.0467755962224
82.1768170134012
82.1822040749716
82.2480212247382
82.224984076094
82.0947479279728
81.9300870391378
81.7602000919897
81.9288841082759
81.9561460183368
81.6328389637589
81.1751829174105
81.0865125775649
81.0024203232248
80.5444257010954
79.7520622535413
79.8062429932949
80.0965989317888
79.9117869756556
79.6155605794809
79.2481704849833
79.0667980316655
78.9907830036819
78.8128658214916
78.5959348959971
78.3222870900548
77.7864136759228
77.6766842542213
77.7093276032136
77.3893993689006
76.9719917645165
76.717891370319
76.4550180440895
75.9818723904456
75.6736177430278
75.1697370647258
74.5948641161263
74.5359270825029
74.3781698070128
74.0340384388526
73.6428031773336
73.3679909143246
73.1329295727286
72.8173524664356
72.6523561959769
72.6263429464894
72.378740886465
72.2155810786961
72.1512637915009
72.0605902298381
72.1859075962444
72.2484906676704
72.108597153809
71.98934981767
72.1486564510572
72.2540479498652
72.3153012704709
72.3898299603382
72.486344888467
72.5140838365513
72.5930595011179
72.8769188727532
73.0896390108859
73.2599933991288
73.4804798855242
73.5815400774525
73.6913511865104
74.0221733513071
74.3137150399092
74.5132037453319
74.6695309789878
74.8753787829328
75.0958631422532
75.3000524308329
75.5278358779029
75.7491500025677
75.9443031429418
76.0846012939334
76.164395299853
76.3866266991908
76.6612866927811
76.8475569535107
76.9780650547383
77.1028569875849
77.2149958929198
77.3166170345065
77.4025180589044
77.4895114026672
77.5638858394373
77.6238500349585
77.7108965826669
77.8033447687476
77.8809833912123
77.975875925328
78.0794677664776
78.1382602881409
78.204506848222
78.3046013383824
78.3897432527608
78.4934344734841
78.596094623404
78.6983541383623
78.7990785898473
78.8796472250454
78.9420728131777
79.0105565584726
79.0724938681186
79.1534041387091
79.2207834097375
79.2554287500285
79.2575141087291
79.2792227693368
79.2952304685328
79.290792787618
79.2814061315146
79.2622397570496
79.2221529698901
79.1863235888256
79.1626574081357
79.1530270787954
79.1318346371006
79.0792521409514
79.0393694481242
79.041980590954
79.0194419513603
78.9735813660123
78.9281596245701
78.890101709461
78.8637405516189
78.8643315715361
78.8486340502363
78.8220213769774
78.806741775641
78.8130494107488
78.8294361622355
78.8430662363919
78.8625022002868
78.9236786794432
78.9784110895318
79.0164546149077
79.0853850838863
79.1671459574083
79.222666643064
79.2957704352139
79.3960659229264
79.5214819320757
79.6284920947814
79.7344239064859
79.8678189546078
79.9979198608293
80.1315589648766
80.2697966726087
80.4017631715953
80.5470786698327
80.6904951615743
80.827569645281
80.9593293559196
81.0809801423497
81.1887555301783
81.2716167585784
81.3322142393395
81.4000644089213
81.4347087580496
81.442797351212
81.4561442491791
81.4678041565814
81.4534569385068
81.4429550133052
81.4181709030178
81.3645049228637
81.3156045878522
81.2665665062072
81.2128021009148
81.139870717022
81.0752194267229
81.0306707238028
80.9319874666838
80.8120943537667
80.6848752749086
80.5267113671901
80.3675059701206
80.2170074548908
80.0454655753605
79.8822271320222
79.7298237080896
79.539037775854
79.3225424315892
79.1137470554329
78.9115080030724
78.678679816787
78.4166597831904
78.1626477379957
77.9065698675328
77.6783086334477
77.4605298210918
77.2158700678812
76.9813441418718
76.7629077415789
76.5328300529418
76.3143548759748
76.0990830246457
75.9140246482776
75.7280183282476
75.5239590739597
75.2892026487997
75.0617117565704
74.8431277737526
74.6211249759436
74.3919456341196
74.1794817274058
73.9466238897729
73.704385426217
73.4639138537225
73.2532886747816
73.0205117272385
72.8018344477267
72.6050114558152
72.4177654424442
72.2361298709626
72.049521277037
71.8650576628938
71.684427936644
71.5175414419891
71.336244926369
71.1469999441863
70.9630136690961
70.7978023423605
70.6407108321529
70.480804340864
70.3416421026713
70.1956948706261
70.0629413146167
69.9591819026044
69.8749009355447
69.8007067921784
69.7094672665874
69.5916004265554
69.516911850381
69.4995462828973
69.4983906261215
69.4993285779546
69.5045009689217
69.5256963355918
69.5688319704443
69.626908087488
69.7154894469199
69.7805530034546
69.8786059084729
70.0114733337584
70.1479741014293
70.2978281947133
70.4577825592257
70.6149213748495
70.80037679918
71.0158280776944
71.2530726845185
71.4693657341241
71.6686469870891
71.904197412978
72.1369621107616
72.3398487948705
72.5753657734016
72.8172939519751
73.0833617644864
73.3473715151611
73.5907686229167
73.8568103926904
74.1377575134122
74.3951822774664
74.638459829855
74.8305351649258
75.0262495646958
75.2461518511115
75.4533019485045
75.6649662053187
75.8786845683678
76.0515615048816
76.2513927360463
76.4396776740626
76.6336462658442
76.8192481640417
77.0001872803638
77.1761598813167
77.3582366779653
77.5458753602408
77.7585317888506
77.9568278274006
78.1233525511133
78.3215410154313
78.5157754881012
78.7040861113963
78.8981798919374
79.0486975553687
79.1882209021301
79.3619217378482
79.486373778575
79.5927983865768
79.7193573999084
79.8061098285819
79.8972927657832
80.0018122272238
80.0919785305292
80.1512188190581
80.1981388338118
80.1778377517994
80.1823224784749
80.2706096505154
80.3532302477444
80.4299384965711
80.5311082045446
80.5847416138877
80.63868573345
80.7178577713715
80.8009559311959
80.83951934013
80.861457904266
80.8595884209736
80.8636344699238
80.8361990653003
80.8269725008696
80.8370915206613
80.850540768009
80.8217231782913
80.7770951009647
80.7795857505266
80.7894315291364
80.7584055620364
80.7310183174134
80.730966031879
80.7331464786404
80.7204532468316
80.6722996387332
80.6524080294743
80.6651640984883
80.6876276516914
80.7150988446289
80.6773453623613
80.639301357679
80.6142318747723
80.5854343285483
80.5488120347921
80.5404416739462
80.4818650374277
80.4066504353311
80.3120256512123
80.2136656224219
80.0903292787272
79.9970479729
79.9140213897539
79.8227357454422
79.7418754974005
79.6682376897817
79.5486419035186
79.4454781588701
79.3475291418054
79.2513383470434
79.1228009006589
78.9973211841672
78.8698735386651
78.7289057751863
78.6340963595115
78.5369550420295
78.414720649471
78.2821016687905
78.2058826235526
78.1469448105681
78.0349972190882
77.9375914835643
77.8082309955845
77.6934935077456
77.6127575461369
77.5645067763429
77.5027735349284
77.4341594910001
77.3477340135479
77.270364688165
77.2322827258896
77.2202200213933
77.1491978938718
77.1217612791189
77.1156506612456
77.1104834852118
77.0696379192979
77.0253422598734
77.031693110292
77.0279138992666
76.9598962229074
76.9031987626159
76.8447437413289
76.7801649284153
76.7474149521248
76.6964298512073
76.6127033981565
76.5743194511476
76.5271326745915
76.4457713988922
76.3917763849708
76.3760841728403
76.3318508972453
76.2387309987631
76.1257080826779
76.0712102229787
75.980630642844
75.8718919474122
75.7719202666852
75.6543560345489
75.535233621803
75.4063304085717
75.3043241948689
75.1879065448795
75.075224625809
75.0210032598689
74.92264519206
74.8021436429927
74.6642559510606
74.5379937979919
74.426212368762
74.2469605845147
74.0744218191429
73.9539824661821
73.8397092378848
73.7266625441957
73.5635416638673
73.4612095690976
73.3812708315835
73.3174626475928
73.2002875657099
73.0843655306373
72.9763243459167
72.8665912645326
72.7455852803289
72.6948471216722
72.5616723086076
72.3873857421387
72.2971474441213
72.2401331148928
72.0593545872819
71.8901549600929
71.7119715388394
71.7787210373625
71.7712116275121
71.5726304362087
71.4470249942983
71.3180688995179
71.1197664656446
70.951036157299
70.8053435874471
70.6678648709129
70.5566196820951
