1798
3999.43349933624
650.420452594757
1
128
4
94.2138264508329
94.1233886708612
94.0255955135551
94.1990657092449
94.2674182206068
94.2122805750127
94.0335801945762
94.0987150423703
94.216288422852
94.2902737513174
94.183060965685
94.2096888552721
94.2191424143404
94.2344148108906
94.2571873343445
94.3021748202742
94.1492075284025
94.0777849544672
94.0434801510142
94.1009461140865
94.1559984697477
94.2994676872197
94.318079822069
94.2601984129243
94.0824285168316
94.1706305906865
94.1173341638584
94.0753370986729
94.0194174166444
94.0550466249426
94.1403757512316
94.320836845779
94.1759292980731
94.1229497611456
94.0358276213793
94.045109676557
94.1178640319521
94.2163998723753
94.0611145554618
94.0926113422114
94.1302845329788
94.0808085370563
93.9025778275156
93.9496784822675
94.0532209528703
94.2358064549563
94.3570499489004
94.3318954567412
94.2029298320504
94.0306187272468
93.4284705586325
93.4205206758181
93.6949521635743
93.8828787876131
93.8824056613586
93.9970605520723
93.9324046516971
93.9783233737152
94.0059549002829
93.8569572214347
93.8869299637174
94.1972716803632
93.98792217118
93.7957094702928
94.0618660783038
94.1131608095537
94.0984820655733
94.1152202457497
93.8964068332181
94.0231288609424
94.0897167221901
93.8438469709023
93.7215214414266
93.9358232398754
94.113035966663
93.9427192976462
93.6180922599538
93.5341706385768
93.6932624625212
94.0316874243628
94.3448487231291
94.3840107562294
94.1857206342759
93.9570220735807
93.6486691094458
93.6666490971377
93.7955669542951
93.9100269210797
93.9376507943714
94.229568848171
94.4598747975124
94.3188140156317
94.1122445312149
94.1771568442173
93.9320792048977
93.8879405383662
93.7693420216137
93.8570697654563
94.3206349719417
94.5697298682991
94.4850858517402
94.4331080582298
94.3033461814849
94.3355599936827
93.876673034003
93.833710966578
94.1541355575897
94.234549084793
94.35818143447
94.6113661855427
94.5824102054605
94.6581115075128
94.5855756127295
94.5507352369878
94.5237693462962
94.5324463989567
94.4545188834392
94.5995953569903
94.6658671767832
94.7036465052809
94.6577807671635
94.4911961908063
94.3559676097872
94.5183878073422
94.4541955861652
94.5604173192981
94.5795057141653
94.5326257426736
94.5340187832412
94.5114446659516
94.2169417477012
93.9589177897912
93.8989589110353
94.0892869117422
94.0086873298044
93.7695431395613
93.9747359464527
94.4316185513168
94.2068836833454
94.0393894524308
93.6823865506105
93.6668647504323
93.7389773708444
94.2748088527333
94.4876489614581
94.4320267694036
94.3874876434445
94.3931846252337
94.3989078681576
94.6358886282807
94.6903152605574
94.667115885135
94.2790152366102
94.1638645082908
94.3282306094905
94.5464488313988
94.6828094977351
94.7388829815241
94.6350389936174
94.7739591839043
94.8023333390903
94.840342286513
94.8404857615317
94.7578153899535
94.4543967338743
94.3068140522787
94.3256253297903
94.5805628928995
94.6367512789346
94.8460903245842
94.7715905304076
94.4372908891253
93.9422016042599
94.0150491678754
94.1141052733036
94.0372344876346
94.2601456503745
94.4880727372322
94.6983046612615
95.0033284770515
94.7821755970252
94.5700164049728
94.3483353293778
94.3868320062661
94.4979895058526
94.2737959483984
93.841242363707
93.7778310618591
93.8430961689977
94.2429688067696
94.4379089015899
94.5411742667686
94.4394088576676
94.4983648481108
94.524379314558
94.4256127295728
94.0544606127408
93.7916744383295
93.9506432759499
94.1326474459757
93.9943670533778
94.0821758848061
93.914417001766
93.8307264297237
93.6677517646745
93.6660645835393
93.7535697097217
93.757533211175
93.5212590952969
93.6534864033921
93.7281351726638
93.6878090254082
93.5633248506851
93.6885878478987
93.7220597455815
93.684719782543
93.4954621208143
93.460318860628
93.3135928808104
93.1081601680808
92.9836580198775
93.1233581635362
93.2360465978124
93.3988432330837
93.3728474388483
93.4297275484393
93.4556471177294
93.4452744611324
93.2852449440021
93.2403744094008
92.9914529424455
92.8335884030298
92.6914529432852
92.7688526127344
92.8685657270728
92.9945169232557
92.9210189120766
92.8646301535264
92.7154266484986
92.7059491704408
92.7026508323464
92.6847994647462
92.5280023933928
92.4532699649618
92.4639369784636
92.6333366074744
92.5467550604527
92.5038559453005
92.4343987353869
92.4814860910377
92.4475248873928
92.3282840026635
92.1835584803334
92.2452201687848
92.099483887881
92.0748101283337
92.0869338585061
92.0357351161525
91.7942879759836
91.778283362345
91.7586383663852
91.7112069113636
91.7291552539959
91.9220532817813
91.8213592361533
91.7905056701619
91.6116258267951
91.4144973303575
91.3963006583018
91.4537387721438
91.2993112431203
91.3945579268583
91.3964020061596
91.3039385413094
91.1528775428154
91.1183157533674
91.0723647440516
91.1396822289251
91.1301876360398
91.1508124625768
91.0570393098359
91.104939635787
91.0686063256582
90.9434811996332
90.7358315723863
90.7626635078545
90.7521973842643
90.8178712504435
90.729808950213
90.6559851913421
90.5450863319526
90.5707289656615
90.5648551974629
90.5337565287217
90.2516734752275
90.2522774292724
90.2839495604604
90.1839617718617
90.0804212469703
90.1968545712095
90.2129639547137
90.2179539497239
90.0399256274141
90.0029683028271
90.059292425794
90.1339142257255
89.9505763862424
89.8796688630666
89.7363384580261
89.6250792125184
89.5051151277294
89.5366187256045
89.5191798417281
89.5659627218378
89.5699082150742
89.6005959769116
89.4394803152342
89.3950804439123
89.3552877994878
89.4019545261297
89.360772424494
89.3066448626057
89.2014894374661
89.2092304740619
89.0712703286814
89.052167144168
89.0184907864422
89.0192278031068
89.0127235051031
89.0494729703977
88.960138473957
88.9758497206255
88.9038474420423
88.897200668354
88.8083623163222
88.821599646527
88.7836902909702
88.7761204832652
88.6567056557876
88.6830275242454
88.6970067069345
88.7156204247938
88.639724264786
88.636507237741
88.5520570583894
88.5234367166336
88.4804794738293
88.541698413007
88.5782476088049
88.5380033712713
88.3730508918704
88.4196894987192
88.4101408417967
88.4447282877865
88.4754159600879
88.4609140672151
88.3244208478993
88.3593415035757
88.3278729729615
88.3590710257715
88.3001795632913
88.2832284888883
88.3096983510482
88.4381967452914
88.3442846725642
88.2402094598142
88.162679039537
88.2163003085774
88.2363700993419
88.3110488775423
88.271966649208
88.2481252788268
88.1848637015337
88.1525442748685
88.1364897162926
88.2115604929661
88.1630364954853
88.1973406404202
88.2144534723819
88.2222572445153
88.1393364381891
88.1221129501342
88.1005998419219
88.1012904545302
88.045727552575
88.0864258817173
88.0574223823036
88.1197619004199
88.0908580542403
88.084545652667
88.0330150838671
88.0817288115266
88.059376085596
88.1422612986673
88.13446066955
88.134221848432
88.0778540301639
88.075759966976
87.993644213313
88.0452220143889
88.1004613155704
88.1748527470747
88.1135675670137
88.0961716985137
88.0580818295215
88.117186448336
88.1298169985784
88.1463013438783
88.0933679863045
88.1791410308901
88.1599254251276
88.1570199606056
88.013196529984
88.0097617262555
88.0984582696465
88.2386372331768
88.1834779368305
88.1505287498767
88.0820517299971
88.1240382341951
88.0954555499193
88.1257538605953
88.1248411138546
88.2356112214286
88.2323437058194
88.2440655922702
88.2359573812389
88.2305726753156
88.2086658697732
88.327735524991
88.3268166939339
88.3106008999398
88.2921932554407
88.3238635724264
88.2463099343431
88.3030396495154
88.3312150229445
88.336833767889
88.2959328768217
88.5032860182393
88.5765130764403
88.5549477980775
88.4795274871707
88.4645109900224
88.3877699240795
88.4499746288135
88.5193894775851
88.6225048298553
88.5953045518013
88.5786888323105
88.5904082747514
88.7067574125395
88.6676175250476
88.7181314248765
88.8252508751696
88.9492702738327
88.898124832625
88.8847137206365
88.8607231810479
88.9030989490987
88.8570281110336
88.9211737849294
89.0133375179022
89.1392637242736
89.0993676506252
89.0584399735499
89.0188733606625
89.1131709086785
89.1113197956641
89.139264031923
89.1232281967414
89.1663241426815
89.2058417611077
89.3279639276243
89.3206753282877
89.3541732150901
89.3278463604779
89.3621602358808
89.3813651858514
89.451463232603
89.3896106826989
89.3928644724196
89.4079845903039
89.4800983454995
89.4770775392611
89.4880004887586
89.4488827133308
89.5568610318059
89.5756272050566
89.6288738149431
89.6331137377883
89.6764715192143
89.6694960128004
89.7019307415352
89.6726714357029
89.6860543355538
89.6482664964499
89.7645846027902
89.8079795282724
89.8212769214185
89.8126905125795
89.8672159703388
89.7908921049312
89.7956241148574
89.8470178708924
89.9476284634316
89.9367077368458
89.9687004589913
89.9571426772523
89.9730188137566
89.9885078898077
90.0644253984376
90.0646194023523
90.1388249121935
90.1454556698569
90.1337028780462
90.1204414507138
90.1836467981421
90.1663186577881
90.2284992376393
90.2145472187147
90.2254353877479
90.2323725795663
90.3233329226996
90.3191047001456
90.2908249450555
90.2565550469938
90.3338363496237
90.3022045552971
90.257042949154
90.1618756170191
90.2284545226652
90.2865073145423
90.3332219681243
90.3010670508068
90.2846922927357
90.213261861436
90.2580100905943
90.2130788616822
90.1853517990889
90.138614185563
90.1533360910391
90.1851818760987
90.1458976846366
90.0306491802755
90.1053616895095
90.1283819742162
90.1135031259945
89.9821957339575
89.921554228412
89.884223261319
89.9183572219373
89.9061013748287
89.9185894228265
89.8608060047898
89.8582798474815
89.8437193561824
89.8554080617601
89.7923642067003
89.7834406253878
89.7780265826345
89.8896578930392
89.9201498786836
89.884830127047
89.8346159602809
89.8764099183789
89.8632137944907
89.8283427510322
89.7184868827828
89.7295169372192
89.7091584988075
89.6893146703257
89.6322393705942
89.696267814932
89.7432824503061
89.7507320582633
89.6954765439288
89.6904887896906
89.6743088357897
89.719467390026
89.7486865186542
89.8327203408879
89.8474308140961
89.9495802179895
89.971639306909
90.0119479885847
90.0414408997099
90.0336616100417
90.0239936313527
90.0809971423437
90.0907401440281
90.1555101427418
90.1691037447876
90.2983092878123
90.3399155280996
90.3326906410726
90.2928701363452
90.3545167695302
90.385288255498
90.4286632710182
90.4564871401151
90.474612213371
90.4444447785624
90.5314625018016
90.5561910797993
90.5453331157896
90.5319137727897
90.5935881873997
90.6060728171863
90.6652256936452
90.7072275299505
90.7811936990836
90.8259326293874
90.8583002846639
90.8622280676474
90.9472932152451
90.9320998625088
90.9516901155079
91.0219190220854
91.1103521900498
91.0885643760542
91.0897080009803
91.1226288652563
91.217204706925
91.2612153448933
91.3398555610741
91.3676083666299
91.4151326200129
91.4157527277837
91.4141884172996
91.4359420039053
91.5196098538338
91.4904635205984
91.537189134001
91.5978587715205
91.6337962051094
91.6183171205763
91.6450796844846
91.6374370888733
91.6724647515945
91.6632712410706
91.6909306127331
91.6991601637183
91.7270216550803
91.7464114932805
91.8213622181725
91.8541030542245
91.8277538169631
91.7793351914693
91.8750446743651
91.9071015362176
91.8958530372444
91.8779486753459
91.9124927875119
91.9297742335548
91.9874193942887
91.994360004515
92.002993966981
91.9930045540409
92.0250663435578
92.0396558599091
92.0780630220994
92.0646339254335
92.0756747603545
92.0213776813172
92.0426835624062
92.1147287313414
92.1629245357935
92.1251461468408
92.1135054169724
92.1034601986127
92.1829614868032
92.1996732190375
92.2035879673167
92.2037643648937
92.2178736053781
92.2013492559373
92.2216480737176
92.1906283160414
92.22472717606
92.3037281911927
92.3321705103161
92.295779625688
92.3545471981813
92.3766803679483
92.3999444664371
92.3766904866958
92.3595741764818
92.3458086871273
92.3871984146971
92.3972142086348
92.4479416905264
92.4466302927652
92.4466853010007
92.446389412904
92.4590160527359
92.4740123497098
92.5070488935826
92.4748442361721
92.5104285372009
92.55337674355
92.5971669681343
92.565172028122
92.5490931625027
92.5592799892939
92.6117794892682
92.6184834200033
92.5969210225224
92.5988316982011
92.6522965850465
92.662538091329
92.7182046313824
92.6982711040078
92.6919830301098
92.6785233970435
92.6752087731645
92.6796096902046
92.7210786304161
92.7185333731799
92.7193171292627
92.705126246531
92.693055732899
92.6680313912587
92.7214629813081
92.7379343041032
92.7546528938053
92.7503192610747
92.7910941616222
92.8497312054191
92.8994660561268
92.8420207509025
92.8470060490892
92.8979380870482
92.9350710544319
92.9083779066889
92.9886462979883
93.0327806282061
93.0361559765157
93.0016441522291
93.0462716593706
93.125425889319
93.1679728482156
93.127368823575
93.1606728099545
93.196199988678
93.2700479011875
93.2975746332103
93.2936482547265
93.2196398182565
93.2462305980496
93.2438471946416
93.2462817217585
93.292901051697
93.3589138669162
93.3277913158
93.3483803217494
93.4268045955344
93.5329095977236
93.4924969607073
93.5170420128549
93.5927736258393
93.6409910094295
93.5342158059137
93.4857986990936
93.5343310292958
93.6421801273832
93.6332163088383
93.5908570318721
93.5773623845909
93.6488282287615
93.5949271491362
93.5998417320769
93.6397900150554
93.7049461554513
93.700701775615
93.699131029228
93.6247571277873
93.6753124240308
93.7716331604707
93.8539703322665
93.8203327699095
93.8360107089262
93.8489294177565
93.8752091112143
93.8677311914778
93.8842891894128
93.8456372676259
93.8612443758303
93.861866005811
93.8727411958711
93.8571138188882
93.854546741983
93.8199396022374
93.8174633820795
93.8412384825438
93.9255189535619
93.8691382238205
93.9360158544173
93.9594586975951
93.8405437074508
93.7772758176151
93.8777142309237
93.9088892117465
93.9664760872078
93.9406496754755
93.8964025159555
93.9424382217929
94.0393681172267
94.0038133740312
94.016625230447
93.9940758821028
94.0162584573128
94.0079808645772
94.0041611403858
94.0410768145037
94.0451678903365
93.9837780996514
94.0491373310245
94.0682873684075
94.0804412030857
94.0249867706675
94.0567759604777
94.0947387250697
94.0072607886847
93.9313223815636
93.9846961599796
94.0399046066429
94.0926309761985
94.0395431854951
94.0135114106683
94.0795317317637
94.173297310737
94.1962033097694
94.2144423563759
94.1173590576608
94.1009290852574
94.1232676071292
94.1773585398226
94.1982391293907
94.2326385385128
94.2431714103145
94.205889215375
94.1249649135949
94.2053795693081
94.2812497327318
94.2264323407875
94.118480823363
94.1066712057965
94.158950226462
94.2109658819214
94.149584461448
94.1480438382292
94.1731589695594
94.1707734013115
94.1473209060242
94.2037186424275
94.201037195691
94.1644457140107
94.1361026331843
94.1803059413915
94.2113238266878
94.2273594132174
94.1748958612068
94.1488612282567
94.1516665443854
94.1480857563659
94.1425026680755
94.1540853461929
94.0789935527469
93.9884283726974
93.9374132947138
93.9722589577207
94.1194352970772
94.2960639437748
94.3387835621329
94.4275661229884
94.5013619398773
94.5725258958645
94.591346903251
94.6491294281961
94.6297201833926
94.7330479874526
94.7986698126832
94.8305481935729
94.7532715258604
94.5641442303945
94.3214461170053
94.1984811016814
94.315842455865
94.554832853791
94.6477039263954
94.5747202430643
94.4877599524936
94.46460587574
94.4464269378245
94.4920201977842
94.5636393270086
94.5350760427197
94.3527195807402
94.1753792298604
94.0965814389208
94.205565361833
94.295027936379
94.2506221162007
94.1650899534235
94.1967445596741
94.2413125591977
94.3056157816948
94.3637390588266
94.3572222037984
94.3286705860191
94.3672780155247
94.3987967183282
94.4315285464314
94.3670721202044
94.3511804574598
94.4308085447259
94.5166072485087
94.5033026825448
94.5210498076264
94.5448753595047
94.652842905725
94.681964867779
94.7298323355448
94.8217957228369
94.9187130407435
94.9434730971611
95.0467703942992
95.061309044045
94.9755320671747
95.0140193331278
95.2303400551854
95.2379741453952
95.2129416621021
95.204392236821
95.3095683441416
95.3170649881469
95.2865740224151
95.3376143771468
95.4796882773694
95.4348764618625
95.3864311998798
95.4598969624849
95.3602536165289
95.1812206316575
95.5298259032454
95.8997362728037
95.9094781584142
95.6669927574981
95.6058437864132
95.6120765252987
95.8167018591804
96.0740588574419
96.1458565881469
95.8879518903772
95.7955549461713
95.9225013893118
96.156021916031
96.166483124982
96.416182061327
96.6612505143964
96.5162892575122
96.4423861479639
96.5104297701834
96.4371720519912
96.6137128828216
96.466089529405
96.4087794998979
96.6958655568908
96.7593194968761
96.3870430481823
96.5212030508946
96.734365357314
96.8964532792105
97.1660864980527
97.4399184360372
97.3207188543777
97.1915570654241
97.1936764086977
97.2271550052011
97.2154228105465
97.4290238538038
97.3118396422721
97.3122141082525
97.1499752138048
97.4074029490426
98.167049757886
98.5638720476041
98.2768509178174
98.2086943404929
97.9623005573567
97.6732564079375
97.6670168766688
97.7077751902948
97.2101647887852
96.9515253469633
96.9705305979394
97.0107704450138
96.7142728254713
96.4251740279024
96.394239739876
96.5002237408986
96.3115230513312
96.1342089680556
96.0089482610578
95.9140214192695
95.8274093959844
95.8515374695479
95.8943923749476
95.9322029230034
95.7230325001965
95.6697129760905
95.8020781175031
95.7380988830949
95.620178522653
95.8383555662616
95.9574390120133
95.8275178246999
95.7088895024807
95.8064466519083
95.9164673192238
95.9134589966625
95.7731873485845
95.8307022175746
95.781926436455
95.7755025503043
95.8348807684025
95.8858750734925
95.8273101216035
95.8601053453414
95.832580119749
95.7851931946733
95.8568551901711
96.0913974758118
96.1667418150506
96.2954129396267
96.3253419419454
96.3104467638564
96.132939963985
96.2362700418111
96.5554041749837
96.6488793282291
96.5295771072984
96.6950784929099
96.6997899547657
96.7293730915776
96.9503358372643
97.0397793093189
97.0878458186622
97.384479273974
97.4816057401041
97.6517765496662
97.6107305193038
97.4160686982825
97.416551033429
98.0399296148541
98.2620611500975
98.3811612934318
98.5137175113857
98.4232870513936
97.9240507003667
97.9744434660074
98.1210071868902
97.980152763095
97.7377484926033
97.7555805967851
97.9179025975374
98.0112856798101
97.7307908705109
97.8346691460559
97.9704614208545
97.8185695391883
97.5251526559565
97.4735805616373
97.3025172548537
97.2562630463715
97.2790912386049
97.1590478786705
96.9556183099232
97.1369880177615
97.2469459461711
97.2649431806543
97.3001695837002
97.7947685408527
97.9511505520413
97.9067439217434
97.7483718163143
97.7457894888025
97.8817840535394
98.0085011146694
97.8654479087768
97.9499607174487
97.5152267398472
97.0032839309643
97.181276623824
97.5548855234129
97.4207802850969
97.2139804788393
97.0982717073851
97.0873152971362
96.926568718472
96.7553178814498
96.6286576117443
96.6541489006069
96.4505888562755
96.527322292121
96.6071861546942
96.5302447514875
96.3733134286192
96.5858827202629
96.6788086669607
96.5564856973263
96.3734740345491
96.3584919584902
96.1058472939577
96.0226046417836
96.0850741776103
96.12748415062
96.2085665040361
96.2068966687316
96.098427976964
95.9625852451852
95.9352922836813
96.1436465917572
96.1835191083871
96.138445704636
96.1263485693945
96.2311565871082
96.0471868956576
95.8685824851901
95.945520174681
96.0574729920031
95.8656605678293
95.9642836872876
96.0140825283583
96.0435231725826
96.0413533907758
96.0411106271383
96.0369503203124
96.07082817212
96.0094674509566
96.006320027983
95.8417969230314
95.6259835655214
95.7220246566524
95.9275649115868
96.0030936657562
96.0483382878205
95.948586748371
96.017404588346
96.0459510437077
96.1026281549807
96.0530580999345
96.0367745111748
95.8116959073868
95.7426501680204
95.4898396086745
95.6926551707668
96.0983375393189
96.065062583788
95.9855038964208
95.9953819555874
95.8944581004859
95.8188684468658
95.6103870326374
95.781510398797
95.8409518710885
95.807808719756
96.0259288263122
96.0813015331946
96.0529552802177
96.0577596415727
96.0754059973641
95.9733928961518
95.8575274832148
95.9524892182569
96.0262339356958
95.9845819467507
95.8627474468089
95.7275480676335
95.696198184104
95.7648313853246
95.7161927336009
95.6227584997138
95.3526557884734
95.4892108215289
95.782418551298
95.7264716658745
95.5559696822579
95.5391145115727
95.4988481340512
95.4161040198851
95.4536611216173
95.1896435111082
94.9655694678724
94.6203913964428
94.9767613524853
95.0049265054488
95.0097944813482
95.0825351872401
94.7906040101462
94.6758638602874
94.8807924360224
94.7174104227845
94.6947170839856
94.650486322597
94.0985869818363
93.9844810271758
94.1658234972524
94.3409249423759
94.2831482836956
94.1862765025026
94.0460277392202
93.8840452416543
93.9466015846251
93.1954751444849
93.212076669222
93.7569896146045
93.7131818418239
93.7950868768956
93.6113381275275
93.3568069274486
93.0606118587671
92.6469760058805
91.8448801334408
91.8606249272692
92.097027759573
92.3148191491397
92.1623942347862
91.8535004726693
91.4316486766681
90.9174074604522
90.8563152873922
90.1957778948122
89.6090614990142
90.2272071421301
89.7187117015826
90.2096221025952
90.1635013559679
89.7238203014563
89.230960850862
88.8609882936403
87.8723859590356
88.1814191015825
88.5398425430139
88.324217841822
88.0754928553777
87.3648068148484
87.3458110676446
87.0996317116487
86.646460386101
86.7224592552071
86.8066384650671
86.3639884342906
85.9372016360692
86.0289698043726
85.7459681500444
85.1691056612077
84.2008834445948
83.2341882198656
84.2858594649098
84.4155945102086
83.5898914772852
83.5692982730321
83.9708493049957
83.8447120054566
83.4038892494801
82.9006740298689
82.1659543752199
82.4621032865668
83.02312495803
82.8544186726688
82.4018926762809
82.1340692987496
82.0017105859825
81.6605826732802
81.775555458939
81.6727771447644
81.1267454744165
80.9496453953935
81.3094245841423
81.1134756458887
80.8191256616902
80.5091142270058
80.4072862697668
80.225983902183
80.0365442719047
79.8571533471648
79.7441976983251
79.5599741893771
79.3546842639104
79.2165073388779
79.1183088836711
78.9922991712541
78.9003189280754
78.7969102234234
78.6843692147391
78.571096748876
78.3899432129947
78.114597759302
77.5558408754065
77.9437887576578
78.3414829644922
77.9312835667127
77.6691745733935
78.1262495050592
78.0942889949253
77.9638529588996
77.4954698003819
76.0870277607927
76.6859027298287
78.3125591602976
78.5337175560225
78.8513416088158
78.7938424341668
79.0249700426379
79.1705475180879
78.7320068935812
78.6052235608582
78.4535504234399
79.2350185713467
80.7365430353325
81.0873540936898
80.6578405843112
81.2942941428066
81.7357792513107
81.7266081880204
81.5991028470468
81.8153590323356
81.7164682214959
81.9401640298502
82.8434650730536
82.8995934988788
83.4867896799819
83.7791383467467
83.6538049421798
83.3429260423866
82.700311097963
83.7246845996416
85.4534067357829
85.7061862608835
85.428642597127
85.2271563852364
85.4471329313021
86.1298961048635
86.3518900842335
85.8472791859301
85.9433349604165
86.469865318588
86.9632212099625
87.1794883069609
87.1263079404118
87.1866007117768
86.9752774583893
86.5740362116051
86.3496541893335
86.2470921737282
87.0076248516091
87.0997102356569
86.6848210966595
86.1867119486949
86.3696614477743
86.1429887300912
85.3566945696729
84.4290828134634
85.0877011727847
85.6612598335547
85.4382759671124
85.1841391694545
84.8105898441819
84.9142093597204
84.9460795220973
84.7581336914171
84.5122004793542
84.1388855083762
83.4903513759447
83.8733252017602
84.0085199246394
83.6378717068326
83.3729692244918
83.3530618439898
83.0697278064293
82.5822791031931
82.3515474568653
81.6218292822704
81.3859133018235
81.7560172196472
81.6788193119165
81.4113499395083
81.0797285971649
80.9223647573184
80.6733490092553
80.4041222762825
80.3574005195946
80.2902057523417
79.8450997387101
79.7877026957915
79.6621653422544
79.6991955253083
80.0558482543504
80.064126947938
79.7973754166015
79.7889529477176
80.1369813586473
80.1923067703122
80.1975219558204
80.1543085362858
80.1840176423077
80.0843367123323
80.1811794992212
80.5757453107673
80.696665607501
80.788560804406
80.9392974238362
80.8334598777991
80.8393189187984
81.27791609543
81.6169331534052
81.7491915395811
81.8688262882935
82.058775148988
82.2194378043897
82.3793126069216
82.534712750376
82.6553056979898
82.7647530850743
82.7624422809477
82.6734851098764
82.8760037153275
83.185473000655
83.4085675569617
83.5208562527621
83.5962933333265
83.6752535919767
83.7675023051507
83.8237990168504
83.8871983112281
83.9084185602433
83.9133688602999
83.9942200616211
84.0748253411466
84.1057032305534
84.1969767914348
84.29697601602
84.3470660033617
84.403091424278
84.463697571334
84.5255602030588
84.5892174349933
84.6366518960467
84.6823261031575
84.7521090304274
84.8183629033258
84.8494404346378
84.8837322137689
84.9169978001417
84.9903450060093
85.0429567011882
85.0528443937018
85.0476746327084
85.0617474179026
85.0558455180276
85.053806256496
85.0265945487004
84.9765936950499
84.9364569646275
84.9101357527712
84.8791246238434
84.8391721212002
84.7767010171742
84.7215484742422
84.7067264754072
84.698118719679
84.6758993550374
84.6351953673693
84.5993879918129
84.5870171780551
84.5766670662687
84.5431712562751
84.5051282186296
84.5000479628147
84.5199780240346
84.5338720107967
84.5200863266132
84.5063905057198
84.5236862867876
84.5620050272908
84.6228783311444
84.6830284873292
84.7155770810924
84.780357017933
84.8459790889608
84.8902695003496
84.9593366291261
85.0660314925943
85.1567574617907
85.2482690544597
85.3603915673295
85.4837396032078
85.5882151988365
85.6775555609238
85.7919382981764
85.9250268717996
86.0271672805514
86.1356549235882
86.2450414141762
86.3413279585591
86.4192137892768
86.4949859382811
86.5676374914305
86.6314695608456
86.6941248990608
86.7426799739367
86.7334122403672
86.7022836318485
86.6747777426212
86.6576766521496
86.6442869090681
86.6251095288666
86.5873228142095
86.5646048130567
86.5495396541596
86.49548505508
86.415446459249
86.368549756454
86.3119295671573
86.2292410088402
86.1133968353906
85.9931792587304
85.8939431284597
85.7931670023378
85.664405645175
85.5281409628368
85.3898565897497
85.2452076641243
85.1112078953422
84.9680981346294
84.7838857070323
84.6055894388851
84.419023267195
84.2186125905243
84.0365966548403
83.8653111094909
83.6718004073731
83.4745383791595
83.3053121626044
83.146898437947
82.9686456186624
82.8051625025363
82.6478990386152
82.4655870307782
82.2852178451658
82.1149932279151
81.940473788849
81.7704360675309
81.5995287438305
81.4272895577172
81.2219582455159
81.0138103878048
80.8134256257674
80.631185649049
80.4056628719211
80.1799194263559
79.9998964588265
79.8228359071525
79.6252999583776
79.433805508968
79.2572101262145
79.0861325759047
78.9094780126696
78.7660420817245
78.6458355061733
78.49309540919
78.290612721165
78.1044602362655
77.9798615591946
77.9018522200737
77.7650297748023
77.6015986875635
77.4577721600104
77.3545165755114
77.2650825160917
77.157316603862
77.0945564832491
77.0764001090677
77.0209883126399
76.948771470131
76.9039946238954
76.9059744239608
76.9285401188884
76.9603085907384
77.0021827409702
77.0558759166628
77.1120897048652
77.1383827593523
77.1921780803824
77.3132051980787
77.4129648126959
77.5064551780878
77.6019849194312
77.7304094082359
77.8796697530341
78.0342298727375
78.1892398005888
78.3555149875744
78.5191545474662
78.7049893390776
78.8893936912603
79.0908507828115
79.2762699913296
79.4462379602703
79.6317768243184
79.8457189179258
80.0325650308978
80.2155658529006
80.4125536338569
80.616453686266
80.8184734312562
80.9986690029133
81.1489370845006
81.3042937362646
81.4786359809607
81.6493506841477
81.7866684980825
81.9544229174236
82.1260453929034
82.2602364233256
82.3809350320627
82.5252409219589
82.6695317192535
82.7991268504847
82.9411084599495
83.1048764998069
83.2635739464063
83.4174652192425
83.5744208491182
83.7426357240136
83.8674472294914
84.0071111460977
84.164046705907
84.3161259788536
84.436768771383
84.5538138991972
84.6782461290338
84.7544548612872
84.8234418386643
84.9526244272551
85.0715124201795
85.1559555670951
85.1955487555051
85.2520771855799
85.3258633693272
85.3699058091499
85.3578912880518
85.3709354012466
85.4306421052286
85.4846745423721
85.5450050249202
85.5921912385987
85.6414690474281
85.7327710450537
85.7928238473024
85.8287116661189
85.8556469822211
85.8915437984859
85.9050301744276
85.9110675821117
85.9151016921005
85.9247655161927
85.9361105403143
85.9655568434559
85.9660017161273
85.942755067724
85.931048853899
85.9267035029147
85.9230594809832
85.9405859599214
85.9313725741314
85.9182060248869
85.8982151603548
85.8973913429456
85.8638893490959
85.855236307805
85.9170133960346
85.9517546426044
85.9141673255114
85.8999362733252
85.8788697009027
85.8620512899905
85.8612106477625
85.8599681449901
85.7911489421915
85.7239312435697
85.6493646003787
85.5807222826782
85.5497949538755
85.4858781125349
85.3991511360808
85.3445636275874
85.3102873011403
85.2334303296865
85.1328967787722
85.086626162473
85.0241710240171
84.9558206153498
84.8745873230531
84.7441275206862
84.5969673038946
84.52089872089
84.4339484434041
84.3341993710624
84.2694359644236
84.2216269798581
84.1547293662019
84.0960052050686
84.0515246329822
84.000360742023
83.8956535649668
83.8057563815452
83.740964810644
83.7184856387307
83.7029543280527
83.6811937907731
83.5964692951721
83.5076189091186
83.4398730239446
83.4415900097059
83.4456773100027
83.4352948060619
83.450301461933
83.4867373068927
83.4806509597697
83.4540591858426
83.3870297128495
83.3802333941339
83.395611173373
83.3980908856113
83.3792485966538
83.3652009826518
83.3649623760212
83.3421485482741
83.2757851319462
83.2877097970558
83.2936909141044
83.2403146731642
83.1561268917485
83.0958110832717
83.0473269237686
83.0611470235261
83.0195923176579
82.9652326677422
82.9038872227442
82.8359955561274
82.744040026849
82.7126308104325
82.7150289397403
82.5939427009692
82.451752344631
82.4083610617073
82.3352368233197
82.2872768021794
82.2047264553975
82.1406218631148
82.0312971083566
81.9616228204773
81.9047409522639
81.7971039602775
81.690245148928
81.576355344854
81.4896528218578
81.4327340269049
81.3312769562009
81.2920056516085
81.2074801280366
81.1381763665047
81.0652938145684
81.03396309872
80.9844337030639
80.9650258067509
80.8720505668363
80.7923430175536
80.6867251540555
80.6416837003328
80.5916506841466
80.5350563072058
80.3425285198228
80.2851027216584
79.9453907339333
80.3201745692628
80.3636635627958
79.9667565673156
79.8721039401133
79.7693097715266
79.7169116457078
79.609053902434
79.5208022397804
79.3663212358325
79.2439057503652
