1798
3999.43349933624
650.420452594757
1
128
4
95.1628901920464
95.0710218310641
94.9790370347197
95.0060018198738
94.9486644070075
94.959223148777
95.0938616137793
95.1380327521681
95.1754184356945
95.1302518787199
95.1193643528905
95.1032405883277
95.0471077464243
94.959378328663
94.9722856772607
95.1005398647546
95.0686766207182
94.9164424494609
94.9285256354762
94.9945498364689
94.9906126432319
95.0250666571695
95.0856898541765
95.0553033906904
95.0692226921949
95.097966686998
95.1284536402781
95.0678723552082
95.002748122231
95.0424607169199
95.0058274897889
95.0389689209742
95.1621284694791
95.134454360166
95.1145690807068
95.111750365974
95.1331365343696
95.2109371502248
95.150619886645
95.0010941014271
95.006566844555
95.0080475288605
94.9548199976497
94.992152014065
95.1570381394518
95.2034174533593
95.1367180434484
95.1051011016049
95.1451588670686
95.1875676529187
95.1764109697037
95.073445677867
94.9616511461158
94.9153415064118
94.9880549971677
95.1490214269027
95.2239094855966
95.1314011930409
95.107359803148
95.1327672873887
95.1038395638688
95.0351119292042
95.054845708654
95.10078403281
95.0191508645353
95.0062503346423
95.1368856376978
95.1386120025541
95.1046018746219
95.154782747562
95.273576339072
95.3120324133849
95.2170264149942
95.1062942354983
95.1871292366536
95.2685856280683
95.2211690651354
95.0179682037056
94.8474324725848
95.034763944448
95.253307378144
95.2249063710399
95.2897977924891
95.328945560611
95.2960068168442
95.294501835884
95.2483658231705
95.227280155344
95.2894608833873
95.1950292153806
95.0739681010128
95.0879471656843
95.1515352835746
95.2425596257048
95.2901327574996
95.1928661846661
95.2146287219848
95.2410963359218
95.2464955121875
95.2993878410443
95.3477829793867
95.2530344428948
95.2275360565609
95.3233125827528
95.2819832811701
95.2330488457353
95.2098838860253
95.1951693030768
95.3185562726992
95.2738082190193
95.2025247956121
95.3670728894042
95.4542914550688
95.3428107247444
95.3590059882595
95.4795915920932
95.3958539420234
95.2195910810481
95.2145946293878
95.374569970272
95.5567495342432
95.5576306899362
95.4824739407214
95.4663734726435
95.5252403270158
95.4297460867093
95.3578080657506
95.3873211466377
95.491247962302
95.6406399606997
95.7174986950844
95.6304075625539
95.5536865665125
95.43660314161
95.443420823301
95.3757553069144
95.3011059578544
95.4263706182487
95.5868931502896
95.5214873807293
95.4122372614317
95.5200957708381
95.6460661692559
95.4989263001913
95.407861786109
95.4701142544479
95.5675085249068
95.560668962067
95.475794489634
95.4403339753562
95.5126838917327
95.7384526362748
95.8144592900335
95.6256976285647
95.5165591970425
95.5936647664991
95.6113190779029
95.5087369764902
95.515487080115
95.5533639914418
95.646883902667
95.7335228734665
95.7629302292926
95.7706311158806
95.752394936142
95.6202803411465
95.5029359541047
95.4725833872655
95.5671361552236
95.6938408466134
95.7140970466072
95.6663886451224
95.580808832591
95.5609138622651
95.6377886025915
95.4832792355137
95.2731737424838
95.3488305061572
95.5536330002704
95.4582386666963
95.4063026464891
95.3598111567966
95.3101526083877
95.4228598091782
95.5137351506934
95.5011335591467
95.3671609402891
95.1844929918265
95.1232888727472
95.0702326405317
95.0580498761307
95.0270368509046
95.0586071710195
95.0625952197892
95.0623425016298
95.1277977146587
95.1431821564188
95.0301957282084
94.867401646258
94.7090197634731
94.6407098160151
94.409741025067
94.2719574107231
94.3127938087694
94.3293678618241
94.2472103527915
94.2231319454106
94.2493258154576
94.1637429342469
94.0424749687121
94.0289709541486
93.9344450164468
93.8111115384959
93.7176738743184
93.5782036380704
93.3989819639943
93.4012929365248
93.4189040294913
93.4066120268735
93.3285761111294
93.2318047318496
93.2090900061288
93.1395421132821
92.9681994890852
92.8980472845633
92.8140464539964
92.7788866460125
92.8231711201706
92.8436951553001
92.6489176192183
92.3678104955334
92.2296062486362
92.218679780385
92.0902382387669
91.9584087125067
91.9004056514854
91.8572221389158
91.6452058907528
91.5726483061457
91.6566314690448
91.612965580868
91.5296777160485
91.3571732502234
91.1231609694714
91.3518628495216
91.3772352818392
91.0596803237291
90.9813883467667
91.0850891721338
91.2540920664893
91.3618981673684
91.0888057519466
90.7051492614763
90.5931473797091
90.4640977891837
90.2095454617994
90.0651123256476
89.7964018913572
89.6695446513043
89.7885544068452
89.9952332284738
89.9034101741063
89.7365271776119
89.8531264084174
89.9361468658724
89.6693931928953
89.378012804491
89.2703426733845
89.2735715196844
89.0684264543623
88.8141922322918
88.7409835330629
88.9202248308146
88.8006964254184
88.3587051391435
88.3936497747896
88.4454745663087
87.9890849999461
87.7595861525556
87.7266391438965
87.7867354244877
87.9542960276095
88.0414547724964
87.7570110399642
87.382800367909
87.6010784797257
87.4955426169236
87.1105055049
87.5377205954429
87.6091198927792
87.0877094668029
87.035781517981
87.1010779770236
87.1338440828021
87.4318397470961
87.3891966597299
86.8353843470318
86.5586348151604
86.740387795793
86.5553410393013
86.1822707632895
85.9528158384641
85.8213540767406
85.8255623981895
85.9077459447671
86.0016832718146
85.9689889593235
85.8845722275617
86.0379855358435
85.9850332447742
85.9851397670589
86.0538388633687
85.7412766277073
85.2172358784743
85.1031693594504
85.0397266685826
84.8346879124165
84.4977152963418
84.2899263616881
84.4676355155536
84.6758595158439
84.6361187772068
84.3797378739535
84.0948624942753
84.0718997973755
84.4230857242195
84.6922990035602
84.6077258708337
84.3986277440624
84.1206131942002
84.1398068619611
84.0625522593336
83.8057307073545
83.8348205343775
83.927444907156
83.7439553098223
83.5900130279496
83.4987080366816
83.4358090678262
83.4249101745782
83.4665551185756
83.3789498938963
83.2309129588651
83.1880020177597
83.2147945725905
83.1342505283886
83.07348655786
83.128277088708
83.0478562092574
82.8213141917493
82.7767631357328
82.7647462604994
82.7502460161896
82.7511984343224
82.7321001688373
82.6101813607702
82.6173166311646
82.6338582645142
82.6038326965004
82.6034301867994
82.5070706795263
82.3479564819244
82.3874721695525
82.3550927438092
82.2674971776372
82.2502083374429
82.2234395640413
82.0986468183619
82.0414840481761
82.0782267592304
82.0532845321182
82.0164361583943
82.1792716553901
82.2450981470332
82.1516881214695
82.0226774639259
81.9080315514885
81.7981641913944
81.9025883664269
81.9348334373281
81.8480591545463
81.7510955172036
81.7070969370865
81.775712681502
81.8550787694775
81.8020411318202
81.673545490311
81.5886999787271
81.6809241992763
81.7549384363047
81.7662767748315
81.6823204904158
81.5973846162902
81.53458599472
81.5472091956296
81.5908530528839
81.5543613449965
81.4977961494354
81.5484169387813
81.5593357180755
81.6777787023877
81.6594510596764
81.4894020130237
81.5165954541744
81.658489577529
81.6749331017906
81.6606481750631
81.5876255122695
81.6043795697659
81.6648917036385
81.6545272437047
81.6264135289622
81.7518739314331
81.7745540292891
81.720757325956
81.7050846469245
81.7645964339015
81.8115612415955
81.8283207704565
81.73215923762
81.6886795812103
81.8133476815901
81.9088692861297
81.8906678903822
81.9154172327667
81.9013561490341
81.981662637234
82.0538595140161
82.1086757251173
82.1102133380334
82.1116239595827
82.1108641381963
82.154516036841
82.2917747739062
82.3366194458956
82.2364831282138
82.2841987277432
82.2879539979775
82.2941371922963
82.445671683602
82.5693033878652
82.5408829420901
82.6238514498512
82.7188004398884
82.7861711858424
82.7676039725088
82.7919994172783
82.7779294704691
82.8530415635426
82.9676544434508
83.0453131970694
83.131650738824
83.2027916921545
83.2114156934571
83.2837612886089
83.3438867298696
83.3744942938974
83.4140712577209
83.5050718078311
83.5204753959708
83.5932125599332
83.7135327071194
83.8166808537217
83.8398970688427
83.9313239155776
84.0027364144637
83.9825394163428
83.9576595621595
84.0270684507409
84.077850578423
84.1988607272519
84.2823626500205
84.3270063875222
84.41976648694
84.4882165481986
84.436243149989
84.4509568566556
84.4998295704801
84.5955291868279
84.6001247914192
84.5820966595028
84.6246108308413
84.7289884200419
84.7057251892077
84.6855122846792
84.7588005546181
84.8232915125926
84.90623261241
84.9715753628571
84.9049292473917
84.914990248512
85.010542520102
85.1050787158188
85.1164760969407
85.1704974649733
85.2233318934269
85.2526993404426
85.2582133129534
85.2746155966127
85.2541972284191
85.2786639789611
85.3245692073047
85.4590959250339
85.5118231873153
85.5030831432689
85.4960017209286
85.5429843274912
85.5304934221836
85.6060055884397
85.7547910847671
85.8835781648012
85.9290693994567
85.9024310328861
85.905185782838
86.0177458414899
86.0618348072564
86.0627035543367
86.0980806077743
86.2032223934602
86.2612166920745
86.2274943354
86.1863500491212
86.2675451559277
86.3505432957562
86.4354129005359
86.4766338272562
86.5240419339103
86.5283508170529
86.5634950055508
86.6571687820737
86.7678879570881
86.7938201534354
86.7487169260746
86.7121507424093
86.8079049900516
86.8562987260378
86.8421694775559
86.7956197728758
86.7988863553934
86.8641510988441
86.9349890837492
86.8608094689877
86.7619801402962
86.8019087231693
86.875920771422
86.8663890572007
86.8160527783073
86.7911127138365
86.732493255316
86.6513454808752
86.6830929375465
86.6910445104807
86.6678308233937
86.6292339639199
86.6393319004785
86.6195460481739
86.603357376308
86.5588764461972
86.5022724601194
86.4626030113547
86.4922212449927
86.5285549500595
86.5721950291652
86.5150468977307
86.43204514929
86.3552283252857
86.342002240092
86.3457626563307
86.3107073853399
86.2117567593628
86.2057626876925
86.1926660947727
86.1563623321906
86.173604130714
86.1717161590775
86.0883104685648
86.0375038763286
86.0194578614955
86.0411225548378
86.1662570251414
86.3071780919595
86.3509700164722
86.4178574021038
86.464363874759
86.5916411401532
86.6986763724952
86.6797422309857
86.6465396127546
86.6999831868268
86.7431316027317
86.8386997681684
86.9463544652369
86.9902228217616
86.9764480747503
87.0416355103959
87.0465493360416
87.0917147494421
87.1298512323274
87.1325791523322
87.153903171767
87.2174915189292
87.2737586975169
87.3682558395667
87.3841753569362
87.3164631216537
87.3057090200027
87.4340128614658
87.5093227308257
87.5291093387263
87.5475218230106
87.5579030956683
87.564921430832
87.5733664081825
87.6157244939991
87.7169610406479
87.7098491394977
87.6584252428266
87.6817635364896
87.7281628687314
87.7762537852521
87.8695141652623
87.9661714431842
88.0448177102399
88.0914389649361
88.1605201093916
88.2390087316844
88.2902324018517
88.3452475128409
88.3838841862233
88.4055940811966
88.5104545862443
88.5661185187833
88.5704223084686
88.6017520994781
88.6645839775565
88.6820612046321
88.6854476808137
88.7185762583423
88.8061889355029
88.8581374046645
88.9190140704656
88.9396739124944
88.9404404997044
88.9682320571443
89.0031322732838
89.0349020643803
89.0820315241191
89.0764310472026
89.1302304835858
89.1546308623336
89.1393229581028
89.154256453904
89.189391809015
89.2432853384539
89.3122001163085
89.3148833884852
89.3251642367357
89.3712095446302
89.4269312592089
89.4322505700734
89.4492493029887
89.4700990447096
89.469272100171
89.4563217028886
89.5238379218429
89.6145185946018
89.6414889142827
89.6015060240286
89.5850993128111
89.6395309022268
89.714716431338
89.7339002056325
89.7015468636363
89.6678073901887
89.7022539214763
89.7291722619713
89.7537387417362
89.7450542908932
89.7475253387306
89.8016544585011
89.8411952588797
89.8573367324506
89.910163308932
89.9074921080944
89.8870158389264
89.9254765550577
89.9711595156827
89.9957624007399
90.0172006907379
90.0200035517697
90.00906754767
90.0352167507002
90.0957633967611
90.1002859581994
90.0955460471791
90.1147116784414
90.1091418481405
90.0953495491438
90.1759126315492
90.219042188415
90.1911403206093
90.1763559403451
90.1949316521351
90.2239250926005
90.2185584704884
90.2090893994365
90.2856957609749
90.3395622525914
90.3671838677937
90.3695800522187
90.3678745529886
90.3665365781971
90.3592305527603
90.4004166755189
90.4519748805322
90.4498788336522
90.433111162657
90.4218671079273
90.4657945274479
90.476313457724
90.4567536448534
90.4632332055065
90.4744568138863
90.4937913266784
90.5329432282537
90.5688836320601
90.5530202548226
90.5585782367932
90.5601611161185
90.5789689457106
90.6370967753442
90.6285242318847
90.6396048746122
90.6960151787422
90.6876891111311
90.7025076842768
90.798959373928
90.8827031379368
90.8970719283887
90.8609064775972
90.8470472214125
90.8893228750774
90.956459898257
90.967594386355
91.016437014277
91.0459910255055
91.0197745551175
91.0874222985899
91.0953121660815
91.0805583853948
91.1356251821181
91.2014132178659
91.2490000233624
91.2013472561519
91.1479851532316
91.1845173863371
91.2321565438109
91.2341023700526
91.2789532738617
91.3134769347766
91.3499793072917
91.3737078547482
91.4056576597256
91.5304075351392
91.5643769276832
91.4453785513692
91.4843476061642
91.5939892790872
91.6352148976124
91.6250591353828
91.5968575053481
91.5687887773859
91.5929719803368
91.6270628130291
91.6888831284867
91.8143682339895
91.773721782976
91.6927799633199
91.6931406456525
91.64657304765
91.6312778183295
91.6434774584921
91.6892466241312
91.7721035515791
91.8101503514572
91.6914212981343
91.6586418632627
91.8297499144688
91.9167362242773
91.8787334757136
91.8515795281917
91.8449464601434
91.8136062335546
91.8397488838193
91.90827118237
91.96947683445
91.9433071813251
91.9620441936759
92.0249770065067
91.9438304057046
91.860347613483
91.9169711393572
91.916438235656
91.8292911827881
91.8643682137838
91.9924128766298
92.1017356775838
92.08298656409
92.0469132356724
92.0471449976535
92.0786375291802
92.0428324247036
92.0271801420376
92.112216705296
92.1014586491908
92.0974583688791
92.1130548216783
92.0620569583227
92.0322106818102
92.0723450713557
92.0822977749988
92.1183512416856
92.1540440332916
92.1343372285987
92.0759724180515
92.0852281538259
92.1318265038484
92.1695954750014
92.1182724415506
92.1065594078982
92.0476841219692
92.0942648785127
92.194704117553
92.1845796060226
92.1820137331188
92.2046148676714
92.206793085438
92.20420963944
92.2178743550804
92.2210917371579
92.1807111677893
92.160397240583
92.1816261679454
92.1865711788268
92.2111135790313
92.3449508101871
92.4046378131206
92.2577928850948
92.1698999854045
92.2092940570963
92.243382255565
92.2861730570368
92.2778876134717
92.2564769237902
92.2085331211216
92.1743399791213
92.2218657234387
92.2780298579574
92.3467623284543
92.3342942345254
92.2620506962267
92.1960181603471
92.2281445163169
92.2920387777006
92.2698634119333
92.2392455376734
92.283556822263
92.3245557828867
92.3215877388823
92.3473780292439
92.4085890753911
92.4466368105289
92.3910056085537
92.3758187995488
92.4378823566177
92.4214916427117
92.3268127519095
92.3189392406663
92.3949012753267
92.3683381142177
92.3073217055602
92.341008325198
92.2791596985782
92.2384599139423
92.333432235445
92.3707926736201
92.3412074360078
92.2737611026023
92.2887834763488
92.3791097937605
92.3172645844352
92.2524382920085
92.3543053445758
92.3518767761431
92.2233489827023
92.2766738672773
92.2938618000623
92.2625156236145
92.2012786891133
92.0371965930964
92.0722679321673
92.1833028038142
92.2053901100012
92.2560218344142
92.2635740730542
92.2721539581979
92.2525905170259
92.3122407944814
92.4116912799957
92.3893459354128
92.3596777804015
92.4128413963418
92.3906423063343
92.4198428189198
92.5003115468638
92.6021757400756
92.6439941502833
92.5886802974916
92.5947624600208
92.6362046525272
92.6091220886217
92.6727158708465
92.774760643527
92.845679611503
92.9574535262286
93.1893500971279
93.1023057029063
93.0933174590892
93.2879913905628
93.4205156406963
93.3179127208362
93.262943311056
93.2918266263576
93.4689079478749
93.5462716625914
93.6121130789343
93.6857114799042
93.6628778315527
93.5750367478505
93.6811309920943
93.7469211949956
93.8276249063283
93.8715448144922
93.9141902562004
94.1936313496844
94.2879790493188
94.1002652731617
94.0263030405414
94.0809896632364
94.219715124913
94.2665370750296
94.3796598802914
94.6056232690175
94.7460183383652
94.4780092055948
94.2697073300207
94.3425454255041
94.5226852458721
94.7648605288462
94.8565130979821
94.7113112729119
94.849305355459
94.9519502281364
95.097856353226
95.158238017309
95.0621475831477
95.0825488898535
95.2698553985862
95.331924853305
95.4938651774188
95.5467439414745
95.552953804109
95.8994356421117
96.1404228429156
96.2527526576781
96.4485244280472
96.2030944975335
95.9231149853211
96.2739208125829
96.5018051367136
96.2769418315937
96.3419208287178
96.535917228784
96.8897479903854
96.9567204680809
97.2041974242879
97.4528221703158
97.538644261804
97.6334579389367
97.3104511979892
96.4538511612825
96.3553172749548
96.4593672389146
96.3185889213072
96.1135629645247
95.7752494172084
95.2295137664961
95.3401212731747
95.4834655747518
95.5112117319898
95.1921107914226
94.8536312597872
94.6594361677932
94.6168615831785
94.4678159138965
94.1691863819939
93.9732193408102
94.2059732730449
94.2415605655358
94.1406624281115
94.2235601393095
94.3198046422103
94.2721060697751
94.3117712045192
94.2008539008449
94.1418738535097
94.2525782156048
94.3295564497023
94.2205183679596
94.3822105307577
94.4036869155286
94.2631494854509
94.1711273291595
94.1789817002527
94.2382777695064
94.3526971422487
94.3272956103012
94.3459471964017
94.4713167496754
94.5943987147285
94.4805563086833
94.4025665488974
94.4373035710185
94.4634517555151
94.5747207776013
94.8233481029565
94.8502755374837
94.9523095994237
95.0840749709073
94.9891857687906
94.9619645336898
95.1504522063345
95.4931279877618
95.6191505179401
95.6480584370361
95.7339656911093
95.7404043310249
96.2053173354512
96.6960731319283
96.3798924037213
96.2549244313304
96.3367017668722
96.4716377717702
96.9241152078143
97.2119392523832
97.6498501664769
97.821871708624
97.2656021669916
96.9547924505544
97.135105468339
97.083659654931
97.0988000710466
96.8770012182682
96.7324209543575
97.0841227493886
97.4982156377458
97.3236454658291
97.1862062405569
96.9206818554021
96.64748689417
96.7397136536593
96.6968504739837
96.2488024716253
96.02437347475
96.1696629846113
96.5469027744182
96.6210421305741
96.2436457493472
95.9336463594127
96.3129904961231
96.599367825667
96.609423798178
96.5821799498555
96.5751036106975
96.9924991719761
97.6786370496328
97.5931474246583
97.6524025112098
97.6957729512356
97.0445846979249
96.5364868064917
96.4665886579116
96.6350568625053
96.7559517429081
96.4819513345445
96.0969209479721
95.9352832384041
96.003182622568
95.8200021627067
95.5809031267012
95.4593581047095
95.4391065295769
95.3659954667223
95.3439840362321
95.1872140202955
95.3189732925417
95.326884642035
95.088376288714
94.9787977587884
94.8802558512107
94.8965031923922
94.9420535805694
94.9220191111824
94.9832811304928
94.9230519309363
94.7663893311473
94.7625306757194
94.8282857553459
94.7897159589795
94.8270575331914
94.8050560136819
94.7114640894012
94.5652601277765
94.5224964503628
94.5228310544474
94.5925879952851
94.633423802194
94.6591506032825
94.7084023061763
94.7523544812698
94.7325715514416
94.5651188499635
94.4325462186419
94.506899669566
94.5153439973182
94.4201526742382
94.5011209643814
94.5260178386299
94.4817124113818
94.5514628225062
94.6198176665051
94.5364222233229
94.3653941119578
94.3656814276696
94.442431976684
94.5458952395997
94.5436286239932
94.473538955758
94.497113180019
94.5511396296306
94.5132121146316
94.494098119613
94.5464154833799
94.5646457183094
94.5143501523977
94.4815042367264
94.4901760582604
94.5180752542247
94.5227911245779
94.5017662348187
94.5114819364142
94.5665769490418
94.515983563024
94.4393238867067
94.4815945182486
94.5322084643755
94.5403698671823
94.5230297806499
94.4871624654279
94.5146555472241
94.5565780054725
94.6281647612845
94.6154791899549
94.5830122975076
94.5368072836656
94.5119018816009
94.536888289634
94.5866840978214
94.5672748590644
94.5007938661953
94.5120307458185
94.5659492030092
94.5332932925533
94.4451692414003
94.396380866025
94.4522536060302
94.5087553323163
94.5089426688038
94.4711742195335
94.4230305047563
94.3848764013642
94.398959333463
94.4028336284212
94.3694713458612
94.2723072488709
94.191755813029
94.1087135990493
94.092657233893
94.0487552349941
93.990402472523
93.9148928722264
93.87862280548
93.826331346316
93.7244422010141
93.6117126822199
93.4963122061839
93.2956490966953
93.1297780167574
93.0372517054444
92.8492142749529
92.6543315746823
92.5457673924355
92.4329137321411
92.2688034828247
92.0565479353941
91.8103660570716
91.6421149277256
91.6161451825849
91.4668581598953
91.3077021675139
91.2619950826241
91.1868717433721
91.05306571571
90.9110018948478
90.7804485874154
90.6952964194219
90.7159082523785
90.6963856420281
90.5812825332582
90.4536259165266
90.3715928506904
90.2615978725672
90.0831460767663
89.7846203227517
89.3305240213745
89.0718506147449
88.7886934458666
88.4744127201272
88.2548755923673
87.8359054584831
87.3971623983393
86.9632726202456
86.3478972399449
85.85923418791
85.5976263744826
85.1379457506331
84.6370447483933
84.1061678826691
83.599194911146
83.1296844316818
82.5113592740849
82.0118028847434
81.6619937489859
81.1702027949834
80.5950881160149
80.2335277342948
79.8784046901726
79.3994650871098
78.8286460670254
78.1224708034874
78.0174103843269
77.9817107265245
77.4508630270186
77.0574646342892
77.044523545373
76.923893724783
76.6487251948138
76.3200623460432
75.9874532568566
75.9489776012016
76.110872440012
76.06565787054
75.9329401095458
75.8813894549927
75.8713275465857
75.8543452840989
75.9151407671946
75.9426501776
75.7896687641749
75.7538091378504
75.9384606880197
75.9612364490714
75.8397429778604
75.7786408301666
75.7577443199263
75.7650223282176
75.7328527039611
75.6657413311649
75.6368825360209
75.6261587755644
75.6303032611686
75.6812449288712
75.7456324914454
75.8370019899564
75.979605191336
76.1284484129793
76.2862571262352
76.4702010660977
76.608921152232
76.6345569081839
76.6560981010466
76.9700605871155
77.257679940278
77.2049656576884
77.1865784793416
77.4318217985525
77.6022787211909
77.5827852832527
77.3633254602874
76.9064933484308
77.0288923182265
77.5160710092475
77.5798615826522
77.5228258002777
77.539545395219
77.5580596671094
77.5698020981018
77.46940702036
77.3162113892039
77.1937801329356
77.4151331877175
77.9391742134813
78.1140358036093
78.0725422390444
78.3006159716673
78.5850553070524
78.6558406440842
78.7501018475922
78.9252813197489
78.9692897802844
79.0654703721915
79.3156308516844
79.4245777799475
79.5798984401628
79.8085342173457
79.9098893531746
79.8540397842227
79.7186643343423
80.1673447837532
80.9176055548161
81.1837056676465
81.1888711865421
81.2869147174796
81.6373792932907
82.1206248389243
82.3943198625368
82.5134729206943
82.8180632341241
83.2862315622743
83.6612054323467
83.8984419121809
84.0488116324782
84.1842468959155
84.2056916021122
84.0862098158001
83.8999272327484
83.6999813570446
83.5801063150957
83.3709160091659
82.9734761664782
82.669901721459
82.557246119018
82.3717627865737
81.9273588872709
81.4847954501946
81.5043256483105
81.6450147520937
81.4900980835845
81.3062102167124
81.2484915835861
81.2587260103869
81.3066059317876
81.3201178916458
81.2392125630492
81.04185882819
80.8360421584726
80.8566821441323
80.8518518809168
80.5486096510923
80.2208461466429
80.0107634335412
79.7741094176598
79.4911445454216
79.2238855599583
78.8982416665868
78.6966066805972
78.7501918659224
78.7184938777145
78.6422893927708
78.6392823434813
78.650771492789
78.6591234324904
78.6958147220255
78.7991513169233
78.8715561085575
78.8646101613134
78.9174594052828
79.0198537620301
79.1008724140454
79.2334482247646
79.2595021537431
79.1765557865439
79.1912867364058
79.2928833230283
79.3058351496151
79.2736507760311
79.2623573624911
79.2411209289919
79.2319292374902
79.2827299353207
79.4028963502956
79.4895966703245
79.5640691735407
79.6717792499612
79.7749528921762
79.891178943598
80.0652658969607
80.2151682254409
80.3152735921354
80.4110354165966
80.5053570165863
80.5863390120045
80.66415376472
80.7512706450114
80.838662184885
80.9076392560346
80.9422215119707
80.9684341077471
81.0401041837945
81.1423403481984
81.2304100022322
81.290104345878
81.328373898025
81.3848888811639
81.4421632015527
81.4871113191293
81.5383081130462
81.5945972066439
81.6506759087156
81.7108311318893
81.7774866228117
81.8472300379811
81.9019268037483
81.9707813778345
82.0617395752437
82.1515198769362
82.2383594854357
82.3055090810956
82.34205063565
82.3698733410784
82.4249955403047
82.4819154087583
82.5136383111688
82.5183097182829
82.4991858140773
82.4851685628032
82.482970650291
82.4617253388394
82.4112383886349
82.3347131582036
82.2300006781444
82.1148596458147
82.0090186836425
81.8832867483961
81.7294184811899
81.5874554672089
81.4624067150618
81.3173336307815
81.162755652975
81.0340372002265
80.9231617476335
80.8054633036947
80.7003610601902
80.6083268374872
80.4950906259067
80.3811002417641
80.3026065547026
80.2227733734844
80.1390453271348
80.068026170983
80.0120775844917
79.9880058289399
80.0122952937849
80.0500839042291
80.0744204500488
80.1124202047263
80.1718863479541
80.2507459096738
80.3430802143598
80.4500424819488
80.5668255750617
80.6802640875598
80.8056130950638
80.9333938260211
81.0392052624037
81.1635842760805
81.2907155940109
81.373318003743
81.4561184602891
81.559591937303
81.6675035266722
81.7563774660668
81.8541666015068
81.9768528822609
82.0783328565383
82.1735458253271
82.2775750140259
82.3046887304543
82.2561047828713
82.2036599135188
82.1295175261996
82.0083721299489
81.8357745363849
81.6629676861752
81.5192426348927
81.3638234561384
81.2115425972597
81.0806377742583
80.947919712296
80.798447762535
80.6487077833066
80.5015509892935
80.3447281333379
80.1698189640501
79.9782276939912
79.7916237438834
79.6418769704795
79.4890200378112
79.3230713436179
79.1515247553399
78.9831693842143
78.8225131657051
78.6338503795026
78.4386079314731
78.2051800504475
77.8901319448513
77.5199990707327
77.1107148482787
76.6949863663039
76.2779664337693
75.8467596043928
75.4568737051448
75.1823416989945
74.9520772281338
74.7220988438835
74.5562480120187
74.4293626177301
74.3063053266711
74.190216187865
74.0511944260192
73.9181730350354
73.7731781638647
73.5947950101451
73.4066062254504
73.2067614963401
72.9633507177716
72.6841645543844
72.4395218513162
72.1846132127361
71.8448518648215
71.4771080104852
71.1004182461952
70.703162560666
70.3529185786797
70.0385449143895
69.6938166119444
69.3676974173029
69.0737300456256
68.7962432607497
68.5579938409288
68.363158006031
68.1894233139683
68.0288553237704
67.9120815378288
67.8202431165476
67.7230589040956
67.6340196710667
67.5255740138112
67.3979402786262
67.2865660744408
67.1782482203903
67.014841921337
66.849207537312
66.7164779735774
66.5624664673874
66.4057625246433
66.2814235610881
66.1622353432113
66.0760106940344
66.0195962267076
65.9616796019105
65.9377759405032
65.9586602167764
65.9860744099765
66.0345117907644
66.1100501885809
66.1903149560518
66.2945582984636
66.4260620841407
66.5454994667635
66.6890707665793
66.8934100291194
67.1588102620799
67.4338421469445
67.6896126252197
67.9545282440812
68.2471936553579
68.565923720296
68.8978949862062
69.2052954950343
69.5167729907486
69.8526591031509
70.2071248277769
70.5320875259403
70.8183342832039
71.1362913899292
71.4439651387312
71.7315185437833
72.0348338136955
72.2955372894314
72.5463981280337
72.7598926299944
72.9682588109007
73.2173588513798
73.4689089015952
73.7244658699194
74.0051604284811
74.2710749233894
74.5290667436198
74.8063686154102
75.0743426963004
75.2907264480491
75.497547185598
75.7285673513681
75.9567597651723
76.1558494912534
76.3579389187954
76.5782820049585
76.7978267814205
77.0355656748158
77.2951885881707
77.5367397171663
77.7497391743431
77.963933399197
78.1896402864808
78.3793226575868
78.5669011073989
78.7562852330077
78.9148252770468
79.0639134566492
79.204181103654
79.3343194801786
79.4548289025016
79.5694298295752
79.6576096565223
79.7432878264125
79.8729978950349
80.0135048450304
80.143748914299
80.2573034134741
80.3452239942482
80.4193412279628
80.5122405942441
80.5770900300672
80.5997840910993
80.6356245799116
80.7061455578193
80.7868432046143
80.8598609854051
80.9099484890341
80.9406423835466
80.9617635016835
80.9959756411758
81.0203296748544
81.0074440986478
81.0033498271683
81.0221797155044
81.0021762190303
80.9922238072449
81.0090592279769
81.0296136979587
81.0376063277508
81.0255351663265
80.9965633751967
80.9817729256278
80.9454877855052
80.8843114099842
80.8663592091888
80.8879932749938
80.8845524678976
80.8275311978992
80.7339241812111
80.699557797668
80.6858825029838
80.6232210569475
80.5381832340322
80.4849389025921
80.4608821857858
80.430211589219
80.3987133088564
80.3606420160509
80.2683482450525
80.1821638918772
80.1683022774701
80.152023215174
80.0826587175821
79.995665071914
79.9518474228445
79.9091450930815
79.8357453964057
79.8160792384016
79.8184332134587
79.7699284698788
79.6989102538044
79.6893255730425
79.6626769215299
79.6055238513831
79.5397132972975
79.5163975773039
79.4972039781385
79.416634082758
79.3380124718917
79.2916739140566
79.1973147768079
79.11879805042
79.1075856766051
79.1027430930645
79.0022013779425
78.8530291476354
78.7497332412326
78.7251026035668
78.7012411875725
78.6259791730153
78.5440252494208
78.4710354543978
78.3932415664997
78.3180045088842
78.2280275111226
78.1224583709847
78.0243722939601
77.9106832129792
77.8090481408883
77.7586868061641
77.6635452826387
77.5922213434173
77.4610611818709
77.3083712903187
77.2539349747639
77.1848544694169
77.0815584042492
76.9747161829484
76.8700452085216
76.7894750853518
76.7048353965969
76.6199021876763
76.4777900240328
76.3168053403782
76.1729691281781
76.0852957123324
76.0134619589392
75.8363946687794
75.6004319555134
75.4607966518893
75.3701039092955
75.2330910487034
75.0328729544635
74.8661418342581
74.6902493809956
74.5123267265257
74.3473320856616
74.2116510752213
74.0540597498062
73.9078436745822
73.8126984741306
73.7229372448918
73.6148220287748
73.5057492523674
73.3514875874954
73.2293358510092
73.115949595386
73.0329021489017
72.957068662669
72.8250167625826
72.6194782841733
72.5330908072824
72.450039204346
72.2581679044561
71.9828915233008
71.9532971717675
71.9444033754506
71.661964031519
71.4424223177125
71.3353178082394
71.1963304350631
71.0623882252163
70.9405066141521
70.7804766742952
70.6669592179055
