1798
3999.43349933624
650.420452594757
1
128
4
93.846247770073
93.8696303834693
93.9084305862027
93.8916905789147
93.7227929114619
93.7032445306527
93.8098822877637
93.8253280973715
93.7167709297846
93.7280143231503
93.7766355185801
93.7577688929672
93.7186665149521
93.754450864447
93.7617241333872
93.7601521143945
93.7904252772457
93.8255814742089
93.7889646347559
93.8682552046662
93.8762320436672
93.7925553835945
93.7424073562469
93.8485311738505
93.9312941783882
93.882062441175
93.8109629789178
93.8326797540843
93.8682954015276
93.8842532478258
93.810594373835
93.8332533307686
93.8866767784423
93.9421031853169
93.9143547865444
93.8492302625389
93.8732796055698
93.8860360679593
93.7713802584837
93.7976917987464
93.948609558997
93.9424915097313
93.7913458578516
93.7768137428188
93.8555322184808
93.9701811859855
93.9981843604846
93.9524814631652
93.9022385465534
93.8541528988302
93.7236948761999
93.7669619819825
93.8643082133663
94.0861131199317
94.0835343714305
93.9650884751867
93.9916950306995
94.097836593832
94.1401224978387
94.0559945405607
94.0199081967559
94.004394075206
93.9043548303127
94.0005631495254
94.1560668983253
94.1534109741582
93.9952608443523
93.957187036626
94.0210997879773
94.0799576290738
94.0421407164659
94.0252302107397
94.1245146439104
94.2453927880029
94.1958799569106
94.1176779056087
93.9517389212786
93.8037784469651
93.8487629076194
94.0441110605272
94.170011472743
94.2665602671235
94.2394488121793
94.1925895683207
94.016423407975
93.96295344442
94.122631201315
94.2794755950228
94.2654899345724
94.319785662718
94.4253607942448
94.3156018552277
94.1107839381001
94.1129617245228
94.1522474496661
94.1530024959563
94.051513613829
94.1337705299207
94.3332916539776
94.4433527714518
94.3993621061907
94.2947482806927
94.1380467963648
94.1599064936131
94.1469050071555
94.1418067699871
94.1183342367038
94.0888344741355
94.175012213881
94.3206406817819
94.2651028520544
94.2128647249808
94.2620948358739
94.2786779469681
94.2892401145491
94.3617668357492
94.30242044343
94.2439983875789
94.2552098546965
94.3266482637571
94.3283420683893
94.2063431911955
94.0620518233521
94.1974760305932
94.266198606962
94.2939942958075
94.3203409696181
94.2912613239443
94.3338988577135
94.4115209928169
94.4478359484167
94.4347856734996
94.3057241865197
94.4199656345783
94.4499075321089
94.3098165024732
94.206548761432
94.1713702816063
94.3023616316596
94.4274016805685
94.4348110265268
94.3283958413582
94.2600974397833
94.4837234145318
94.6206651751506
94.6717701272494
94.5440820361244
94.442964504858
94.4986650451193
94.5901690583352
94.6039280026602
94.614216762574
94.5197989540103
94.4274425185534
94.4764859804726
94.6056486654419
94.5964106241082
94.5308631120919
94.4794491484618
94.4768879144788
94.4949310206108
94.5263016496969
94.5871993646516
94.6362043743901
94.642957344851
94.608704953306
94.6010877685794
94.6136082179976
94.6136558032158
94.8323427938188
94.7991395307705
94.5495776558489
94.4403133249336
94.5462308677232
94.4689504009418
94.4110669134505
94.4589733640946
94.4517352081225
94.3890311764546
94.3282993879407
94.3684433387589
94.4225174920226
94.4398566749057
94.453126797028
94.4123559651957
94.2950162959666
94.1487666650849
94.1782944095123
94.035936723853
94.0668569900814
94.1146382262484
94.1628447155672
94.1411952082448
93.9885878869593
93.8436582583669
93.8772687563565
93.8980602480776
93.692378686511
93.435693203787
93.4234305153588
93.5157864972112
93.6329974558951
93.5607857305549
93.5244458554762
93.4647270562117
93.3755615385682
93.257425403748
93.0751694808071
92.9792969254997
93.0180241107377
93.0353752896185
92.9854528900882
92.880186753245
92.966609233445
92.8812344395552
92.6427593853953
92.4914630307402
92.5337191670508
92.4831834173443
92.2587310071609
92.1208360833219
92.2540905194109
92.2776513874703
92.2575662105369
92.0903906203992
91.9564213287176
91.9001923569184
91.831820669021
91.7523754034389
91.7674532438269
91.5664307475626
91.4262121939839
91.4578540959862
91.4430327332489
91.3322196914237
91.4100195704221
91.4000207787874
91.3142600692927
91.0763967266452
90.9764584956994
90.8704175804812
90.8876202706059
90.7765569546774
90.7487953722298
90.7442931162555
90.6735477043021
90.6037939076563
90.5288926588218
90.3436478526352
90.3660342978293
90.4248618712555
90.2909803518988
90.1692021621949
90.1268559587885
89.9459548746497
89.9696672222205
90.0054562558796
90.0018574286414
89.8697427713844
89.7709902509133
89.6210218889241
89.4335873670118
89.2899548470297
89.3182729582389
89.2981816771045
89.3510130387499
89.3222156722998
89.1967541996795
89.1421135893841
89.1414094233826
88.9483337143158
88.8877558185621
88.822818232355
88.7527316453777
88.6049842033546
88.485778697813
88.3778778710283
88.3755873103424
88.3627652372491
88.3565373380904
88.3145469165866
88.3134694309169
88.1797829386266
88.0399829848435
87.8724951813931
87.7376936800862
87.7210018913487
87.7908842426227
87.7763052511792
87.7971161566679
87.7491890623005
87.584362562189
87.3701590016891
87.3362400524597
87.2764699718256
87.1823184706305
87.1404460676656
87.1309808595287
86.9564003930496
86.7980079129482
86.8481355559173
87.00754592453
86.9758586214422
86.8302730889538
86.6507800626374
86.5414000859188
86.4512639589787
86.4654986790697
86.4143550233775
86.3957277958788
86.2946914264833
86.2913555725755
86.2816013476857
86.2400738151533
86.1539142158732
86.0434140625806
85.9214051437274
85.9013999361047
85.8217819084522
85.8075501516842
85.7739323176748
85.7513786372606
85.7113846495439
85.6818844329518
85.6058076542879
85.5502679377941
85.4025791677726
85.3802981882856
85.3863131869479
85.3788281922325
85.2673823994147
85.1794950938276
85.1480216353473
85.1010040856757
85.0436782209638
85.1041146443016
85.1115840099188
85.0790403649658
85.0507342065407
84.9491026055323
84.8498110363891
84.8791159803013
84.8875385367913
84.8846698834956
84.7689940504581
84.6628883489883
84.627553441583
84.7290654122468
84.7562117597632
84.6563802088041
84.5587922586307
84.5779784996404
84.5118263309511
84.4644823350502
84.4815502287596
84.553004279297
84.5050896594371
84.3945553136083
84.2905209577077
84.4085413795461
84.5139744957317
84.5367368044287
84.4728522883015
84.3992915749316
84.3281493731611
84.312389755423
84.1702556255342
84.1164781398723
84.1784851901891
84.2376046876382
84.2312282964039
84.2597910507694
84.340498715192
84.4382683279021
84.3283373347217
84.2074498019879
84.1669619317487
84.2454305320764
84.2864762252717
84.3048715304671
84.1936922977476
84.1297769593958
84.0617269904763
84.0355215685779
84.0651080893308
84.1571792311459
84.1487402783071
84.0936637859225
84.0710424295391
84.1515236393227
84.200904949589
84.2307176270356
84.2075154038401
84.1959289179419
84.1085488587424
84.0879334189459
84.0840309139934
84.1512101398842
84.1436740214133
84.091396354919
84.0437841512435
84.1214884431578
84.0973050151984
84.0844397846832
84.007670757294
83.9996164947093
84.0618457757413
84.1061495339086
84.0632267115118
84.0554231581207
84.0879878068342
84.1304683469015
84.1381221206469
84.0953073914861
84.0999911982608
84.2151786973854
84.1416073747877
84.0851735134385
84.062625001959
84.05856614218
84.1259043334386
84.1866965423951
84.1395960470333
84.2920977892247
84.3357807265804
84.2625864854791
84.2216436050492
84.2522414104839
84.2237459088372
84.2041659322131
84.1964366881543
84.2891006616309
84.3829379792397
84.4469265107363
84.4772615823226
84.45676845702
84.4367948659927
84.4814666992094
84.4730018524959
84.4987872645232
84.4340535091352
84.4711200792287
84.5784363715158
84.5881366945045
84.4985729508369
84.6428660325501
84.7599237997003
84.730876843022
84.7369166593559
84.8695165184227
84.8532085751641
84.8384598518017
84.8836423488662
85.007755431474
85.0541369957394
85.0396180281329
84.9722215151372
85.0134488549536
85.0798626626
85.0967709672042
85.0873847340245
85.1464520402578
85.1847053235361
85.3186223550861
85.432740461861
85.4696226253757
85.40175193743
85.3845764940413
85.3856009973068
85.4211670575296
85.5029778930365
85.5988420769169
85.6829627272861
85.800282305476
85.7760670753244
85.8029334841386
85.8337829000422
85.8858757282355
85.8695663075527
85.861030803916
85.8269452885964
85.863150226205
85.9561043362945
86.0497196743054
85.9358271793705
85.9031805787508
85.9950550504376
86.0836363584977
86.1134516754365
86.1426269485211
86.1303258811493
86.1834911046939
86.2792048042349
86.3150757656867
86.3319347845273
86.4069405127706
86.3191590338198
86.3286676642881
86.4059358558365
86.4992268843594
86.5443048465024
86.5266948177881
86.4767319695972
86.5769727383673
86.5888692687517
86.6154170009796
86.6457839050345
86.6752623807342
86.7262390908488
86.8237611984011
86.840325151674
86.8146824201302
86.8391909706797
86.9612954700438
87.0027940653658
86.9725923585414
86.962377506113
87.0313287922154
87.1149432808639
87.160381292393
87.1331421148621
87.1914371880548
87.2345807511246
87.3142325503564
87.3133426994197
87.3030165056448
87.280927245197
87.326633056379
87.4090256049081
87.4668868283874
87.4278035433565
87.4690512195044
87.4501346837834
87.4296222073675
87.4559252506887
87.492918058267
87.5120020506177
87.5650217095912
87.5410846623443
87.5445612473151
87.575249752188
87.5562040182145
87.530133720066
87.5267134822967
87.4706129702683
87.497755792942
87.5440805063801
87.6223935012746
87.5533480466146
87.5058551324341
87.4473555489876
87.379671486229
87.3432903492509
87.337646301182
87.3501613160039
87.3681198434527
87.3647706053695
87.331915092905
87.3064295359403
87.3428017413198
87.308929246683
87.2596045513324
87.2650672458534
87.2754549191471
87.2331218918177
87.2961415203172
87.3179727716977
87.3563673184269
87.2907482642835
87.1680869780094
87.1411941279463
87.1827241457355
87.1497639288068
87.1530713132197
87.2354665845115
87.3280039838099
87.3615987120604
87.3419414172746
87.2626703207739
87.2851379950651
87.3541105163217
87.4477342429934
87.5083748989163
87.6230259719782
87.6750098110398
87.6737774805059
87.6656881202431
87.748128311576
87.7321828188804
87.7265190890474
87.7507674480282
87.777241917659
87.8415261786308
87.8995037318142
87.8979884423677
87.9054871338866
87.9334890372238
88.0065245566387
87.9375865656702
87.9090760174672
88.0547110595853
88.1188510583814
88.0535773093892
88.0664680177289
88.1454892663295
88.2254906876997
88.2281336394991
88.2451519938597
88.2459216496126
88.2459711552572
88.283113175152
88.3774329203487
88.4390334492825
88.4779660189621
88.5656074259133
88.6379312155342
88.6145200535339
88.6387925584967
88.6628722076692
88.6930529818682
88.678713567882
88.6893183831151
88.7705586122267
88.8863600335951
88.9374224111403
88.9678984838494
88.963861213285
88.9963831003474
89.0165456564812
89.0936470894097
89.1009287973963
89.080321965581
89.0912537617533
89.1515930331697
89.2054279188399
89.2169750842772
89.227810453371
89.2758794133304
89.3115014216707
89.3210114043369
89.3435251807434
89.3793080763528
89.3326351518499
89.3353620566791
89.3969602922018
89.498399732469
89.5670587397113
89.5737018798119
89.5788409103366
89.6460381902324
89.6736624066223
89.6760828505098
89.6686133656263
89.6484447435925
89.6432659432829
89.705114029357
89.7090809442269
89.7594234573979
89.8398190568728
89.8458493305677
89.8514925720616
89.8728138954417
89.8765526917737
89.8695319082891
89.8639630216612
89.8556083754895
89.9177379101856
90.011996744051
89.9876029657325
89.9528246151411
89.946150553138
90.0210867165944
90.1161745824702
90.1128220023071
90.0617106360553
90.0516431329905
90.0832091930844
90.0930017228686
90.1013570911464
90.1836201462145
90.190888922874
90.1681658430917
90.2118703614571
90.2640749990166
90.2600489403819
90.2568477238261
90.2957358130304
90.3969507658217
90.403358999033
90.3169827288855
90.2977220338522
90.3340220982897
90.3813599061605
90.4301958804644
90.4382584932116
90.415605873555
90.4441271333831
90.4666394634884
90.4625255293047
90.5167631155241
90.549158328587
90.5625487531264
90.589551565223
90.6232324812443
90.6326002766746
90.6439118131042
90.6473684543461
90.6140524368342
90.5911535621811
90.6722491055542
90.7486960089658
90.7792090809438
90.7815125158133
90.7659984392624
90.7877957222746
90.8305701051624
90.8132424222238
90.8127959644562
90.7866222836485
90.7733997366241
90.7904768298758
90.8026071104447
90.8002226833249
90.8058205581213
90.7892904561914
90.7795210655603
90.8163108199298
90.8784666872814
90.9004118276501
90.9477587148906
90.9832192671566
90.9766977957341
91.0248573499712
91.1122248604108
91.1339124255235
91.128047802751
91.0975085097898
91.0971358342333
91.1416214877199
91.1291777742698
91.129075713142
91.2163868740725
91.2596938008277
91.3276094826511
91.369263271376
91.3721476166264
91.389117026028
91.4189362807322
91.4258221195291
91.4958328621237
91.549108233063
91.507252864238
91.4442664100389
91.485723215575
91.5642300206084
91.5549995521647
91.5724589066585
91.6359788808595
91.6865307781169
91.7986618230692
91.7611447409267
91.712732984311
91.7502146116675
91.7905356233338
91.7946737407628
91.8412247237693
91.8574572094463
91.7760505683684
91.718024029879
91.834459645639
91.9154135390329
91.8881650880483
91.9184392408664
91.9856476970218
92.0396276863685
92.0197394915473
92.0014439504634
91.9827593025644
91.9349720275918
91.9229996618203
91.9617973439947
92.0354489591162
92.0951129726487
92.186734696492
92.1954109160834
92.1371714931867
92.1446673644236
92.1692186777944
92.1664597719848
92.2928687626179
92.3299120097069
92.2363277537835
92.1522933826955
92.1464243265795
92.2190948007683
92.2899100529795
92.252436372998
92.2524334924789
92.2821086020857
92.2484922264786
92.216835933469
92.2594108150912
92.2905818176428
92.2181109978939
92.2192925364416
92.2470029688971
92.2620679419847
92.3609309052787
92.3402497942952
92.2521378716931
92.2770489933538
92.3479781739439
92.4371032984391
92.4892706686788
92.4967402096253
92.4516578135549
92.4090862921824
92.4048221580309
92.4009726058009
92.4875680411632
92.6379090014025
92.5710428900265
92.4456698568064
92.4425701819635
92.5267316513877
92.5536219880854
92.4607991328972
92.4324520945527
92.4531115271278
92.4108736098354
92.4551863531275
92.5279672395412
92.5221230023143
92.5743674139557
92.6368138148367
92.6235920366409
92.6870038505514
92.7064373706206
92.6212158191934
92.5636360127403
92.5776158059356
92.6143787146776
92.6391854797488
92.6653851903079
92.7384636146798
92.7983492100715
92.7342935807031
92.6513665426819
92.6749057049734
92.7216069408131
92.710372317707
92.6233642469907
92.5364735715933
92.6478043215091
92.8043316710778
92.8151183697943
92.7535046299628
92.6889516961101
92.5987981892755
92.6086216021497
92.6799975354233
92.6965007051615
92.731441624016
92.7805012362241
92.7633070138886
92.6881697406837
92.6558706707654
92.6818449258791
92.6733358310481
92.6385241124146
92.6303708455292
92.6930709541329
92.7250758816813
92.7627423792382
92.7910931862466
92.7461668577431
92.6605055498464
92.6391867348905
92.6994700731812
92.8322160252004
92.8311552657488
92.7817142787841
92.8388958948066
92.9134776671861
92.9299012122503
92.839707994817
92.7657050362448
92.7069883964705
92.6197168131739
92.6629793222087
92.7378838534377
92.6932141808851
92.7470131229769
92.7567417251757
92.7647214647202
92.8409622517558
92.8279184908333
92.7009272302083
92.5448439959445
92.4907008502274
92.5296784647385
92.5979536764386
92.7254494772482
92.7843475450117
92.8045923255786
92.8207030290229
92.7794353501611
92.7320131499763
92.7896944276078
92.8858805724317
92.8584376733915
92.8410456768466
92.8557999185488
92.8676803531765
92.8988390954673
92.8956719933901
92.9336702053016
93.0388374383649
93.0528645233936
92.9957822855958
92.9414435132759
92.9798047550173
92.9987189531487
93.0736228656835
93.3510030180325
93.4543764058771
93.3996883935586
93.5874319432108
93.6954440060654
93.6291085742202
93.5997687913172
93.6765058646655
93.6598081307687
93.6328287834154
93.7115373265044
93.837281999088
94.0716713709826
94.1734220931206
93.9907875953602
93.9092206716016
94.0563747155279
94.2489646214865
94.3161656627174
94.1796116173723
94.2043496637578
94.2503620748631
94.0785164971013
94.0269553482387
94.3966569642498
94.546882491005
94.395793791966
94.5169785824549
94.799010328214
94.8730774519429
94.6920946453097
94.5758016331268
94.7058379069391
94.8147937165744
94.8831642443227
94.810058388983
94.9423663116498
94.8702718116386
94.7601815160312
94.7703993903756
95.0260866724505
95.3863372505135
95.4215459620003
95.3773635717048
95.2602045300927
95.3188875673788
95.4270343849298
95.1834317631522
95.4004490762003
95.7423450687945
95.9686395682867
95.9271243180324
95.8132401430528
95.7339862705178
95.9722016037354
96.3044438591098
96.6210047969205
96.5154024005391
96.0607326773901
95.9531676044137
96.0224460076111
96.0860593028831
96.5173852295541
96.893212508533
97.3394032452109
97.4000668068761
97.0349309796268
96.520487791068
96.3163741000328
95.9400450372778
95.9224922664589
96.1894666830312
96.0235840558933
95.6338808554241
95.5224250400298
95.694192818253
95.6001131144255
95.1778128119755
95.0414321995522
95.005464832988
95.0249351027408
94.7839799064734
94.6723404515679
94.6700076109081
94.6778406711073
94.57674873783
94.5954305746947
94.5553700465872
94.5061920403382
94.5124383961613
94.5222575018127
94.6696247059898
94.6612165340508
94.5867789073542
94.7582189956676
94.8063860239276
94.7800866192979
94.8065289384351
94.8476563165819
94.8272245371124
94.9618328563212
94.9983957071566
94.8158108907899
94.5771012302846
94.5376202340501
94.5979222116654
94.6751431404836
94.7531310987657
94.9835836987426
95.1053896405953
95.2662302786276
95.1984605948909
95.3313580574152
95.5204801237498
95.2794081632686
95.0788270051378
95.2614592582544
95.584482145336
95.5977636336159
95.3883683006674
95.4685317229486
95.5234930770362
95.8131217729918
95.8756803125607
96.2103718470306
96.5110833366188
96.608078082091
96.8385905923621
96.6656579488862
96.4703517387145
97.0999209206429
97.4311465722842
96.8398991682174
96.5966237129677
97.1098703755747
97.2161115383093
97.2902046393269
97.497675938874
97.4036446095813
97.395616668068
97.4996434074878
97.0367677983224
96.8032508146198
96.8844679422383
97.1395374365973
97.029527224222
96.7632894557336
96.8098671960671
97.1294603267274
96.816115894957
96.2863815645581
96.3122094983641
96.6520070478429
96.8102712483949
96.8428608623354
96.5189129225695
96.2428073280009
96.2245824229359
96.437130598224
96.4414960291723
96.8372261732212
97.236558908454
97.4722709641535
97.2529100470816
97.1374219700801
97.2322189906512
96.9293911430689
96.4794519830135
96.3873747383747
96.1710333299647
96.1653964219793
96.3475908977088
96.4592584084084
96.2774580679088
96.0522161154981
95.85561357011
95.9717283854886
96.0631728660754
96.0764332699954
95.8516322044922
95.6729115803543
95.643945877665
95.7632112825135
95.7020236121114
95.5988546653087
95.3949585735067
95.3839003251822
95.4650945550962
95.4068562714947
95.4443663289933
95.5793268168016
95.4632617413042
95.3124167061286
95.2819807521452
95.3746889065919
95.3729675770972
95.2794851884845
95.1633973485222
95.1551016067165
95.1136541574298
95.1879154309322
95.2676806914856
95.2979887565732
95.1542580324173
95.000509098725
95.0521161655419
95.2470238744712
95.2725340894371
95.2808110515506
95.2109576395097
95.1865625942657
95.1992002074156
95.1401543380734
95.06725747835
95.1263357858995
95.143271351743
95.1418190706286
95.0993957678553
95.1599528521448
95.2247550861359
95.1876249441441
95.166712651385
95.1498642580799
95.0994852193555
95.1282363648914
95.1656657709804
95.1624940447172
95.1088679122773
95.1304401348194
95.1572889104489
95.1855228670647
95.1976563029199
95.2558963189937
95.2483393680002
95.2151162134941
95.1940968878044
95.2226505316013
95.2327498727516
95.2271014470486
95.2206476172703
95.2562402409811
95.2589840554418
95.2216523782759
95.2101876313172
95.1962437933981
95.1858437475175
95.2496120681884
95.288552337461
95.3222601480943
95.3272182548028
95.3272472746107
95.249000478341
95.2149059046772
95.2002908342716
95.1701780039824
95.1256929571069
95.1354888389383
95.1449109541472
95.1240999354607
95.0247134444931
94.992018067512
95.0055339256555
94.9808092600219
94.8713630473953
94.784974885465
94.710827916857
94.6634798018437
94.6805601800282
94.6022502689932
94.4556727222637
94.3303333928081
94.3157617902581
94.2780688179327
94.1768427406501
94.1498393517079
93.9832971508387
93.8506311408668
93.8132735431331
93.7821115231234
93.6963829398823
93.6519009989957
93.4861563280987
93.43938389334
93.4880422158127
93.4675701811281
93.3925501003425
93.3440806893261
93.2558200036417
93.1737595500506
93.0728136811061
92.8629535728186
92.703977616763
92.8010408013736
92.6468428014155
92.4585908459606
92.240545069746
92.0176129274023
91.8150930696997
91.63493180209
91.3192830762271
91.1710032484992
91.0848123178918
90.8705981654362
90.4951339183246
90.1837651588316
89.8644517579891
89.5979905543922
89.4527467413216
89.1307850111968
88.7843978647102
88.9308447918957
88.5037071418242
88.3068951734635
88.0697181475114
87.582478563989
87.2198686181519
86.9735937103476
86.5247782914507
86.4871633825997
86.5755385311974
86.064281105998
85.5675589952723
85.0786432790433
84.9300496508188
84.7107932200186
84.189882679262
83.9841858528469
83.8378018781614
83.3559849870731
82.8747071346304
82.7114886177521
82.4069576123486
81.9676415124078
81.3797045026547
80.7641567853949
81.3802033528599
81.3729175435334
80.4175122222286
80.1082742572399
80.2824688994478
79.9185968447015
79.4037929511165
78.9980391006018
78.523258544954
78.5287686554241
78.9381778653506
78.5878977343061
78.0005134682198
77.692644212412
77.5907564258693
77.29561073628
77.2810067640701
77.2043477668579
76.6422991147059
76.3675695509517
76.6663136774723
76.3730772161276
75.8746724959064
75.5507719686839
75.3070385253363
75.0832412469823
74.803053033954
74.5950563143258
74.3707807200909
74.1398639058787
73.880730535729
73.7038612675522
73.5144123134244
73.3357948470717
73.160769013508
73.0248330780802
72.8243971409061
72.665778909717
72.4998748559454
72.3012374751623
71.8301968290645
71.9752711371833
72.4880978730575
72.0433940168534
71.5392433645162
71.9274975792511
72.00187955259
71.8320654537681
71.7131361368154
70.9769211950422
70.7608308289614
72.8659780793694
72.8869156921533
72.7172282320224
72.6797984107265
72.6820982802771
73.0393583854104
72.9668706517436
73.0335818627377
73.2713371459098
73.6074715457781
75.1754112118281
75.9279127879963
75.440017086781
75.6216739262134
76.4519071441137
76.5799314056363
76.6231452616685
77.0492829434624
77.4007588976846
77.4814907573206
78.4417573960432
78.8685343970407
79.1081952374832
79.6077923702563
79.6848394382935
79.7641520864857
79.6083864141744
79.6478298305319
81.2817244279893
81.9275145345535
81.7101276644749
81.5738859669985
81.6517744883354
82.1413680325828
82.6555064002213
82.5595044111111
82.451453993831
82.9052794188385
83.3456426643998
83.5241630307669
83.5198275638832
83.5913629797312
83.6670504977874
83.5908054473704
83.5497356511775
83.4732771669287
83.7152928899948
83.8212879177087
83.4493442254629
83.0214272094742
82.876079795624
82.8550667255974
82.434304698115
81.8703155088848
81.8574930324134
82.2874630817056
81.9195803318849
81.4974133657764
81.122949302737
80.9755963053451
80.9257972652327
80.7123796598299
80.4744706508315
80.2497839914427
79.8113327918391
79.7508564053756
79.9529443331621
79.5866276339628
79.184170720632
79.0073644675908
78.7470012069587
78.3270781679488
78.0677384135394
77.6081076194845
77.1751626991371
77.2590867314126
77.0032496070487
76.5460898085193
76.1394540566452
75.8588878150151
75.6065305067862
75.2660091849724
75.0986227715688
75.0667309587121
74.7438614026509
74.5786136479453
74.633523728047
74.5524424009794
74.7044331205899
74.6587933488996
74.3864426716184
74.2599156510942
74.5247590393784
74.6451644928803
74.6029744413416
74.6022045389808
74.6662461532007
74.7095891748372
74.7553329338183
75.0821572156993
75.272869680342
75.3242494514624
75.521175772214
75.6326882169098
75.6658601452472
76.0209531590244
76.4227357124417
76.5831501151274
76.6630563147999
76.8372977182016
77.0543856565837
77.2306609188499
77.4152196781528
77.6289431456491
77.8437753054442
78.0242628630776
78.0757996927374
78.2454980085303
78.5745028146167
78.7791404520213
78.8734180821796
78.9596795065764
79.0730357637467
79.1833638450946
79.2922346812757
79.3748578470544
79.4610128255798
79.5272902068854
79.5852831920128
79.6930478970091
79.748199338802
79.800846628686
79.9130537779245
79.9699078661762
80.0194984862022
80.1104429938199
80.1799690082937
80.2381142330535
80.3129160516508
80.4004312574336
80.4799576269083
80.5522095113072
80.612985551419
80.697466891391
80.7520625320709
80.8188447490344
80.918062497068
80.9570086652004
80.9747890886488
80.9962249475489
81.0037772200653
81.0208086332344
81.0125612853034
81.0031835118087
80.9962793115354
80.9454882003948
80.909238027145
80.904839823691
80.8690004962697
80.8183110804601
80.7667663258233
80.7317955618759
80.7119988385985
80.704187547271
80.6775992633445
80.6249774037445
80.5766309426767
80.5411617290905
80.5221142889469
80.5145456576596
80.4996265392244
80.4850135356361
80.4832342269399
80.4889003584869
80.502285690212
80.5366808313963
80.5653015247216
80.5935942283277
80.6334026529014
80.6953217659548
80.7742391215934
80.8472021841271
80.9264978797464
81.019509123081
81.1093476927674
81.1943247964602
81.2819967583871
81.3969702370093
81.5330705283725
81.6706040021582
81.8104701253594
81.9462498021874
82.0697819958122
82.188621327546
82.3269210867857
82.4741961769316
82.5840528623062
82.687429040309
82.7975608797867
82.8830107364224
82.9596667812776
83.0042193582403
83.0171334478405
83.0292699567797
83.0217071731266
83.0210466263209
83.0070065876983
82.9768921169472
82.9806770119203
82.9705359049411
82.9230133554231
82.8703745565079
82.8136812458497
82.7417718722002
82.6722048097664
82.5806654606431
82.4801893908882
82.3786294646954
82.2552181446389
82.128296412738
81.9833149992409
81.8263702247023
81.6822425671931
81.5478989608308
81.3816002546857
81.1649562523969
80.9615114661526
80.7665077595575
80.5610548953339
80.3454405490203
80.1235853330185
79.9044515097723
79.672627445819
79.4402102674799
79.2275234485313
79.0082286647049
78.7997978361679
78.6148160829482
78.4186780527044
78.1944414673792
77.9902875014206
77.834176119442
77.6642314978025
77.4488332628726
77.2198413297068
77.0255442824401
76.8274791264347
76.6035661865907
76.3691200538584
76.1668832467682
75.9536332069944
75.7024831408049
75.4683373088824
75.2471182631243
75.0321282533179
74.856278226685
74.6846833825285
74.4844757371135
74.281678125298
74.0973974596215
73.9427356915061
73.7637874115015
73.5885038780023
73.4177619770576
73.2531409028578
73.1038850709249
72.9250532309156
72.7560556324007
72.6105576681579
72.4616343048981
72.3355867417105
72.2368902033387
72.1504633707666
72.0270912269184
71.9006847444609
71.8200499497051
71.7672887640833
71.7014157250986
71.6680335875211
71.664567370327
71.6561686368081
71.6748486798086
71.7245334773326
71.7606606344
71.8163859480954
71.8897858509802
71.9791234693763
72.0902749220506
72.2004019704303
72.3172684878976
72.4596682869855
72.6011796465078
72.7544333511631
72.9587955564856
73.1613407703756
73.3585997228839
73.5906698910105
73.8056154123358
73.9984229182221
74.2164581708194
74.4624987282137
74.6878293091807
74.9209145956766
75.1439150478501
75.3756623260691
75.6285730078706
75.8833947594394
76.1447379420514
76.4126589710079
76.6195534271555
76.799773158923
76.9916150972174
77.1960718289939
77.3798910991186
77.5712017641537
77.7572923861413
77.9458853150982
78.1606298479494
78.3592979468909
78.5532069756301
78.73119633486
78.8879481472429
79.046940897013
79.2064566655789
79.3979735073765
79.602493821129
79.7964783229388
79.9711886420974
80.1587176216044
80.353864273079
80.5295680044754
80.6836862971479
80.8353653873589
80.9883680332984
81.1261373084181
81.2396732865677
81.3566880281202
81.4640372505847
81.5654724238386
81.7033564249827
81.7726158406005
81.8026757742025
81.8400145978005
81.8211243815016
81.8816913284575
81.9909319467553
82.0623984946419
82.1116452041192
82.1658688022697
82.2599097978535
82.3458120531952
82.4167778360982
82.4489847708795
82.482900829834
82.5295084966812
82.549720965928
82.5568815527613
82.5554803599395
82.5181133037203
82.5166036908907
82.5625262404755
82.5233704213712
82.4639812889486
82.4613665269426
82.5181822490318
82.531267196716
82.4907697934776
82.4719741331075
82.4452778079865
82.3970884504933
82.4099057410986
82.4032349504765
82.3765498886786
82.392407265856
82.3793065330681
82.3549428324879
82.371054428791
82.3651104940067
82.3743560665564
82.3310718859207
82.251999965541
82.2362770712411
82.1843197799036
82.061024931866
81.9633446281482
81.8776954468514
81.805361920684
81.7193379948032
81.6216886200609
81.5385439631997
81.4488881108879
81.3491264207089
81.2483623310314
81.1031640471896
80.9976048582987
80.9319451672661
80.8425511241071
80.7450762752736
80.6272474506576
80.4896281517858
80.388104050516
80.279796834775
80.1489370322699
80.04624957992
79.9714077683636
79.8771726296715
79.7909506406538
79.6744732808242
79.5717942245562
79.4845551491187
79.4569464335743
79.4134586397924
79.3279841430008
79.2218028649177
79.1202930874105
79.0923999062678
79.0626185776586
78.9702458810758
78.9295251680371
78.9250866076312
78.9120801722468
78.9190726492512
78.9008529748397
78.8462424753019
78.7843832075632
78.7368135144273
78.7236175870241
78.7019879432336
78.6536968563654
78.5623840815317
78.51193943005
78.4832119474147
78.438742709703
78.3831294680574
78.3821210773722
78.2981471336877
78.2152895608717
78.1926720344125
78.1607077674595
78.0861418393997
78.0263214182506
77.955269824264
77.8600780081727
77.7572546820882
77.6410981149815
77.5360292388617
77.4497467659154
77.319935107727
77.1786064840255
77.0953791990845
77.0448557906501
76.9127032116502
76.8258738755493
76.7318531875693
76.5978795341331
76.497574133782
76.377574712535
76.2175805596286
76.0692241425803
75.9109067496497
75.8080521829735
75.7240618355324
75.6742670700555
75.5804660077611
75.468246100558
75.3516081999889
75.3077027263548
75.2373457439086
75.1316314342591
75.0582139754156
74.9705149063853
74.8261008700896
74.7604011903404
74.6395865140891
74.4974204137037
74.3504885413883
74.2007179316104
74.0798637862572
74.3714910735968
74.228768080488
73.961339735042
73.8432527587802
73.7248707844476
73.6391540297211
73.5902865324701
73.4895142436498
73.3684852553927
73.1785295030176
