1798
3999.43349933624
650.420452594757
1
128
4
93.9895234100701
94.0158145544082
94.0670230943509
94.0559067410815
93.9693071740023
93.910012962683
93.9676627096818
93.9688877041195
94.0631011197206
94.1594289564917
94.1701756743038
94.095638007476
94.1215496231757
94.1271274674114
94.0366834353134
93.9386153766667
93.9296553325882
93.946956818888
93.9742529245175
93.9960021445177
94.0858197219676
94.0947813598568
94.126787398872
94.1168605672385
94.0408415231289
93.9688693483329
93.9981300969122
94.0403242640868
94.0096791440511
93.9427392328943
94.0313692513373
94.0307633523554
94.0440307316652
94.0672328365632
94.0914639925588
94.1316963046946
94.1405633834036
94.0610290867283
94.0427237264141
94.000624841374
93.9687713705522
94.0173932091048
94.1495189291436
94.1824531457378
94.1522436533765
94.1964083898398
94.345643542388
94.1792673924886
94.0301977889067
94.0596721351587
93.9880761076134
93.929162324067
94.1640207742846
94.2983050810786
94.2891674184472
94.1989532517319
94.2066436115258
94.2225406198414
94.1039871803195
93.9850295866887
94.0740910986068
94.0934859921197
94.1278070847471
94.1795961625183
94.2041652782552
94.1633924924626
94.1306109438899
94.1891877106879
94.344613818578
94.2876099989071
94.1438316930369
94.3179957085016
94.3814429702167
94.2062201858043
94.2308300325908
94.1899926090727
94.1013255385874
94.0488060121616
94.0938057322896
94.2702946838731
94.5284897784237
94.5293652110416
94.4241472414321
94.2197971748183
94.1154861207677
94.165955027003
94.3312973050376
94.347941877065
94.4277076943843
94.5116240100974
94.4144643781252
94.2444666744324
94.2450662986309
94.2478355039874
94.3684499233641
94.3722183214602
94.3205115261866
94.4369581340215
94.51823859901
94.4809328427396
94.5839576133738
94.5135094786095
94.4150380348763
94.3066537779275
94.3614269941554
94.5732765700564
94.5703242297304
94.4110486164528
94.4783615227818
94.3872818705656
94.3463355122511
94.5145192271504
94.6277220695764
94.5479779011466
94.5413095863306
94.530119792507
94.5010794761752
94.4167490954224
94.4052064819882
94.497174339511
94.6609150450233
94.6363172674787
94.5722073155487
94.4921314246131
94.5297020897215
94.6348302647805
94.6389160216245
94.6285589900594
94.6890124923311
94.6243975249519
94.6167332410146
94.62290458826
94.591356671645
94.3955477304691
94.4413857210314
94.6595948569191
94.7916328354195
94.5558146680005
94.5725892317834
94.6004487923129
94.478631432908
94.419286480432
94.5973388093275
94.6624263044223
94.6091893222266
94.6141773637032
94.6175229254431
94.6125322089406
94.8262897426593
94.917353637148
94.8608043650898
94.7647438700824
94.8009489617178
94.856082344785
94.747886049679
94.6429418454798
94.7555946885534
94.7487213899598
94.7490466047492
94.7023898196476
94.6990719776826
94.8076187603606
94.8718469076224
94.8222458194894
94.8489696525586
94.7058164169617
94.5892364594471
94.6741588463639
94.9411921892708
95.0785377060612
94.9887415496181
94.7744126142901
94.6620173202263
94.6437413883872
94.6124253964381
94.6625542652146
94.6993506994063
94.6029599837015
94.687506011525
94.6703612576079
94.5554989173968
94.4523626149045
94.5032222844402
94.5787820023207
94.5220698758775
94.3393816844742
94.2062312036264
94.0421606315906
93.9653871339185
93.860484990328
93.9049049394908
93.8773256973243
93.747464005558
93.6901973449865
93.7858756515827
93.6708361390737
93.4422529561606
93.3731277290006
93.3996228578486
93.2316866385682
93.3130351022365
93.3118088429459
93.0967545360262
92.8608896302869
92.7065440408997
92.56899833099
92.5529398478977
92.4871622832539
92.4763418679407
92.4895078508079
92.4072955564363
92.2400036399737
92.0804911160273
91.9212668113513
91.8991183142185
91.6883040263344
91.5068659785713
91.323892562568
91.2310066651642
91.3525975495037
91.3782599380723
91.0679362831021
90.9755067880485
90.9718968023939
90.8463253120224
90.5678453508479
90.4892838188189
90.5234692702412
90.4393825552178
90.3472383914235
90.1419745175906
89.6797767182636
89.5890043366866
89.841650067581
89.9420490863957
89.5825455179873
89.4046445495723
89.6278243950414
89.6328456496825
89.1857841332779
88.8712341592713
88.600232634905
88.4953706026955
88.6022924343623
88.7455681057693
88.4605486326697
88.0145873673995
87.6386154677624
87.5093645014537
87.6598267324707
87.8202921258812
87.8245854916782
87.6384528031428
87.513125372756
87.6678194971987
87.319114855455
87.0021625243297
86.9836787836523
86.8663573821214
87.0108231011486
87.1823807769079
86.7816847385797
86.6086152360446
86.4975657160347
86.4849491942636
86.625288668873
86.4594315097629
85.9042650209511
85.5332955276822
85.3971936058291
85.2292093896343
85.3556920659748
85.4985781850585
85.2992530891259
85.1604867236825
84.8753605552029
84.502270775768
84.5065850598003
84.9070024057168
85.0728708582563
84.8774756490302
84.5983365903543
84.2759060435917
84.0665291222854
84.0949808401375
83.978809073315
83.8728808195457
83.8380694653426
83.8018475687236
83.4597956973406
83.1764679123494
83.1889138754533
83.0979057194552
82.7570079256285
82.5978946533313
82.6855487816255
82.6745299428861
82.3678036226745
82.3806616942267
82.5741038613692
82.6080822292624
82.3873593335802
82.0573513788835
81.9019589744652
81.8739848491326
81.6779515324792
81.5423655732956
81.4061588257964
81.3131639510974
81.2498526285304
81.2245226938289
81.107138968904
81.0757800674396
80.9519569383445
80.7957945923286
80.6612514483679
80.5634561291345
80.4744236777545
80.4473354575385
80.396052664577
80.344145756806
80.2266299390122
80.0804035041422
79.9908356413837
80.0149566352903
79.9016474563057
79.7964917978683
79.6604269096751
79.6173512035065
79.5805397072636
79.4904939439619
79.290471050923
79.2586839739669
79.3208535792324
79.2433516920318
79.1027667333602
79.0829406678953
78.8456493409671
78.683600072636
78.7195125700845
78.7353055017335
78.7046929640876
78.6585326660403
78.5324901937711
78.4855228351423
78.3946943370359
78.392950170338
78.3633291428541
78.3024916762062
78.1931321212244
78.1100962192265
78.0165376077437
77.9786438088896
77.9766678504836
77.9597516751792
77.8347332058468
77.8376859365623
77.8429105354819
77.8772637212883
77.8506092765885
77.8650252774421
77.7249387860695
77.605968362093
77.5779903546773
77.5902252686763
77.5401713710488
77.4868998316924
77.3662420305933
77.3056746137209
77.3467193373777
77.383148277727
77.3703466920889
77.4197053596484
77.3608492235363
77.3333272136129
77.2882213605053
77.2898346902094
77.2085585754017
77.1078190880535
77.0376733390436
77.0238360713305
77.0480773525888
77.0904146528306
76.9818354612092
76.9525278860769
76.9517904411495
77.0446716510638
76.942067126011
76.8677785211984
76.9330249974805
77.0627527486154
76.9803784414791
76.9041921268633
76.9144391532033
77.0309120466954
77.0015797987892
76.9073017648732
76.8225638157221
76.8773598019823
76.9562740991809
76.9604075185018
76.9107603944745
76.9503952029835
76.9513122839942
76.9942832478427
77.0173511570913
77.0734906521409
77.0901090963028
77.11899337785
77.0243086863831
77.0363855651152
77.1077272458413
77.1287363052387
77.1522663225835
77.2699033680327
77.2286737995076
77.1677844439497
77.0568022936776
77.1519456255018
77.2056412324407
77.2824744728702
77.3499301150949
77.4664015030346
77.4657627778018
77.4131410287903
77.3950859355661
77.5102459437141
77.5478312857735
77.5409826172655
77.6349519203488
77.7264753862237
77.785494625508
77.8621162595187
77.7814323525432
77.7906309477611
77.8635847167209
77.9537788922636
78.0142569667535
78.1169837370641
78.1863422245516
78.2725089285503
78.2929203330694
78.3695874140983
78.4164591772337
78.4767797674337
78.5189665701919
78.591185295451
78.614897196085
78.8022487478735
78.9898067317819
79.0417871934144
78.989425587737
79.1138249315404
79.2855797113149
79.3664730402139
79.4072732236818
79.5331670292728
79.5478563096535
79.5442133972906
79.608475676738
79.7613758260955
79.8593516999208
79.9746155617096
80.0589025586183
80.1856893442049
80.2747389681328
80.3350745856523
80.3315740997633
80.4225763796134
80.4729287609824
80.5256350297503
80.5760370374048
80.7118890776693
80.7630552275925
80.8416891540505
80.8919982847823
80.9012858555179
80.8941487902311
80.9585199310153
81.0034773821856
81.049693549586
81.0884356952585
81.2151296387725
81.326330734731
81.4002583790348
81.5527193935499
81.659578259611
81.5496811184596
81.4858912677197
81.5404612188336
81.6226595107048
81.6654806821874
81.7743062116924
81.8471749901454
81.9626349188731
81.9698540913845
81.9423114755664
81.9607450365676
82.0404609085275
82.0606056961643
82.1264946175684
82.2277146134487
82.2507018952308
82.2292781644764
82.3763607048422
82.4680776290229
82.4854613616695
82.5109412032851
82.5893219559726
82.6777082833877
82.7572666727064
82.8227699440415
82.9480901445609
82.9209896392215
82.9327661833348
83.0070132595113
83.0896977046736
83.1864687349483
83.3700139284528
83.429617301485
83.481352089209
83.5088933436019
83.5283264458671
83.501384314144
83.5978901289218
83.718443731229
83.8224256108845
83.8520902197302
83.9389224254678
84.0652654093447
84.1040407719019
84.0334089262443
84.0364529688698
84.1027837980609
84.1920180060085
84.1867487797213
84.1654383167968
84.1806683299873
84.2555787831673
84.2891575149788
84.3247645932848
84.308771103925
84.3385093949412
84.3150746383901
84.243987018578
84.20305494877
84.2501727014155
84.2861812258405
84.341179962468
84.2995676830932
84.2274092928301
84.1674334807543
84.1740921611718
84.1365625287014
84.1316412709852
84.066399420018
84.0542615634601
84.0612591938252
84.0558544834201
84.0082922468129
84.0485077142329
84.1090009546606
84.0897734306426
84.0046972582051
83.9866408610159
83.9952958519359
84.0017978601458
83.9402374992997
83.8972085494467
83.8698220631225
83.8582339020192
83.8195674391268
83.7827293981459
83.7100259419121
83.6831308396443
83.7545040758482
83.8184029391878
83.7410234400903
83.7065557305697
83.7873903100364
83.8927250842272
83.898489246466
84.0417821607375
84.151950202677
84.1863931650239
84.2925943255492
84.3756934618097
84.3876569144025
84.4667638427407
84.5408649153483
84.6102353936708
84.6658724473076
84.7890018847937
84.848665823211
84.8633553298776
84.9236862992862
84.9846286159893
84.9887383735711
85.0439215728657
85.1176791512685
85.1688200830551
85.1511948064828
85.1501902059798
85.2225601041035
85.2733678368879
85.2552610973332
85.3336922365475
85.4136544535414
85.4412386780122
85.5005379934756
85.5755260636737
85.6201949921717
85.6824798989808
85.6478024671167
85.588905356178
85.6544703906072
85.7776903973778
85.7761972227525
85.8184503266196
85.900962030133
86.0056701220287
86.092074836718
86.1555319603877
86.2429801701212
86.3496239473206
86.411342099598
86.5129361110063
86.5794174028644
86.6092345394003
86.6645752784748
86.7444613289847
86.7754844243695
86.8213458661088
86.8865637422785
86.9653316526912
86.9975131414507
87.0187762985758
87.1026397596245
87.1835230058687
87.1762076732953
87.2226806729925
87.2839248147105
87.3233858466356
87.3366331442653
87.3926415176104
87.4654644302175
87.4413317006703
87.4221244782072
87.5279716725661
87.6074180167091
87.5792052595615
87.5950532246222
87.6959614498758
87.7397591925013
87.7361506965713
87.7312187267256
87.7860430469332
87.8367556634655
87.8777371330973
87.8963849472749
87.9175701775684
87.9857634703048
88.0550860909795
88.0393321349252
88.058988987324
88.0780270693432
88.0896897747837
88.12205230154
88.1537041287095
88.1521733409956
88.1755262793573
88.2560400826149
88.2941359759147
88.269752523541
88.272624110099
88.290806109682
88.3216649497
88.3248861824462
88.3536972743314
88.3850610381785
88.3784415718924
88.4094700891811
88.4763981691072
88.5226706751426
88.548709875356
88.5693475115622
88.6262061312576
88.6320740655965
88.6159591078416
88.6356073488613
88.6550738542128
88.6412443681089
88.678690564641
88.7300492912753
88.7532707666037
88.7625093436948
88.8190862608296
88.8774041851255
88.8835147812726
88.9027909072026
88.9071042786736
88.8497465010469
88.8335741281253
88.8976767715214
88.9765079866316
89.0143779717188
88.9905172580481
89.0114132512303
89.047664459857
89.0345765641165
89.0391629842807
89.097912217367
89.1701010282808
89.2062648382773
89.2011599129513
89.1647845897141
89.1862222419166
89.20068830239
89.1892350617697
89.2279145740705
89.2893045719828
89.287531578727
89.2571820772649
89.2963167578394
89.3278072596659
89.380228652894
89.3998455861022
89.4148512932845
89.4791211544507
89.4571426275027
89.46991789792
89.4850839475045
89.4840811300172
89.5376708504768
89.5621233382623
89.6612680488083
89.7405756101999
89.732837666599
89.7018036135056
89.7616253935381
89.830125029948
89.878038711726
89.8888484462882
89.8699518941397
89.9656811527083
90.0872040926083
90.0651479006091
90.0371939329051
90.053079897294
90.1006893114535
90.111470392898
90.1747206822825
90.2080769117434
90.2226156418684
90.2632299347609
90.3211179702521
90.3056444262906
90.3160090738932
90.3099419019251
90.3025084099765
90.3524427887876
90.3734517718448
90.4561237452176
90.5190730912765
90.5068504433701
90.5301592225103
90.5493150344212
90.5594028804051
90.6130338624438
90.6236029694424
90.5545280365767
90.6582529648175
90.7118488084719
90.7140304290203
90.7717405982443
90.7520337276928
90.7620855047867
90.8008498985873
90.8345026213792
90.7966224813267
90.7259832187454
90.7593950321801
90.7569240402053
90.7749021641531
90.8939331945092
90.895098389664
90.8871577602958
90.9733188240773
90.9925003902092
90.9978784836475
90.9702885929378
90.9079708466066
90.8827998839742
90.9761729230761
91.0407219847894
91.007435273608
91.0979410122968
91.1840431837495
91.0528950524927
91.0202091117228
91.061617954235
91.0553730572413
91.0510885090538
91.1150114741686
91.2061365263254
91.1680823799045
91.097729569024
91.1198416881318
91.1617399127685
91.1605602691101
91.1074945478161
91.1309063587879
91.2232341586792
91.2993348967117
91.3170519925238
91.1990876112676
91.1290318813969
91.2112173021681
91.23700910214
91.2536281281905
91.2958859726346
91.2485701827179
91.2459006340171
91.3293148311728
91.2818953242975
91.2204248646648
91.2131717765626
91.3007976403704
91.3377098008583
91.3380026084216
91.3461495796574
91.3830548952427
91.350051131372
91.2960862668788
91.3105768699624
91.3798685589159
91.3845876719348
91.3580659054176
91.4093493792106
91.4294178386108
91.4112268463379
91.364441517542
91.4160767621536
91.4125836116374
91.3181139513732
91.3446373184052
91.4635131008921
91.5302456740108
91.4992296743638
91.488487550996
91.419000645031
91.4256780618231
91.5052279531741
91.5560411384919
91.449113802737
91.3756568521834
91.3842642802313
91.3994179165793
91.4173214491354
91.4929532527885
91.4856653608889
91.4742837526067
91.4407779327114
91.4179848109282
91.4242709555777
91.4170320799908
91.4378684873735
91.4649090426978
91.4709268344679
91.5125627626006
91.4771690173065
91.3457461200445
91.3003738080261
91.3596347332689
91.4517865831775
91.5488483101084
91.586560044458
91.5203773438759
91.5295727492043
91.6047352509185
91.6060440091445
91.5736490244184
91.6035308573946
91.7240269700167
91.7015769865256
91.5455342860035
91.4499095070032
91.3962918735873
91.3580277682106
91.4248947388391
91.4860757355015
91.469668575635
91.5420412444186
91.6075145071788
91.5294002396457
91.4682438939002
91.4961047526815
91.4996280895719
91.4036962563689
91.3751890647324
91.3852482378122
91.3630731015154
91.482588871722
91.600180928346
91.6011766229025
91.5542693401008
91.5322854876221
91.5619431681558
91.6151494993996
91.6175368892846
91.6430246767011
91.7404636337011
91.8350865559007
91.8768425154914
91.8502175087001
91.8135017998971
91.8148927313394
91.8962806413381
91.9285808234575
91.8719158055438
91.8763757656046
92.0024689410177
92.1138956687247
92.2628668523511
92.4623713886213
92.4907163833999
92.3618773155167
92.3650004400328
92.5304284693098
92.7807238781198
92.8104191980526
92.6705338589398
92.6985450302176
92.8209248897947
92.8790291819888
92.9500642515262
92.9777035405535
92.9700905971063
93.0089295846429
93.1034533505275
93.1929591350173
93.286406820462
93.3711364819196
93.2920561116669
93.2650107816689
93.5017662999712
93.6827956015438
93.7351215677687
93.6058576008491
93.6265646325952
93.6782118441006
93.6579154464115
94.048167158419
94.3790122871972
94.3748730520733
94.3976157448238
94.3170230151596
93.9800034101639
93.9018137087613
94.4183716686569
94.8435169623954
94.8107754274917
94.3512791667519
94.2983453215458
94.7944743548988
95.0919267979658
94.9416620384181
94.942089787221
94.9766552859852
94.9571349915252
94.9576758283368
95.0886062542753
95.1809510019859
95.1807288027958
95.1210537861376
95.2690496158768
95.7813269065803
96.0573334266546
95.9713874130597
95.8833794419089
95.7556740940241
95.65490254632
95.8783806080362
96.2365372093268
96.3129818250068
96.5975015963041
97.1323004445679
97.7619093478096
97.4509011730019
97.0562871309547
96.8434403506056
96.4220662130921
96.0928565241294
95.6764409613507
95.2165512910484
95.23515114022
95.2667863133177
94.903805594946
94.4558237664286
94.3919589043088
94.4998432721686
94.6896180223582
94.5621870475741
94.3055452772327
94.1202287894261
93.9565173979839
93.7412416914468
93.5900528736933
93.5533639301361
93.6039447867786
93.6130824615837
93.6120087037203
93.4481725090925
93.4637163630853
93.5066093462861
93.5837305151152
93.6471725010162
93.704745980426
93.7354579872025
93.759050077081
93.7928129681669
93.7626722982382
93.838231703809
93.9047114549069
93.6597749224931
93.5837149938391
93.7801774796102
93.9485114671494
93.9259027269425
93.8490304046205
93.8280466228694
93.9543612630809
94.1503197566557
94.4233026912533
94.3775414044172
94.165961759864
94.2213639845621
94.4600715960208
94.3229694526216
94.3773097284061
94.6693987904538
94.8718467555961
94.8538406410481
94.9028867260762
95.1397028283428
95.2667148783055
95.4316139741456
95.6564177614054
95.9180489771528
96.309755484441
96.4202636904862
96.5243277682897
96.8240956570197
97.0924835290747
97.2011664118872
97.1011468331384
96.7811623858531
97.1828180747032
97.5295712226998
97.4496157760585
97.1972132457105
97.3293310044096
96.9791523902978
96.3833747867645
96.7036348362236
97.3973093831933
97.047376919463
96.6804638798691
97.0562202800675
97.3771554389522
96.8547803884028
96.4047067883998
96.2222968209939
95.9864727384245
95.8749363077747
96.1175520481995
96.2724530892006
96.3482241208975
96.2947795328917
95.9382490112577
96.0412516209438
96.6065096403727
96.6398880975124
96.5511154320656
96.6714476158665
97.2549616901186
97.3872105802439
97.0528054526568
96.6580533420321
96.4691317357971
96.5329236025687
96.7100918183652
96.7400764803337
96.7648092096616
96.7027472957216
96.3911650351271
95.8755414073899
95.6734610792225
95.5745062608742
95.3889930636324
95.1297424487794
94.9951529701937
94.8806173504368
95.0373726844197
95.1502400500575
95.0977633633353
94.9640141251799
94.8439538599372
94.9134239945377
94.9652421679804
94.8197199693503
94.6742842013323
94.5227707843023
94.510701497543
94.4444677671807
94.2633424058353
94.2086789172089
94.2265362372034
94.2570215383654
94.4122071191969
94.4602180923474
94.420420607545
94.3647476515471
94.2450602965868
94.2534070854972
94.2350623338447
94.1466918680687
94.1723135276559
94.1790025414217
94.2072795770935
94.1561017808826
94.0640474868813
94.0670515046832
94.0238748804856
93.9576393827639
93.974278264793
94.0126922322275
94.0278579942701
94.0989773703442
94.1530834403664
94.0845843051545
94.0246281327612
94.0492815971504
94.0148329355211
93.9529640346458
94.0589686323759
94.0853072372779
94.0553424040447
94.0017701584523
93.9201272335781
93.9632090905437
94.0719215431112
94.1136244656958
94.0460956566286
93.9554680247929
93.9290329080216
94.0080884290252
94.0232958274561
94.0376455282273
94.0673511947873
94.0769246725766
94.0151016776413
93.9926068417067
94.0363072324723
94.0188154283756
94.0039506296236
94.0207497875504
94.0205610831796
94.0565994590495
94.0884426472391
94.1005455617865
94.110594456965
94.0542521786185
94.0212731535456
94.0190341111821
94.0129052643346
94.0111530637371
94.0616447398086
94.0561672022526
94.0156538555533
94.0155816971256
94.0054903560766
93.9778853247665
93.9409572072893
93.9339949514732
93.9455975477148
93.9975281913761
93.9628140560522
93.8907764264143
93.8311091046849
93.8032021522417
93.7729813413009
93.753398753178
93.6978921584316
93.5821366698719
93.493597291731
93.4723274788318
93.4995123750042
93.4028235269219
93.3645736700563
93.2740127671789
93.1440977446563
93.1015594236925
93.0290067451949
92.842099206724
92.7187657991763
92.5266091659805
92.318858452721
92.2380195214707
92.114691378856
91.9243818724892
91.7434533896775
91.5363092276565
91.2725956454209
91.0735705105616
90.8647507950334
90.6159996897823
90.6452051386403
90.5244309040635
90.2884357545431
90.1023519082981
89.926196316242
89.7719278997094
89.6607872002821
89.4793826465278
89.371551240938
89.4871214941391
89.4867850505814
89.3335764982492
89.1545526741584
88.959196027613
88.7598444433823
88.5780478928634
88.3307001905206
87.8368444371209
87.7148804212804
87.428174923053
86.8972846730909
86.599730028238
86.0576872510166
85.47117782194
85.0038349467942
84.3872998768709
83.7892756714123
83.531138212362
83.0101654307786
82.423599618055
81.6898230735778
81.0843144825431
80.6937431981089
80.0600522842535
79.4349414758846
79.0029498138537
78.4312284004928
77.7455609894166
77.21451494399
76.7154072811155
76.1233490825992
75.5126857543261
74.7330201508634
74.6498350908545
74.6911272039192
74.1441701133726
73.6907796758381
73.6361148001654
73.4269877207447
73.0493131792365
72.6695969017875
72.2986147754742
72.2874015446482
72.5195726280654
72.4562570500745
72.2438007334604
72.1455817742724
72.1469113389049
72.1152559123858
72.2245821655212
72.314369724496
72.1472452586788
72.1102210128967
72.3636296549588
72.4157892500869
72.2825564125914
72.2212911689961
72.2025666676353
72.1816743433034
72.1301696110483
72.0954022656414
72.0315077781829
71.9792375610203
71.9613940792867
71.9882020403238
72.0677870653068
72.174627215156
72.2828071372393
72.4382448038926
72.5967952025184
72.7610347703782
72.9363216785323
73.0205934171147
73.0210191282027
73.3667321508705
73.7653841095286
73.7515345901921
73.6929052731466
73.9310888612443
74.015584414146
73.8998167760368
73.6708266572041
73.1353544916569
73.2971640697923
74.0011999792121
74.1125059097133
73.9755472862643
73.8903003182373
73.8211004258446
73.791740268073
73.619794329156
73.5036158217681
73.4710662535488
73.8506721906137
74.5357111143707
74.7624354127391
74.6543085272584
74.8557427338539
75.1946026633872
75.2688582504665
75.339410672222
75.5509669511478
75.7009043355856
75.8843578769425
76.2733739867965
76.4490341502242
76.5942205591294
76.7742171012917
76.8373690366587
76.8390978597104
76.7619925863877
77.2887651495924
78.1721461523361
78.5210871546634
78.5201232598066
78.6005786656946
78.9888618482768
79.5772983865098
79.9508387955954
80.0999701241627
80.4262911333904
80.9697959652583
81.4481389325783
81.7448291855335
81.8864110738475
81.9989689479726
82.0098645064588
81.8919039569855
81.7388994328216
81.5477010469687
81.4486968654955
81.2276380509702
80.7517745077827
80.2944782258289
80.0786402595284
79.9172863315676
79.5036904839005
79.0358918774335
79.0461570173801
79.2222158220372
79.0388033506083
78.8261358406549
78.7064653310079
78.7535271407745
78.832788833735
78.789562643891
78.6922403949988
78.5517307481435
78.3413030020726
78.3415304183998
78.3425012432449
78.0299634679989
77.6459460030105
77.3585430499198
77.0615166094703
76.6927791769313
76.37518141732
76.0318282378176
75.8597289902294
75.9904196622496
75.9794839704963
75.8404619560844
75.7384364871698
75.7313482366203
75.7447328225664
75.7483327637659
75.8253057391514
75.9219379781954
75.9491251511396
76.0398286908482
76.1581365916277
76.2415921629063
76.4023201217355
76.4407655078013
76.3530994220353
76.357949163827
76.487122071788
76.5172626283971
76.4728158272749
76.4573853717124
76.4407262229006
76.4315002716477
76.4998991120472
76.6518931123483
76.7490020271077
76.849503573005
76.9999077168241
77.1179050991548
77.2454246897365
77.4727646692362
77.6641442153918
77.762609065326
77.8346246390771
77.934944810063
78.0325611341761
78.1169497655411
78.214878758093
78.3203324154591
78.4055272023924
78.4579061091078
78.4822929733247
78.5665770901601
78.6990699829453
78.7865731636718
78.8370753164491
78.8927872188054
78.9429719940039
78.9941610185027
79.0610455699286
79.1384361458646
79.19557150327
79.2355409241487
79.3043928207465
79.4026126832256
79.4856814705469
79.5657866611006
79.6661062783898
79.7602873814383
79.8355448259158
79.9144303079507
79.9914248458078
80.0483265576278
80.1040647856988
80.1667593718541
80.2157030321522
80.2492569800491
80.2689303853429
80.2836259399832
80.2837508311795
80.2668506305942
80.2194602349201
80.1568783858978
80.08253946322
79.9939359402802
79.8814632231049
79.7412302518858
79.5907596335884
79.4448216806782
79.2915676887107
79.1267510424646
78.9488549224911
78.7721204011595
78.625504197763
78.4977850861498
78.36007024777
78.2114470389694
78.0702720416707
77.960714104103
77.8679227824527
77.7590363738675
77.6514533880334
77.5697472560435
77.4904994767237
77.4465673152567
77.421077581038
77.4090963213762
77.4627375845017
77.54323414027
77.6124260581735
77.6898731248313
77.7806608209273
77.9038189780963
78.0466187038385
78.1823293951659
78.3089220436101
78.4382473903388
78.5713679675986
78.7089845239487
78.8612391148503
79.0149868092422
79.1309838670729
79.2306311882566
79.3373042458603
79.4480346675041
79.5534767823028
79.6663779303277
79.7953036583834
79.9374090730767
80.0494572290346
80.108947561409
80.1390582498543
80.1331611000389
80.0658080755847
79.9583575581937
79.8178995833807
79.6575358553879
79.5017473668884
79.3424705435595
79.1686313815003
79.0011687912991
78.8443346778441
78.7155958801478
78.5846081881806
78.4270719262442
78.2517739770079
78.0556286409788
77.834983433773
77.6296670598398
77.4283598805941
77.2226830591329
77.0328160646745
76.8489249253179
76.6955776760205
76.5337662010991
76.3210305187081
76.0964211023502
75.8545772958401
75.5847488629634
75.2702252986894
74.8822508827234
74.4228567243529
73.9219141896082
73.4026427630363
72.9315632823818
72.5105163908775
72.1320698915
71.8416425104192
71.6295010345204
71.4522553324495
71.3093131449627
71.1882073501587
71.0763651845875
70.9368753501819
70.7724166721515
70.6175618737707
70.4721856824902
70.2929014392253
70.0771869283958
69.8294128421788
69.5424085316067
69.2240142213893
68.8945329602078
68.5301544041489
68.1499074677385
67.760471360055
67.3559785740329
66.939937795856
66.5543574949288
66.1763569950821
65.7915980170486
65.4463153340499
65.1488279201485
64.8917836515692
64.688498111607
64.4995362633473
64.3210102511534
64.1901990238809
64.1021387276952
64.0027810328905
63.8940324796224
63.7800530166396
63.6670682998522
63.5426877817686
63.4039796943846
63.2551751724044
63.0900971881332
62.9195727703582
62.7571978390354
62.5933435718855
62.4353002269322
62.2827068313116
62.1612748281828
62.0792410770328
62.0310795799994
61.9921399142048
62.0092021719628
62.0707614794286
62.1292415263555
62.1870292615127
62.246870297855
62.3561261384629
62.5176368408685
62.665140620677
62.8365332546104
63.0631524041452
63.3278515746482
63.6260592796029
63.9563497319836
64.2938283844116
64.6636458099372
65.0400141507889
65.4091602505781
65.7931399735404
66.1716172989729
66.5202559982896
66.8640507480157
67.2125850526787
67.5810820066817
67.9532289096543
68.3126879256092
68.6464801666835
68.9521008581037
69.2470718940337
69.5357321476602
69.8158646921705
70.0889061082601
70.3284595807394
70.5733765466289
70.8585475249587
71.1737361322604
71.4813486893198
71.815044287083
72.1325006988994
72.4449923631754
72.726511099012
72.9511777183883
73.1595003983609
73.3917296242238
73.648407228254
73.9295619062449
74.1995403340639
74.4713240218292
74.7238051140991
74.9599641650999
75.2249869484063
75.4853994710386
75.6964335764768
75.9602429806864
76.2343994248499
76.4682024513699
76.6739009539094
76.8566596251711
77.0298552855858
77.1943585541987
77.324084368063
77.4636466476091
77.6045593790191
77.7273095252387
77.8440250733806
77.9441224150294
78.0458112386483
78.1780736697615
78.2970143118017
78.3831213298759
78.4623700456294
78.5507215995651
78.6090369321112
78.6519088087306
78.6942803934313
78.7516597854073
78.7962517689103
78.8254916242812
78.8787968876158
78.9383388141831
78.9613563838033
78.9737977405642
78.9976151666902
78.9955224383787
78.9668354444773
78.9395875721405
78.9432759140963
78.9522217737593
78.9153271293744
78.9239553175745
78.947632425423
78.9188734766284
78.8788919552496
78.8522173826636
78.8164069287177
78.8129653669425
78.8019847351785
78.7522475461676
78.6743278854252
78.5788163296215
78.487064033729
78.4054768184196
78.3300882057868
78.2670949973241
78.1663815379767
78.0760466258683
77.995301607086
77.9341104249799
77.8942117392781
77.8775072557749
77.8309230724818
77.7397051588795
77.619249269378
77.5281043065206
77.4350769867218
77.335676277997
77.2772119200883
77.2466864071719
77.1694472603702
77.0566443585959
76.9937721078777
76.9595614184488
76.8823853977327
76.8215325461829
76.7702707899983
76.6926568077991
76.6040182814751
76.5407413183962
76.4750592888376
76.3968916769462
76.2818181231868
76.167082095218
76.0837719769994
76.0031278003481
75.8997740469087
75.7859603989587
75.653052689497
75.5192673458841
75.410273696712
75.3622174405386
75.2926759650781
75.2091897948098
75.1086449736325
75.004735474401
74.8802461757155
74.7599532067418
74.6604985703811
74.5519002791481
74.4173194796989
74.2570442658513
74.1619448633807
74.0573107335408
73.9040074811282
73.7833322571812
73.6257410697271
73.5125859863088
73.4212342661263
73.3257585634464
73.1856311194597
73.0251744424311
72.9199202274223
72.8199747356507
72.6756160754653
72.5171606197657
72.3751604479778
72.2464850181463
72.1033166203578
71.944181619534
71.7409462627773
71.5725231451691
71.4325151939394
71.2726100501903
71.1511203794561
71.0406934260875
70.8186029122039
70.6035331729136
70.4049635324906
70.2167770500758
69.9885008551909
69.769465805969
69.5717344316428
69.4266340575022
69.2749635984816
69.1796499580424
69.1167468274489
68.9853594945616
68.8157274028007
68.6898769615295
68.5315531427978
68.4391963557122
68.2703870069661
68.1354203815045
68.0221803297291
67.8780494447918
67.6778673523338
67.4799546321384
67.2489348928111
67.2877454836446
67.3457453779413
67.0672175336853
66.7794832551693
66.5843392403317
66.4947361775859
66.4007654371309
66.2161870474412
66.0557383575883
66.0041522590559
