1798
3999.43349933624
650.420452594757
1
128
4
94.4070217496887
94.3281962103462
94.2445437410496
94.3426553044101
94.2906472590379
94.1293148626374
94.1989855827286
94.2541689660505
94.0831918906153
94.0531147455321
94.108355714148
94.1170432469552
94.1228900585674
94.1389077925638
94.0901408976793
94.031667898514
94.1106223033169
94.1343621702487
94.0759054722774
94.1065897761687
94.1525216491862
94.2316075899424
94.2656537092348
94.2446141989733
94.2386078017125
94.244957503364
94.2333408165846
94.2328570350669
94.2929627119232
94.3017657163961
94.2035783331131
94.1662402508388
94.1740040453859
94.2225928463989
94.2794281532734
94.3074961283248
94.3424057698953
94.2636536156006
94.1967126187784
94.2699849896213
94.3002784655018
94.2261067831314
94.1475738132205
94.1792835040792
94.1970530740645
94.1447998941249
94.1499894486496
94.1734286023423
94.1756823928491
94.2788474190011
94.3854611913608
94.4496761816506
94.3861401972679
94.2066916648334
94.1343360174927
94.2095103832523
94.2559071712453
94.2674955278166
94.2934432307473
94.3807645510453
94.4883620975157
94.3714443964963
94.1901798138645
94.2674245802489
94.3413854897234
94.3260463493918
94.2885848681207
94.2882071582395
94.3818236303729
94.3839329660729
94.3054914460192
94.3746714595769
94.3600136273332
94.2625783118782
94.3280705490886
94.4941795540476
94.5412301849936
94.4796454012995
94.3212308675908
94.0240291269092
93.9492571160621
94.2238853035512
94.5152270907469
94.563393377079
94.5037677466442
94.5125706031852
94.5879469070309
94.5267770175888
94.3907449647477
94.3838150713294
94.3350692705202
94.344303513719
94.5058965053379
94.5857563949433
94.5285717333304
94.5279308751717
94.4691131600663
94.3854744025402
94.3659529103913
94.3890760871511
94.4812773562036
94.5824459355902
94.622207894126
94.5737767095424
94.5348929352817
94.5627311912107
94.4691747711848
94.3664790152367
94.3900297168832
94.3964871717098
94.3927337652228
94.4739435492935
94.5653779709817
94.6395493335384
94.6316679298154
94.6058688334061
94.5948325205469
94.5326718123886
94.4918549755286
94.5755642277487
94.651229020244
94.6626614043341
94.6816992401887
94.6769555710806
94.6367748698127
94.6141417414123
94.5679062085534
94.5721384006814
94.597898700781
94.6635873816278
94.741233344277
94.7799094251689
94.7517351203154
94.626429386435
94.5445272215981
94.6314277100179
94.5621887946561
94.3724062450727
94.4135395832176
94.5836370819525
94.7053107945783
94.6853351187027
94.5781198168824
94.5465978980607
94.5733931261497
94.7052061643283
94.8213146977055
94.8152049990565
94.7098534510144
94.6361641576952
94.6998878125513
94.7971503938146
94.8567534802291
94.9169679437804
94.776163914411
94.5892336233063
94.6137634852133
94.8041005283316
94.9103393106853
94.8497597117782
94.7861347442348
94.7267590283625
94.7334442273025
94.9275003826281
95.0627235323842
95.019650881655
94.8570690666533
94.6783937625096
94.6059279403911
94.6855282457739
94.8520552465398
94.9525350213119
94.9281905802729
94.8951514853495
94.726074635912
94.5800669809555
94.5833092919171
94.602814654263
94.6177745027248
94.637620514554
94.6370111574335
94.6759904269422
94.794045305726
94.9022296282644
94.8070492910976
94.7463146954384
94.8297832424448
94.7577322829244
94.458889009395
94.2952646128007
94.2707522621513
94.2334088545645
94.2659844453244
94.3453391064259
94.3502651875647
94.3984209648764
94.4418873686133
94.4554123450954
94.4248794290277
94.1604598983311
93.9560856203439
94.0317979773513
94.0738094455823
94.0040737134525
93.9058861083312
93.8722086494819
93.8684290756601
93.8375162684462
93.6954342007471
93.6185812804286
93.5662285309846
93.6145714271842
93.6871083042324
93.5405746018915
93.4559591279233
93.4642104237702
93.363845084267
93.3911699625634
93.4351051412545
93.3604229883807
93.2500500413176
93.160747531034
93.0478583671109
92.9226793858094
92.8665534448251
92.8713118477528
92.8169273944969
92.8292312016281
92.9388591033572
92.9221139981257
92.7573675451883
92.63665926105
92.536730983596
92.4294991180112
92.3411127579073
92.3325568520599
92.3664727655837
92.2987329415344
92.1797271323084
92.126735755388
92.0576660140517
92.0681623663237
92.0187073436045
91.9128759196731
91.8915239460522
91.9234928478052
91.8399100759622
91.7572413111936
91.7557962990886
91.7289972332788
91.633131802962
91.580644780703
91.5252561168103
91.4488521944539
91.3366449015549
91.3068011560787
91.381137795198
91.2233268465267
91.0430932465293
91.0382454461617
90.966456331692
90.9025350569978
90.8986725444878
90.9705963157687
90.9334811820802
90.7937280941641
90.7851815198147
90.7891545234586
90.6347942423655
90.48659919574
90.3902350730866
90.3322575359944
90.3664365580048
90.4805643256066
90.3508889208614
90.1790189360774
90.1526375963192
90.1300809178709
90.0610995041271
89.9557288424105
89.8555642326298
89.8092399627418
89.7616982669989
89.7314517907479
89.6898540333187
89.6332122512324
89.6031679583144
89.5957258905701
89.5224471474376
89.4249047783968
89.3131488297417
89.2831910893897
89.3274949077372
89.2760866079119
89.0597958475974
89.0072783191703
89.1209853085224
89.0378085176782
88.857594060155
88.8215174941404
88.7655453776503
88.7234600847971
88.7108391223159
88.6518793435976
88.6408425957896
88.6359243421131
88.5742609029117
88.545666305068
88.4315057186981
88.3344442382643
88.2676780962301
88.1796389271367
88.2160891164128
88.3403718706984
88.2960483398511
88.170953861807
88.0904315829623
87.9941219713081
87.9325152228133
87.9055168969385
87.7636686686285
87.6581584184611
87.6809048697904
87.7616639356441
87.7893792846495
87.7885458025454
87.7387344298669
87.6772103204244
87.5908731143554
87.4639231361595
87.4483562995493
87.4986429927162
87.4306781438394
87.3553853111281
87.2659030574432
87.2386328833521
87.2850762015605
87.2984621787523
87.172709272303
87.0555138564325
87.0682706604719
87.0677040494963
87.0027079720821
87.0220356324284
86.996607120728
86.9317386192609
86.9282899198771
86.9075611349971
86.8477591179754
86.8653888105724
86.9087288661486
86.9133612765654
86.8520737912345
86.8191110535978
86.7557215634812
86.7156883123749
86.6845141219526
86.6501790635833
86.6350452452656
86.655751635864
86.676520316227
86.7143541307578
86.7625218103293
86.7611001509611
86.7008184044959
86.6543679895625
86.6431900223171
86.6052724556668
86.5497961058619
86.585559271235
86.6020270372489
86.6094662958987
86.5996821813763
86.5847788171351
86.5289771956866
86.5684054627541
86.6296541118511
86.5498214972943
86.4618952854638
86.4692596280216
86.466417781872
86.4786099311332
86.5139704664623
86.4829888088561
86.3559220828853
86.3262603032793
86.3261368434331
86.3667978981652
86.4548733521489
86.4373909940512
86.3987582502044
86.463890853024
86.4817589499907
86.4625482493281
86.3997234428936
86.3286919903129
86.3486968739444
86.3766533122488
86.395158341149
86.3574742860293
86.2813292892831
86.3351014692047
86.3648982024229
86.3864647179898
86.366210967881
86.3565691302181
86.3361425730364
86.2532634545875
86.2699506115093
86.3885488117607
86.48247862348
86.5579980906669
86.5488077192033
86.5139801239356
86.450975693665
86.3747791154852
86.3933702550556
86.4229940081975
86.3793282866184
86.407944237394
86.41141407108
86.4667203943668
86.5239602476453
86.4700527093585
86.3993371197199
86.4019981494193
86.4764006508731
86.5771605200718
86.5558192223189
86.547759094567
86.5217383137603
86.4406728703345
86.4875382441009
86.6345576400556
86.6330743522341
86.5889727537236
86.6036084840678
86.6121706441314
86.6197567243461
86.6951805999828
86.7940513830238
86.8021684014533
86.6749172463887
86.6995150972344
86.8443615144421
86.8427899091276
86.7850624318946
86.8902991930226
86.9025456138051
86.8466157323221
86.8835754034904
86.9572302972345
86.9923729439665
87.0074016829665
87.0767955613414
87.1432275126442
87.1136436486146
87.1225792059384
87.1327417075607
87.1524511282802
87.2483385206537
87.3714426798583
87.4060588467264
87.3426797672948
87.3294523365824
87.4067672640018
87.4071397397335
87.4065695463252
87.4522742063318
87.5091523535544
87.5418403154665
87.5498082352898
87.5408492618603
87.6288331297991
87.6802291532002
87.5978531282388
87.5394222596489
87.6252799191055
87.7281776807314
87.7373037200706
87.6886275915851
87.7260955445153
87.8269432913784
87.9095070894215
87.8797205843056
87.8326732880417
87.8174368052821
87.8774835857697
87.9389698001239
87.9579830169511
88.0197431252251
88.0960285923587
88.1029453291682
88.1558907101865
88.1773650735107
88.1500738317844
88.1304476563627
88.1228985844981
88.1525834292829
88.1887976134518
88.2430930671999
88.3087177361021
88.2559009600029
88.1961475352946
88.1746491245241
88.2096838329291
88.3130319541906
88.4348884014492
88.4588608062643
88.4264091998719
88.4057719941485
88.4585481000182
88.5596255207062
88.603312219444
88.6035257612277
88.6622799873493
88.6628092048284
88.6297331023566
88.6986047556356
88.7492064973371
88.7076648878023
88.7072234475237
88.7074053177096
88.7263369154709
88.7792198152404
88.8708601122694
88.9434917869985
88.9385177318706
88.898785039579
88.9106444623035
88.9469102876963
88.978652399443
88.9936962690246
89.0507599873177
89.0552660986175
89.0286337243916
89.0344081034883
89.0325975995614
89.0236967891803
89.0479559516742
89.0457100609899
89.0631124909167
89.103461367164
89.0904009269754
88.9840765534649
88.9624718585882
89.0521225289984
89.0555052309772
88.9157639625837
88.8269391596654
88.8221352827094
88.8404610853184
88.8111463810273
88.7881698909967
88.7968651787911
88.7927712409155
88.742216512348
88.7045720252498
88.6936853625475
88.7187021248168
88.7383415130752
88.7038554521022
88.6734593854717
88.6365642055925
88.5652116567885
88.6006631932755
88.6123386374834
88.6094681330782
88.6420491704759
88.6197215356919
88.5829557694586
88.5241535859438
88.4487264319985
88.4633669649434
88.4756344790385
88.5018513030662
88.5228219616152
88.4949736853555
88.4722246330775
88.5289898239048
88.6211648446441
88.679342688936
88.6896731826572
88.7620371671971
88.8357802800016
88.8407649332234
88.8610053870359
88.9676317244351
89.0471153787776
89.0225296162727
88.9836031605784
89.0446787663051
89.1459979392169
89.2081666198945
89.1983670660032
89.1688315435311
89.1603389025344
89.2344369947082
89.2934897365558
89.3180271837962
89.3190604342927
89.2930508641794
89.2717801815621
89.3495925465937
89.421936006313
89.4302345130399
89.443452382285
89.4280897970563
89.4068490937995
89.475125319644
89.5242201204915
89.5715588800508
89.6318540677032
89.6408659100722
89.6193654851257
89.6330181314797
89.709208122282
89.7530111302496
89.7250883658745
89.7460118372888
89.8025475874453
89.901609212585
89.9870078335502
90.0174573479151
90.0275930038352
90.0480911410433
90.0287099478316
90.0674679586543
90.1925556268541
90.224674068606
90.162304496931
90.1984153032766
90.2440675629062
90.1955624208479
90.2267084800409
90.3014972134933
90.2940683764065
90.3091449798628
90.389002989076
90.4532507205652
90.4131336011605
90.3994775261211
90.4206661627995
90.4307870449093
90.4858015420245
90.5422552654503
90.5293286758511
90.5384036936647
90.5781233369143
90.6329515756164
90.6569506056647
90.6655120664788
90.6429280029114
90.6085874248857
90.6248043199207
90.7085688213911
90.7868002358932
90.7826071364716
90.7191328553124
90.7218917508881
90.7142578923045
90.7531664116828
90.8516060638651
90.8548338750029
90.80949175841
90.8327652347725
90.8693805087322
90.8904768356127
90.8885634656869
90.862366391267
90.8708010669091
90.9400731299417
91.004511409031
90.9975513417897
90.9369266834122
90.9419973313486
90.9971090396657
91.0458504701198
91.0811360164097
91.1027025826679
91.086374750135
91.0443579162563
91.0001904052483
91.028354978255
91.0818175798852
91.1240111987918
91.1411261905111
91.13842494936
91.1506682672101
91.1623438286335
91.1624682830431
91.1873989146025
91.2166052014154
91.2256737501427
91.2231921896438
91.2410134600317
91.2640945056231
91.2686880815387
91.2855020105068
91.3294628262286
91.3530940373018
91.3503416644527
91.352068875375
91.3538011959838
91.3439269234298
91.3678574993123
91.3836153937433
91.3667097051853
91.4097721351159
91.4600442822547
91.4703748289064
91.4552757074276
91.4480818939879
91.519383606988
91.5436799814779
91.5123114166848
91.4952458915794
91.477842620509
91.4675128869321
91.4944519948897
91.5302448813917
91.5639907036939
91.5678429798575
91.5679226696643
91.5900425211746
91.610757194367
91.5896385773085
91.5989882319164
91.6463365979153
91.6713030398127
91.6692378230823
91.6606747176246
91.6860881592764
91.7164221550164
91.6934745482614
91.7110359753844
91.7911472281015
91.873785207215
91.9157118014858
91.9566591031221
91.9518968720547
91.9193094935897
91.9236120413719
91.9981789344507
92.0044920707462
91.9960913123122
91.974205230094
91.9329830238208
92.0590584843687
92.1681394161606
92.10060199389
92.1113208936582
92.2062547588219
92.2521538466449
92.1948965838022
92.1495126264979
92.2305370683777
92.2932105934808
92.2914357118515
92.2856615003286
92.3469025705385
92.3678570167293
92.2873581589674
92.3191411726221
92.4250449408216
92.4963923434573
92.5201725664541
92.4606553283403
92.4323763375298
92.4691513750083
92.4591574506673
92.4589912223223
92.504821813601
92.5598277294954
92.5180921868149
92.4993057782376
92.5806404302219
92.6216159822921
92.6149984733125
92.6363028698329
92.6874215925689
92.7406137186359
92.7761643642867
92.7682915764887
92.7497205508479
92.7223294681169
92.7142042271623
92.7419674385275
92.7367713755014
92.7449073140875
92.7404562830189
92.7180207891369
92.6770658231843
92.7348898971724
92.7933885614948
92.7324041893615
92.7046333072681
92.7700393533612
92.8391078524179
92.8349235677805
92.8258567151045
92.8284735296517
92.8107501582599
92.8411008942979
92.9135285472972
92.9532563410286
92.8835637113414
92.8396852360618
92.8033289838701
92.7564854735528
92.8439490613022
92.9014233758747
92.9067259788399
92.8892902702048
92.8864322707581
92.9240454074008
92.9347847374726
92.9631416693501
92.9797129177566
92.9677325494554
92.9546326556306
92.9287510161109
92.9198397746839
92.9000076691215
92.9335587744996
93.0126158184665
93.0679481561691
93.0763207975743
93.0618889372743
93.0766833118965
93.0364463679435
92.9587333827688
92.9334792949136
92.9940020922302
93.0529832261082
93.0712861764193
93.0725396101803
93.1114684086582
93.1602599625006
93.0371820191134
93.0219431579499
93.1480026940777
93.0828947078421
93.043667558719
93.1132844517426
93.1402862236773
93.1630646040747
93.1806433015159
93.2308001255592
93.2321311585007
93.1235563059847
93.1024401431196
93.1284780256698
93.1186333180686
93.1902047627373
93.2904357861543
93.2867032382912
93.2337921290109
93.2018232482342
93.1142883407964
93.0739153246422
93.1294872594893
93.1486005472376
93.1702105194758
93.1999949311976
93.1686261875344
93.1471569256055
93.0763316434106
93.0683930519306
93.1159175193872
93.1274660575805
93.1665178729948
93.175853556867
93.2125618890249
93.2997670505668
93.2259589871688
93.1189118201644
93.1971249097583
93.2430396601746
93.2103121200115
93.2081049289962
93.1812840935916
93.2183267421407
93.2499693605039
93.2368384052814
93.2517957376551
93.3046387998705
93.3071083047703
93.2133822100038
93.118519966364
93.0948563351467
93.1210143134436
93.1814466152235
93.1723098786222
93.153378777461
93.1290375519163
93.1200245873751
93.1730870317103
93.165564324903
93.0419157630798
93.0108685834325
93.0383729010651
93.0675005428587
93.1230955587278
93.149125647847
93.2025432877669
93.2317968425902
93.2094425332225
93.2468791778986
93.2780199630836
93.315078387
93.3033613825191
93.3075890960669
93.3276428956705
93.3757178096507
93.3929336058109
93.3841999328778
93.4658012659042
93.456963478457
93.316547380836
93.4146027282532
93.5465557714173
93.51647630133
93.5147371060906
93.628536746095
93.7237992487911
93.8701698364331
94.100933627443
94.0731283038277
93.9301438096695
93.9253054262731
94.1133047577084
94.2765868406477
94.2638935993989
94.2340737978309
94.1691322302201
94.1679927225815
94.3819201674605
94.5096396830161
94.2499187469169
94.1598836535645
94.5557994419194
94.8841513503027
94.855931022293
94.7045845976217
94.6279154559232
94.6524056205355
94.7911080100581
94.799620041141
94.6252772811989
94.7245671254667
95.0641683055098
95.0409800846161
94.7803239599829
94.9883806283499
95.2169652036521
95.2729281143545
95.4482807434694
95.4731975098098
95.2449304371093
95.101909209235
95.2704158212342
95.319699542614
95.3372344357006
95.6167056768367
95.8048156184372
95.7201046815122
95.7556549169727
95.881794920524
95.903998536387
96.0653911013065
96.1018888143236
95.8663091819068
95.6871617603649
95.8659936283313
96.1997761333955
96.3066535129976
96.2055183591325
96.3622036702892
96.4426817548812
96.3812032543079
96.6650304958939
96.8575746144534
96.5908142312741
96.7650102084055
97.4847659020514
97.5520941139681
97.155634171685
97.4964081901265
97.3009864462331
96.9659148772071
96.8482720614186
96.7641168151065
96.869540747828
96.6309802220233
96.2877785497126
96.242585467847
96.1408009936064
95.8841412282559
95.6155215673236
95.5682905241701
95.5935932447481
95.4342666623971
95.0639500451215
94.884124668082
94.8869860421527
95.0515795881946
95.1182812607701
94.9905931275545
94.9012517924889
94.9350412906044
94.8933659383394
94.8563825148141
94.8496420640429
94.8261046887033
94.7910957379008
94.8512635114176
94.9669391675102
94.9925438526077
95.0802742172034
95.2504083084146
95.1705940559099
94.9201460396903
94.8838575668351
94.9850169397279
94.9719731648313
95.0542112916743
95.1392335883356
95.2389007481981
95.1667928926737
95.113851744515
95.1926772163383
95.2533897438416
95.2591111274731
95.2749060793093
95.3755187349354
95.5672004545052
95.6253385772597
95.5633906409849
95.5617291381871
95.7391668921282
95.911121857349
96.0336695688671
95.9808178381333
95.9548212241572
96.1746593511167
96.3935217136489
96.3776505916952
96.4150713421458
96.6193507704863
97.03591157058
97.3358550061064
97.2084782113947
97.2203038193626
97.3202116164514
97.4347860775289
97.8326543750612
97.854940273459
97.6457098157421
97.2319988265438
97.2102319347141
97.5754468404675
97.6787251576822
97.343989028041
97.2402322884653
97.2394057002573
97.1402130356391
97.0533029308727
96.9012845295801
96.7907960139675
97.0291257905693
97.0827098326141
96.9252597919997
96.6768406463709
96.8063808251147
96.9654695909528
96.7081740363647
96.3711105264625
96.3443019602685
96.6746217222469
96.9515380703587
96.9320439407564
96.7322680936046
96.6596341886979
96.9455283946928
97.1500390016037
97.6024269291972
97.6014422034943
97.422547491148
97.2379564314309
97.0139807826462
96.8994864821941
96.8653648634656
96.7942299696943
96.7692222370688
96.7242919831185
96.6686722075919
96.6344811407787
96.4760946690467
96.1426203617895
96.0327509535113
95.9803437931241
95.9439929651852
96.0049592237418
96.0251508748726
95.9517848471357
95.8211444355281
95.7376506316098
95.7898480703223
95.8150774750538
95.747121260766
95.6347863055954
95.5810290599218
95.5977683323492
95.642771357486
95.5557516051269
95.4975765871157
95.3796415185087
95.3047605231265
95.5124156532052
95.5898154650165
95.44246768783
95.3583486926771
95.3149598329133
95.3563713168529
95.4428511007841
95.4580108192003
95.3694961100933
95.2567067311871
95.2560173401957
95.3475081724936
95.4106165915228
95.3159645438142
95.2660054187053
95.3348497041112
95.3566573442025
95.3095237373425
95.2729793493043
95.3202537173664
95.2663298782372
95.2675956363008
95.3427449448476
95.3616735241078
95.3310381096659
95.3196808165251
95.2372701749203
95.2076346726611
95.2865103258728
95.3112309457429
95.2818261130639
95.2675781527977
95.2852571633365
95.3884774227922
95.4231734206676
95.3682027957831
95.3243419542165
95.2699282319624
95.2483977910493
95.3559291170278
95.3416134932414
95.3336352128461
95.4384157744267
95.5009368691344
95.4672042919378
95.3817064561806
95.3626740763152
95.3766374576556
95.3098081617391
95.2806887567495
95.3555047459097
95.4566055744046
95.5135565323259
95.514697977318
95.4388861043001
95.39417239816
95.3684600881662
95.3679097435664
95.3883810046491
95.3948890521414
95.3525868000091
95.3226345383961
95.3373635836242
95.3311640065711
95.2706829965371
95.168390094144
95.1299463741199
95.1715452162502
95.1737814056737
95.1213603622856
95.0653370585276
95.033075141478
94.9789686631404
94.9595236144689
94.9320600570622
94.8592691868216
94.6802729542406
94.5476651403936
94.4653508812538
94.4408517103548
94.4227777543883
94.3543304100121
94.2807072463816
94.2696594079987
94.1976689483612
94.1679956142445
94.173132853596
94.0984255191981
93.9343922268388
93.8476705503591
93.8266121502983
93.807973339069
93.726952048488
93.6573906266279
93.6468932427575
93.6377098804274
93.4051686198428
93.1776739522582
93.1182462633234
93.0303838724129
92.924929101877
92.8153032466359
92.676794377392
92.5534910092102
92.3773923230045
92.0573986569975
91.7380973338274
91.5631627553487
91.3765571920631
91.1917670062256
91.0286796195687
90.8619706512181
90.6228739876734
90.4721210130158
90.2093079118362
89.805194342023
89.6472581386446
89.3561493085365
89.148478482279
89.0514665874488
88.8126855386771
88.6056900335301
88.3934933650335
87.8938670475585
87.5535658955724
87.4611625814964
87.2403339219556
87.0001246222761
86.6506510130612
86.4169739277976
86.1407175774042
85.7268728903633
85.4927861634707
85.3561270671696
85.0295584469353
84.6399588078556
84.4305057674657
84.2698600910574
83.9944561862561
83.5749037731542
82.9408893264924
82.9205327149084
82.8882857735776
82.4598566122673
82.1222854141457
82.0770299778667
81.9794922102975
81.7922874920841
81.4899823655488
81.0364553963779
80.8061634536295
80.8221293676698
80.6835591560202
80.4458465709
80.2321038353594
80.0406295549316
79.7686459475601
79.6477021820268
79.5114472014551
79.1332940199107
78.8291074092853
78.783302271443
78.572377424105
78.3128010689631
78.0913455622942
77.8697337547415
77.6141891867212
77.3850880275869
77.1676137398708
76.9657696719488
76.7507918709664
76.5438606027765
76.3708721794747
76.234820435903
76.0735778485294
75.9081335555668
75.7523702402798
75.649617592843
75.5749384967107
75.4686750204182
75.2718222373812
75.0036170943389
75.0554809836096
75.1765865607241
75.0142082417937
74.8822940673888
74.991942781772
75.0686032918775
75.1123374221841
74.9852074271748
74.4450875347413
74.7096864224714
75.4626367936458
75.6757168209596
75.8098697173553
75.946697784999
76.1807222151449
76.4360512047882
76.5446536369665
76.628185578374
76.6651445161153
77.2844805212205
78.2010525115001
78.480266109549
78.4792681122133
78.9262856250553
79.3553912454246
79.5484424132111
79.7901678428715
80.1091125148175
80.2455977442955
80.5357675805655
81.0441693547114
81.2894920438946
81.6176859984403
81.9381893593221
82.1500461224912
82.1940584733656
82.0545033462522
82.5909153576925
83.4282631281009
83.7022940482432
83.7190299496477
83.7507399227602
83.9718513966748
84.3522261924373
84.5265747501123
84.5031505007035
84.6467963193884
84.9133551712119
85.1351505848424
85.2630822819783
85.3551857563764
85.4675424216032
85.5005369314372
85.4364668646226
85.2918393198278
85.1780084072699
85.2876442337205
85.2214547798984
84.9568277691188
84.7002277744407
84.6325926396266
84.4953729417337
84.140140787601
83.7259993783624
83.7500870965539
83.7883395467282
83.5669220816853
83.3250851238271
83.0970717890918
82.9633181681749
82.8470130360659
82.7032108935927
82.5557627232443
82.3177592518406
81.9938347602351
81.9574563923408
81.866802182643
81.5573841480027
81.3035967735087
81.1189022362425
80.8515799654207
80.5227239451309
80.240921592933
79.8169180989145
79.5032033093008
79.4297212510198
79.1791383176076
78.8533167591692
78.5757582487042
78.3429468641187
78.0901211267457
77.871612869863
77.753265224155
77.6173407728321
77.4264454770943
77.3836427036271
77.3003042283216
77.2342105833999
77.3065558544068
77.2890885596171
77.1771351332708
77.178952816787
77.2822375011417
77.3286002660046
77.3595537718198
77.4054984849215
77.4652010536869
77.4921820557681
77.6060748723362
77.8110898093092
77.9258564429564
78.0512243302175
78.2145327541573
78.2980746533371
78.4257819287043
78.6947786497556
78.8962258640278
79.0344614898873
79.1910801238105
79.3751515570558
79.550129898837
79.7495598374633
79.9275040239739
80.0790920236801
80.2162454294077
80.3193945433742
80.4444483753316
80.647025667933
80.8192942622489
80.9371431657284
81.0413649313631
81.1481386670066
81.2713916612021
81.3932697342771
81.4765640298072
81.52541592514
81.5534338081542
81.5998684150656
81.6899370662573
81.77087568326
81.8165035276152
81.8786328412701
81.9303409258207
81.9881803149901
82.0645120729373
82.1442294462945
82.2053985893689
82.2519559516937
82.322190461661
82.4199828400273
82.5097239963291
82.5887563857599
82.6420664559778
82.689443743456
82.7371748348574
82.7801525799384
82.8296404072982
82.8857115057608
82.9255752587683
82.9353803072599
82.9210101548136
82.9307428269885
82.9118757182
82.8920166721122
82.8937081757095
82.8572681108128
82.8268320906164
82.7904746856983
82.7591852709715
82.7186750256488
82.6921833447308
82.6727369158777
82.655285707389
82.6449034101021
82.6288286235135
82.6121457990572
82.5769264667711
82.5395772632372
82.5196656523024
82.5146490721178
82.5055255132508
82.5128343513834
82.5290066597428
82.5477707594388
82.5838096273645
82.6185655507042
82.6491380283896
82.6890934465697
82.7575210835743
82.826409240947
82.8782589999673
82.9394308531475
83.0191811394723
83.1160163386255
83.2207074841841
83.3185786265268
83.3955049217627
83.4931383071049
83.5965476578769
83.7130304680985
83.8521400402015
83.9647296659178
84.0951184639732
84.2191203844777
84.3074919832127
84.4085941141994
84.4827736895769
84.5459601145608
84.6148904589531
84.6625723816982
84.7041919045927
84.7455359190878
84.7539234836499
84.743081226892
84.730141781373
84.7319976877698
84.7355058656046
84.7007611701599
84.649506842481
84.6049124710729
84.5980488447053
84.5627993740882
84.4914899278893
84.425109439314
84.3654415702585
84.2725526348579
84.1573602135204
84.0462403521496
83.9250738933672
83.8092105044166
83.6725251440018
83.5198961941281
83.3842892901035
83.2336455274019
83.0574458961765
82.8725716268571
82.7022162041734
82.528759324824
82.341667655834
82.1424269576499
81.9333752205814
81.7422081526286
81.5351559811954
81.3365574368614
81.1422202945234
80.9493177502048
80.7637769566271
80.5880309432519
80.381585557264
80.186547747782
80.0218381217928
79.8665063256314
79.6959344251657
79.5048348052634
79.2946804935853
79.095456096377
78.9129907550316
78.7212130320418
78.4961336044229
78.2903709020908
78.1044697978862
77.9187848949064
77.7100830581583
77.5259165088684
77.3442339740463
77.174224876138
77.011925134364
76.8278310519669
76.6598898303484
76.5192197801091
76.3898634292821
76.2350126461098
76.0405452208328
75.8722095730712
75.7315525085926
75.6159564248109
75.4627465856823
75.3032002720545
75.1851283543489
75.0771711939559
74.9612670061209
74.8717126386801
74.7746150012494
74.6921482876276
74.6186864836544
74.5684654399114
74.5110607846176
74.4715503771104
74.4430423992773
74.4363925543214
74.464156278644
74.5037681384765
74.5482001658622
74.6052639859998
74.667266002397
74.7458259608663
74.8257460850438
74.917134236424
75.0273968533896
75.1687110215686
75.2964605443731
75.4437944924256
75.6048787449096
75.7583483220693
75.9381372020243
76.1249078332924
76.2894445274749
76.4713087387666
76.6506151335196
76.8317934743678
77.0373437413597
77.2442427373914
77.4576101661542
77.6667906303077
77.8737524897977
78.0885738141543
78.3172113968596
78.5349549268919
78.7181131320591
78.9035847269332
79.0973361049794
79.2978138820549
79.4810928172234
79.6616601126651
79.8081448653241
79.949243238838
80.1038174149223
80.2764444035764
80.4379863058128
80.599955870795
80.7571262424151
80.9246749974103
81.0780694049428
81.2404783130941
81.4316520537649
81.5792382074528
81.6942227645928
81.8550247208936
82.0431923754403
82.20442579286
82.3252152853717
82.4477242043017
82.5881430389085
82.699639185176
82.8099682163444
82.9389250122217
83.0360841728852
83.1148851216456
83.1909402739455
83.2781905260858
83.3451178047361
83.3797800287225
83.4074230438585
83.4429561070947
83.4827299405237
83.5302210834076
83.5902810257981
83.6645693829093
83.7526485384841
83.8218825998244
83.8629574649786
83.9310569856706
83.9838912609359
84.0084188960657
84.0168441330109
84.0227488585699
84.0393326297933
84.0884326521226
84.0810908894585
84.0566150938029
84.0608262228446
84.0616220940476
84.05023747595
84.0271919074629
84.0079141171046
84.0150022647544
84.026971506025
84.0429982221607
84.0312567240678
84.0009718889873
83.9927286845801
83.9855036903482
83.9659731704932
83.9562931467036
83.9573165467829
83.9240935001428
83.8881678510664
83.9132310547227
83.9047481847916
83.8715771523734
83.8342472641398
83.7686235729203
83.7028290066659
83.636260824021
83.5455873936509
83.4584347934874
83.384340939823
83.3385077017068
83.2493840981831
83.1775191777635
83.1030269268242
82.9913491699319
82.8964684674395
82.8011107682465
82.7282136836008
82.6658637514657
82.5466287891911
82.4307176463548
82.3414523197119
82.2837475286243
82.183930161103
82.0602431813442
81.9924502341685
81.9326262566495
81.8454396142848
81.7801400086237
81.6976622166354
81.6373195637583
81.5703040910587
81.5095002718496
81.4496306202715
81.3539438769037
81.2686115763589
81.2606580990628
81.2537944926592
81.1740678362059
81.1113700860228
81.1148363604343
81.1465200461739
81.17255823462
81.1355558545255
81.1024213262725
81.0673158265346
81.0535535923408
81.0046709669715
80.9418218049212
80.9211292635639
80.9366528749994
80.9019431522285
80.8716048271618
80.8519567398743
80.8369644814842
80.8057319840686
80.7506354603974
80.7003897158006
80.6710714496811
80.6139253914997
80.5540471845855
80.4896942252441
80.4455668112165
80.4059906700644
80.3891022830446
80.3231436322315
80.1919772688933
80.0761838221169
79.986180627491
79.8834415991067
79.7548761622993
79.6585542218396
79.6371348993524
79.5910139463652
79.5404964757159
79.4351719752064
79.3218009794472
79.221729239843
79.1026279961826
78.9887672230697
78.8533601826131
78.7321716597283
78.6563680737404
78.5668170641465
78.5273565925542
78.4494879803587
78.3799195782754
78.3046940051314
78.216268909213
78.1203330140987
78.0824014988087
77.9806678153874
77.8708412988444
77.7434767260364
77.6681888761438
77.6327213798662
77.5807078112326
77.4649588819712
77.3823643716984
77.2070011697768
77.248672459683
77.1875230386686
76.965649228771
76.8357732316364
76.7178579771802
76.6285122786157
76.5566885531988
76.3992630742379
76.3305136798331
76.2886892041043
