1798
3999.43349933624
650.420452594757
1
128
4
93.5145531572822
93.49545718016
93.3098688452989
93.3305869200924
93.4330502332885
93.4743366832669
93.3461874222462
93.342909072959
93.4658395246677
93.4725600597519
93.4988996220187
93.5281233097743
93.4015835704861
93.3354939054561
93.3850283609973
93.4788409727009
93.4495147554293
93.5080512418024
93.5236364619952
93.4242144354366
93.2786530186265
93.3272810588362
93.5194798303465
93.5385321437474
93.4688968548156
93.4991737784604
93.4526587527522
93.4168361004691
93.5183248403884
93.5878168183212
93.540119126066
93.5294452247047
93.5290569652722
93.5733151162735
93.4941266103632
93.4178957799584
93.5218917224339
93.5543463033147
93.5050708139482
93.5495822281658
93.5348743121634
93.5637166399099
93.4763927119544
93.4165456500503
93.4998861969392
93.6891848748027
93.7575611998682
93.7579840055232
93.6986221942202
93.7066739704017
93.6698418972107
93.5678426058864
93.5584072201265
93.5802003788665
93.5678012830684
93.6012510384932
93.6360054336857
93.7540471570675
93.7712540936171
93.721349496065
93.7258856157347
93.7160742859262
93.6514718755775
93.7159099972698
93.7288333796692
93.7955922518311
93.8320447815903
93.7550616601893
93.6946580682292
93.7075030753153
93.632237591502
93.645456774982
93.6991867385285
93.8291433726788
93.925170465784
93.9623343062266
93.7883941376515
93.5652962653687
93.5225122821319
93.7675945446787
93.9071102261022
93.9377463401023
93.8996753197884
93.8708869669504
93.7598479660221
93.7077999300206
93.7047398828749
93.7885859173713
93.8990912178122
93.8748547895556
93.8021767027597
93.8967437075921
93.9430178541726
93.9225754582957
93.8676533973886
93.9475292859661
93.9419301302679
93.8514149543863
93.8446330495109
93.9647755180991
94.0313835903019
94.0177472759711
93.9148675242005
93.8921694844284
93.8937337839254
93.9450068309595
93.885448571531
93.8630460690461
93.9045997280171
93.9147774803058
93.8531896344154
93.9126944055445
94.0368375720416
94.0929926719004
94.0238697984413
94.0538553341097
94.0873736047929
94.0847372894257
94.0199504553032
94.0535135992545
94.1195216301194
94.1598745354152
94.0818192176624
94.0925917857036
94.1524826664446
94.1121625618648
94.0947049748429
94.1840514885907
94.1591367357582
94.2259179486768
94.3418332366386
94.4163993254992
94.3282646952953
94.3036817109387
94.249162159155
93.9895388279424
93.7876520983708
94.0310452607821
94.1905218639342
94.106587532409
94.014675322486
93.9208397614261
93.9369422465006
94.2276204627077
94.257289034354
94.1962727060471
94.0556778480291
94.0041187315062
94.1229980817547
94.2655039647965
94.387099249323
94.4006852322047
94.2527269899867
94.1165570124123
94.0918093874865
94.2889516107615
94.3505427179738
94.2730406852498
94.1635970744118
94.2223330204687
94.2710557035626
94.3758263321888
94.4752054814433
94.4712895405751
94.3481810565617
94.3417557445381
94.4094977590903
94.3971340993159
94.3239866884144
94.3431278971289
94.3698901596351
94.4065694505873
94.3412830926696
94.2223179935581
94.0398843824353
94.0303930963424
94.0940588096972
94.0073221798605
94.1150335546122
94.1930694883862
93.9867182054475
93.9504244679019
94.0502696722029
94.1956352278964
94.1698391000517
93.9569959339928
93.7779238600073
93.6205857401637
93.3548222167883
93.3229520048003
93.3176995174628
93.3066005295936
93.2510236428012
93.2836267496104
93.2589912660303
93.2561819956536
93.1218145857153
92.9032797431852
92.7802754833483
92.8412351676521
92.907023774491
92.7160455989689
92.4714464737284
92.4123907205183
92.3637829508675
92.3579595272812
92.2353909606194
91.9760385063217
91.8384243889997
91.7214913049733
91.6381365263428
91.6802132442491
91.6327072540022
91.4625460125697
91.3466789120244
91.3398024647827
91.2562210535007
91.1646174081822
91.0152268668626
90.8746391310193
90.7433445258887
90.8546824446768
90.8415738469272
90.5600314633925
90.2862681611434
90.2181695031369
90.2133365230365
90.2102213541999
90.0166924355605
89.825594942746
89.7125564309974
89.6566653510293
89.471666465903
89.4125430331023
89.4446208671874
89.4202969688465
89.1456676848234
89.0460377620008
89.0369159789391
88.928809960568
88.7457588521132
88.5850031559738
88.4212264901405
88.333972393536
88.2303299360049
88.1788369275106
88.0813124733349
88.0432260923269
87.8834028192629
87.7155600256923
87.6035883887764
87.6001353628272
87.5739189937774
87.4448859809544
87.1325602412662
87.0135496778248
87.0286308496266
87.004031837149
86.8738158979022
86.8040610721392
86.6536192620368
86.500709070934
86.3429022869398
86.3837927067828
86.3012226103955
86.1741260630135
86.0609608546183
85.9692449219843
85.8215665391961
85.7047840001524
85.6368201775308
85.614372899228
85.4436886854947
85.3098435644081
85.1432629122228
85.0984514104397
85.0267320737805
84.9199583624515
84.7270715401122
84.6084503172262
84.5369073410344
84.4865054969768
84.3196598094754
84.2160343596253
84.0360081585784
83.9606682896601
83.9235506640608
83.78653047778
83.5423758819572
83.4409532274509
83.4737069705911
83.5232617745662
83.4631876946237
83.4326545254576
83.3001502091283
83.0319814893042
82.8120759035008
82.7692175006184
82.8024448358642
82.9150545150292
82.8235057102502
82.6010423748569
82.4438637942693
82.3942808631057
82.2411348592904
82.1330466549767
81.9952365229647
81.9527527740781
81.8281797165508
81.6739035704663
81.5467590251435
81.5813771452266
81.5058473159542
81.4270042104072
81.3765546756731
81.2029090379035
80.9672457661013
80.9425065447361
80.9811947554492
80.9596798239231
80.8078773703222
80.7479448681846
80.7182068373947
80.5981405583524
80.4128337012982
80.3154532842701
80.2614903559045
80.2575660567231
80.1046251641918
80.0092926458886
79.9614024509791
79.9844455158678
79.9704724842468
79.8489376119721
79.722396236466
79.7189408745835
79.6471124529111
79.5233175994183
79.4153706894289
79.4197470962309
79.3293424413949
79.2795185186661
79.2801520103926
79.2312633518514
79.1101514287525
79.1359614538603
79.0738316973008
79.0393087201035
79.0335093193121
79.0052925761213
78.9673948853396
78.8835944110698
78.8067379690882
78.8444016734065
78.757762716733
78.73691316849
78.6821543988037
78.6061136876242
78.5417332962221
78.6025309330527
78.6150736519409
78.6024283184995
78.4813332307548
78.3593847223185
78.315173872931
78.39645126463
78.3702055556777
78.324164127397
78.2118520133361
78.1759907310498
78.2078512490211
78.2816583228664
78.2514135314377
78.2339176003571
78.1179086913901
78.0428563281188
78.0396045677102
78.1213993113455
78.1120147201529
78.0281107110436
77.9303747415146
77.8883302069851
77.854186001077
77.9292450438997
77.9630364654733
77.9269397791007
77.9214667284272
77.9445295176599
77.891197142654
77.8883724686033
77.8535071162478
77.916380470531
77.9614179427415
77.901801991023
77.8137419748894
77.8801955277328
77.9178217995366
77.8888242115712
77.8470524867851
77.9151328637492
77.9065281251041
77.936043524057
77.9390806885193
78.0159481210335
77.9896576913575
77.9322674559571
77.9041236811656
77.9969846633985
78.0662219041912
78.0657870429097
78.0151644899477
78.1555123419506
78.2425999125906
78.1971957531903
78.0864188282939
78.1186743544277
78.2040137313441
78.2384911792296
78.1971583337811
78.2346768789164
78.175272628916
78.2111254776715
78.3070588134049
78.3977338412656
78.4133243114834
78.4329582849519
78.417339013953
78.4652914991948
78.5294475780652
78.6050864635289
78.6106056658414
78.6670177591212
78.7550776108885
78.8483680610194
78.879802079008
78.8816920091051
78.8836549020313
79.0115119321658
79.0287278005043
79.0719263013094
79.1038481707598
79.1217996170211
79.1814308410463
79.2872699458566
79.3291031793069
79.4310973241214
79.5122382504469
79.5595956126054
79.5899035643563
79.7464635609291
79.8298709182773
79.9093454817859
79.9747099700591
80.0146542250696
80.068751943075
80.1666579816959
80.2507631129769
80.2834986330219
80.2430982161339
80.3269726150841
80.4072722147896
80.5649282275562
80.7045458675833
80.8096297305363
80.8255755793536
80.8538391028402
80.8478121981554
80.8816123353217
80.9872040039334
81.0977363677785
81.1386711919481
81.2430061947887
81.3786256614971
81.465207917988
81.4511120194637
81.4278614369386
81.4486970482023
81.6768073073295
81.7362508499073
81.6894131905482
81.600426576992
81.6257124585014
81.7956132459908
81.8403982122642
81.8136992078781
81.9017743796935
81.93138255919
81.9817367605254
82.0643508360949
82.0951033321811
82.1294175395908
82.2720824469888
82.2939082460891
82.3509953091308
82.4183393078912
82.427122915875
82.456123479179
82.5193144735155
82.5010781103393
82.5935267090167
82.6287185768323
82.5994059687592
82.6281480505948
82.7234560985809
82.769119724823
82.820891507042
82.8633620122604
82.987080972745
83.1105113314312
83.191604504724
83.191677927105
83.2471741344677
83.3294497933876
83.4030087942483
83.4662092804777
83.5590036747373
83.6223223505624
83.6806061998284
83.6953125101882
83.7870578788567
83.8000842931234
83.843314582242
83.8845183126943
83.9543357312454
84.0554407232863
84.0877736352471
84.1140242044273
84.1904045552463
84.270843030082
84.3888119481777
84.4790808819215
84.5057179801498
84.426229088641
84.419611636138
84.4837049047493
84.5664950353444
84.5806054821404
84.6309318500334
84.6557850186981
84.6686677277251
84.6843669453396
84.6927308755724
84.6328853738314
84.6245814044452
84.6722676403251
84.6880134967582
84.6703305513202
84.6457382094707
84.5704832586844
84.5916433548978
84.5929641358616
84.5656999921928
84.5508082714525
84.5436513709896
84.4645820721105
84.357793618446
84.3539822701885
84.3722477275971
84.3115100630181
84.3009554648067
84.2987466791213
84.3515095894599
84.4316671578528
84.4253091218203
84.3823447776419
84.4004499586765
84.3058910089396
84.2134274629707
84.1482318047329
84.1265914917942
84.0249449932333
83.9657712952472
83.9851265720653
84.027891623967
84.0239001962902
84.0199492886619
84.0203361433599
83.9843494079446
83.9317114247422
83.9449375363243
83.9950938280139
84.1299798325954
84.2689982977815
84.404273021267
84.4605226617413
84.533717193004
84.6102280187798
84.6602168307261
84.7039124130869
84.7830429395581
84.8498762779055
84.9126819672779
84.957116290899
85.0522513096121
85.11794648711
85.1359502012732
85.1780612757981
85.2445004192871
85.2313285459224
85.2886883894567
85.3385198721088
85.3603376620578
85.3943164323264
85.4051430226733
85.4233234531746
85.5676094287955
85.6248224431829
85.6384363093592
85.6904335207619
85.712422214548
85.705252380983
85.80083071583
85.8765374903025
85.9298567330164
85.9301361458512
85.8712561571099
85.8775279224529
85.9749331897571
86.048311119252
86.1165380706907
86.1913356218425
86.2434279201862
86.3386304847072
86.4861115582917
86.5449657652394
86.5734383155191
86.6182299892801
86.6716059623245
86.7128824193314
86.8127079528882
86.8859320914927
86.9584133456951
87.0077069911302
87.0576877455325
87.1206999768151
87.2106514685812
87.2379636561634
87.2739387887142
87.3245571113081
87.356571683869
87.3720506823668
87.4233164663688
87.4816327568416
87.5482285895334
87.6104123510976
87.640244028106
87.6781296320335
87.7291832280911
87.7098431342762
87.7524138893278
87.8259131786111
87.8662001351718
87.8851228999302
87.9179953236943
87.9187688283522
87.9145401371131
87.9721073925988
88.0553362458097
88.0456707055661
88.0709993120485
88.0752492236705
88.0842237806595
88.0955941511407
88.1432758644854
88.1968089619105
88.2305403048752
88.2720688006237
88.312092263683
88.3874507678855
88.4435314309039
88.3917833272767
88.4043365928504
88.4525957806192
88.4584468989641
88.4972538893601
88.5674893684484
88.582820530609
88.5543778563895
88.5510956250639
88.6347638080624
88.6741807449443
88.6162491843443
88.6050536941259
88.6703675526144
88.7187882871302
88.7727305211264
88.8126831969971
88.8357169416861
88.835604315566
88.8585072031805
88.9117641889685
88.9397203744494
88.9700721763694
89.0089870445801
88.9626691588307
88.9634895297945
89.0246498599301
89.0585487543596
89.0532181071141
89.0467965292742
89.0770046224051
89.1265363113601
89.1345566260918
89.1246012616016
89.1683740402101
89.1920946858165
89.1675906868892
89.1378492012103
89.1808692792089
89.2817681487621
89.3656450097713
89.3512167672059
89.3329520994655
89.3698091445323
89.3354654533655
89.3494568886328
89.4006161044309
89.4198764396881
89.441233575721
89.461053653045
89.3895305813818
89.3944965373642
89.4560625551019
89.4649481314418
89.4580997097307
89.5073022649658
89.5738972916956
89.6144475650926
89.6451997727783
89.6878145362214
89.6973170242077
89.6583940899792
89.6936714160271
89.8532096519649
89.8922418569115
89.8353261617067
89.868420006584
89.9000747828531
89.9400752723151
89.9458538370113
89.9440887891304
89.9838286432033
90.0324267925214
90.0928859711407
90.0474779713367
90.0723361724021
90.1735192881658
90.1811879708569
90.2048392763916
90.2696738367986
90.264529079927
90.2894932772603
90.3650343671509
90.4100332487112
90.4382656079312
90.410561465121
90.4233651635522
90.4696925894951
90.5206069322606
90.5264113698461
90.5484742845835
90.6285728459895
90.6732720055351
90.6703903765405
90.6615676449631
90.6331019078845
90.6957218532988
90.7736110933856
90.7243485736196
90.7822021074478
90.8547037305501
90.8595548244839
90.8735474851637
90.8601192031524
90.9701693685175
90.9548518262232
90.8588786678624
90.9209849069187
90.9094889872813
90.9314288998036
90.9951277515498
91.0097939280926
91.0684891435288
91.1404239561272
91.1224335297223
91.07539540215
91.0209912288731
91.0389982841829
91.1559775637882
91.1752426962343
91.1362264714052
91.1923076204276
91.2236460402349
91.2516006774168
91.2137385151251
91.1438279874872
91.1457829510338
91.1845503328764
91.2432254895463
91.2427053822234
91.1708886507388
91.1894462868837
91.3121477906294
91.3710809493683
91.3619509382164
91.3399943967803
91.3496441881663
91.3393116583424
91.2747461815589
91.2786195203665
91.381041779299
91.3506101132994
91.3799910469951
91.3906560877062
91.3554662729332
91.3176894556743
91.3655842050599
91.4054930171124
91.4385586404891
91.4358684998479
91.3650087255247
91.3764078336008
91.444615680555
91.4303167543333
91.421079970803
91.4166366071064
91.4183555284313
91.4266801513593
91.4176362868606
91.401625014265
91.4297834748181
91.4086884539476
91.4044683557336
91.491990890909
91.5374634102382
91.5606267854904
91.5918943043782
91.5840808593446
91.5574678050068
91.5429036279971
91.5873206435381
91.5781235273467
91.490196269458
91.4882524648714
91.6228695079885
91.7522136285518
91.7635762178276
91.7252611863858
91.7987847027516
91.7972124512454
91.6893982312636
91.6374097733486
91.6144300333137
91.6440005386783
91.678083979944
91.6340864241387
91.6179929345397
91.5954558852604
91.6426591959078
91.7146120990159
91.6997194447821
91.6631815359663
91.6345026351111
91.6757219121689
91.7184499538184
91.6735414962666
91.6999003631888
91.7357098035216
91.7215374687807
91.7359098641927
91.7081803882865
91.7037989937589
91.7647840389684
91.8061382254671
91.8578124466449
91.8671603485759
91.8898646980757
91.8765070800965
91.77753743926
91.652807822936
91.6297891207646
91.7076551324433
91.7685722546604
91.73550951683
91.8357999410078
91.8862844816697
91.822641136819
91.7409562023799
91.7293436700728
91.6806133780701
91.6875897048868
91.7682707044329
91.8018169412178
91.817101051248
91.7892648446299
91.7061074731384
91.6572008879564
91.6665715583736
91.6143939071042
91.5017992767608
91.5360448922533
91.626579291025
91.6261370370669
91.7171731447736
91.8830806189588
91.9239851980354
91.9181842513038
91.9092224709083
91.8840161554335
91.8642034276879
91.9249604892533
91.9846497168212
91.9589381393143
91.9091898570038
91.9165124395031
91.959926307714
91.9835678057403
92.0168628203428
92.1039977832928
92.1030533778733
92.1392819079864
92.2445856697547
92.4025317407084
92.6328874770684
92.6112309190216
92.685248699485
92.8781866190714
92.8001981298409
92.7429171610452
92.8300662234356
92.8272392904464
92.9123188772547
93.1535560295033
93.0633443347748
93.0241749608621
93.1768494819759
93.0839773436053
93.167022861162
93.4567299992562
93.3987824723913
93.347599895041
93.3488907808021
93.4182943703197
93.5911536500411
93.8165401834664
93.6271680149672
93.5700514640326
93.7218602473157
93.8501545662617
93.8771314232954
93.8890776998188
93.9082143960755
93.9461054739316
94.0458962002872
94.2135764894684
94.314525363974
94.3438095848744
94.2301530160984
94.1473369759246
94.3119763700813
94.5739715826557
94.7239591328725
94.6105103191972
94.5851941976443
94.6240636770537
94.3853507394145
94.4336667542699
94.6204003374594
94.8697240835256
95.1386723283223
95.2279353591309
95.0611668582295
95.1242621887846
95.1588192110642
95.1921080953661
95.3135725860097
95.6148485247262
95.5909971917049
95.5615473362507
95.6245056847753
95.7831624419101
95.7954692675031
95.730088452647
95.9863144236876
96.6487739401512
96.5091633456809
96.2389768279575
96.776443207847
97.5019479820519
97.1011382047782
96.3151973440754
95.9646993834272
96.05993506682
96.0005897313935
95.5798107010169
95.2319070026105
94.9975546279955
94.871325121338
95.0158776754145
94.9814897382164
94.7505451562361
94.532907711103
94.4228383602873
94.1772822996413
94.0653978764274
94.0143355692575
94.0554631694273
93.9268890792795
93.7805076565637
93.6413951362714
93.7542351442097
93.8855768578473
93.9312660942644
93.8762425074369
93.9180885802495
93.6979413573415
93.7142712680031
93.9220451953351
94.1658994092856
94.1314124657128
93.9452701677972
93.9749733274058
93.9968338135051
93.9864667894848
94.2354835002862
94.2793358763103
94.0697643303431
93.8961161253464
93.9793349583622
94.0818220311599
94.0871789403062
94.2929085576309
94.4229122940204
94.3153404574868
94.5234324902614
94.6625117022245
94.8837945987911
94.8084688449391
94.7342255167641
94.735056208911
94.6467610519545
94.6393585663235
95.0707154014571
95.2725355647371
95.176263854529
95.2289365610847
95.4232540707001
95.6590386394887
96.1559051284964
96.3204184845105
96.4966725752484
96.5617536058414
96.7094122613808
96.8081420524069
96.9616801219278
97.1712340227039
97.0687730796006
96.6782625845751
96.5763834731518
96.6513792085718
96.8804632852137
97.1201508697922
96.9760442445254
96.7128461247352
97.0025183207408
97.0289262975563
96.9699351320226
96.8921225349677
96.8352544641983
96.5203235891055
96.3550293308151
96.4400079231724
96.4643637820431
96.385056861441
96.2800995521835
95.8770700543809
95.7354491134903
95.9244261691982
96.1070305856129
96.0519638117149
96.1416682192863
96.4410587178191
96.666148565911
96.4434344635079
96.51816804734
97.0485590100337
97.0713143272777
96.7866200524354
96.9933351667997
96.8929145946387
96.4696316565737
95.9726327086304
96.1330914486506
96.2695601811972
96.1853153122343
95.8299873791612
95.7327542666955
95.8812985041334
95.7147649754346
95.3753685739868
95.1790606570304
95.1251298532285
95.233052656866
95.0589617944296
94.8866668984094
95.014212288345
95.1282447977222
95.0811928513028
95.0534288950635
94.7916862586258
94.7661164875716
94.8126324275729
94.7662377196568
94.7012249152742
94.5447557005383
94.4085151545548
94.4879042133661
94.4818609874411
94.4649748029509
94.4122071057076
94.3601333126528
94.2815378760992
94.3820653254198
94.4773720136785
94.5111278519146
94.3964853617881
94.3227491787194
94.2812456442822
94.2661054588852
94.2201870600308
94.2581544796485
94.3049444426441
94.3798846914881
94.2914128261088
94.2320900055887
94.1918023164674
94.2119534563703
94.2375319246675
94.2291593716027
94.2821087433837
94.3309815469613
94.2319924828036
94.1803968909204
94.2562666117474
94.3781042618044
94.2899091334816
94.2486690310539
94.2106521010368
94.1883584050994
94.216580132408
94.3005097319145
94.2963663780162
94.2438694380002
94.2268390640791
94.2165822771596
94.1594158683156
94.1163335268899
94.1893218539566
94.2842778851564
94.2930162745782
94.2899377595304
94.2727578028621
94.2954470308287
94.2694821375664
94.2398087053709
94.2436044814327
94.2375053712312
94.2033640147177
94.2014416375682
94.2252248405525
94.2799468556484
94.3376838202699
94.3257767800708
94.1959554595523
94.158055783119
94.1731411454853
94.2286218058237
94.2346039065354
94.2202855862053
94.2175776866749
94.2681328684009
94.242911065251
94.1629038095622
94.0628664903366
94.052013941212
94.1276465970758
94.1220888853835
94.0621575705977
94.033948148138
94.0427977558925
94.0034609574205
93.9797037765006
93.9498790927937
93.8702503475652
93.7713176177582
93.6804908933142
93.7133628801794
93.6624420928785
93.5739825546256
93.4278384827398
93.3072661443829
93.2265620112126
93.195494858499
93.0591069912667
92.9784862168212
92.8093266879397
92.5865137056304
92.428826499944
92.351606310196
92.1941252461708
91.9675427842899
91.7686930967376
91.6261904862462
91.4529762089793
91.2131707043079
90.8427460476804
90.8128162959124
90.7225795942233
90.5439531840398
90.3241181867586
90.1950620622787
90.0607850642928
89.9490692666242
89.7536189250985
89.6397236372639
89.6523021924998
89.6466795860823
89.5499398808026
89.4217575693144
89.2449993295734
89.0733292270797
88.9420624503557
88.7773562871555
88.392918091918
88.2160361157217
87.8987871325131
87.4780888642139
87.1101484132118
86.6667544346283
86.1753012161997
85.6600174213354
85.0679901369345
84.600234766015
84.4125126779666
83.8560405166092
83.2134094202897
82.5559240024752
82.0525522694591
81.5776406842324
80.9674158260851
80.514434831402
80.0658243394297
79.4124240527046
78.7194008128436
78.2739717041409
77.8549222907892
77.2675126671031
76.5139501167785
75.7464864463089
75.9101650668388
75.9828318267004
75.1343185854493
74.5809480814398
74.6661646563309
74.5040484001872
74.0555813987232
73.6089195509005
73.1563290949625
73.1105793927828
73.6272210858
73.5112224647851
73.1100518499731
72.9121086872337
73.0185454624278
72.9858776222315
73.1464915651505
73.31518022894
73.0075678463704
72.8236511827245
73.3185957538251
73.4433399911315
73.197313416917
73.0773164291839
73.0827205865481
73.1080416079956
73.0220229903098
72.9918924438325
72.9335922729503
72.8581707602948
72.7719621903948
72.7863867685241
72.8430221385318
72.9054896443315
72.9698743412647
73.097451703244
73.210097666146
73.3666064691151
73.5346099780525
73.6362052322022
73.4651817838057
73.6820978886856
74.4321055779837
74.4411690307582
74.125821801044
74.397477502834
74.746018720693
74.7213592584125
74.6099085251806
74.0394397571625
73.451231319183
74.7055025284071
75.1138230559404
74.8844224588894
74.6839609460723
74.4625775567606
74.5223680235166
74.3358500947117
74.1336373078109
74.0614731825329
74.0626128044416
75.0207857962964
75.557237358775
75.1432505272771
75.0425447082337
75.6005851218673
75.7119704189768
75.6467460365466
75.8083206031231
76.0681369982569
76.0429198915854
76.5964472537861
76.8864531573685
76.894013349545
77.1872425962755
77.2033292613585
77.1691119383159
76.9384034287578
76.8047238369646
78.1446284183299
78.973264663019
78.848706220505
78.6649744937014
78.7835396581481
79.4026872058642
80.1046657556667
80.2176437473819
80.1931210065971
80.7430058332418
81.4218878943615
81.8433827452387
81.9930673942397
82.1528177388543
82.3605625958852
82.316188976849
82.1906764628106
82.045051468523
82.0172300759013
81.9861189364824
81.5318512689308
80.9513640721797
80.6357390780788
80.5714112211984
80.1973274057408
79.5921787044762
79.3342585271972
79.8003448116129
79.6594845285614
79.3422631458659
79.0709170208375
79.0249323804349
79.1937656188146
79.2492229556479
79.192435134434
79.1038634090057
78.8461445334092
78.7765650847294
79.0228122521223
78.8020665215801
78.4242627007065
78.1490987906697
77.921358863083
77.539592095798
77.2202358069333
76.883170868956
76.5071950003125
76.6032590201982
76.6531015996107
76.4760026117359
76.3127974989943
76.2813083975736
76.3033743035535
76.2602768196849
76.3260455069572
76.5048148105505
76.4809793073076
76.4719945518173
76.6471272152024
76.7089205000332
76.9397908917846
77.047681053901
76.920996752292
76.7885572198435
76.9468531525505
77.0872189497579
77.0359319392321
76.987662167449
76.9407183783175
76.9133506334574
76.8686692718892
77.0659698952851
77.2458768002151
77.2620220073221
77.3424462448088
77.4424217765279
77.4774064541592
77.7201987379737
78.0409511753866
78.1837350587816
78.2309929457681
78.2907236991554
78.400051141027
78.5075616707527
78.6020874216829
78.7159120403743
78.820058850114
78.8901060466642
78.8803081417947
78.9123773372094
79.0866525735207
79.208183415032
79.2523282873871
79.2899127791483
79.3523474557999
79.4053789077358
79.4454062703529
79.5015288565671
79.5657241709555
79.6043837853131
79.6490308320194
79.7538645628606
79.8547763857915
79.9308074599693
80.0150527547602
80.0801327666744
80.1411521840048
80.2294594726772
80.3106261696615
80.3901874362581
80.4544223985388
80.4899676348105
80.5271978683507
80.5878766317968
80.6447790846475
80.666087982561
80.6643169056336
80.6694595527027
80.6511532324135
80.6114618050861
80.552256454783
80.4681495148542
80.3678777041396
80.2483851521571
80.1233991003014
79.9828605223818
79.8253665444099
79.6801480396876
79.521249100198
79.3528601901715
79.2041470758813
79.0678445633738
78.9487394084368
78.8149095858928
78.6666758371673
78.53258518505
78.4092443927331
78.2946768935895
78.1719878243027
78.0647430731098
77.9821840696351
77.9038371874684
77.8490532847961
77.801772936898
77.7896075487472
77.8044726249926
77.8240689869595
77.8760706861046
77.9446265810528
78.0347016049657
78.1307476577679
78.2406359895121
78.3980245290397
78.5353680283222
78.6601921384844
78.8068445725798
78.9322373351955
79.0437270228886
79.1833287322227
79.3114782567882
79.430598567015
79.5278501477342
79.586933566584
79.6834339378612
79.8136934129593
79.9650344458135
80.1066521061483
80.2022346071842
80.2620708629145
80.2969703810443
80.3056961899815
80.2456562973098
80.1560990526006
80.0255457194967
79.8538266183177
79.6796558633183
79.5244548776373
79.3661690813208
79.1973987258105
79.0478625601106
78.9217428914992
78.7860329118619
78.6242017051413
78.4404786055557
78.2505025739762
78.0609802959314
77.8457817351999
77.6422711165129
77.4741261938641
77.3133973469546
77.1603060880638
76.9912950739554
76.8044676011239
76.6050419920179
76.3911559955334
76.1569479561613
75.8939026139223
75.5905570842914
75.2066904392843
74.7696490746615
74.2973330829439
73.7961200033803
73.346267622085
72.9594438115123
72.624049545868
72.3332273623015
72.1234386605949
71.9561103156511
71.791158289741
71.6476369041847
71.4931452832479
71.3636313965584
71.2445519754836
71.0914048955358
70.9193213235524
70.7211983878808
70.5036859045929
70.268151829281
69.9888141262111
69.6693671367805
69.3463850614401
69.0099438792736
68.6448195703663
68.2552236446216
67.8788691890486
67.4652668343045
67.0570465871185
66.6898011031389
66.3288912526944
65.9898233517886
65.7008848963771
65.4617087100912
65.2460263155675
65.0432447293404
64.8768600172601
64.7436971409781
64.6540037711503
64.5535901418757
64.437504255574
64.3265626795459
64.2323452408983
64.1031639230216
63.948275368075
63.798442561897
63.6499364969578
63.4772445061109
63.3139676275444
63.1297871867706
62.9384151731969
62.7807304718839
62.6703988150258
62.5859399057658
62.5447227827953
62.501757514192
62.4974596585405
62.5320218468295
62.5743089838689
62.6278424221759
62.6915613807996
62.7918079386042
62.935884555232
63.0804952573435
63.2412152745489
63.459886507788
63.7301884651651
64.0488458064393
64.3794378061433
64.701978777403
65.0507220462651
65.4044320451673
65.7512578140894
66.1129588868356
66.4818147109762
66.8274390666384
67.1974934527864
67.5662897372795
67.9279297520269
68.2781831442724
68.6374317493359
68.9699427598048
69.2892727078596
69.606814335604
69.884809687376
70.1140118989615
70.365896567985
70.6283958097124
70.8909263084305
71.1508981852649
71.4335618100162
71.7296533057282
72.0534221052898
72.3749863504468
72.7040741519202
73.0097067658743
73.2317271136845
73.4392466736653
73.6937744349606
73.9538941624818
74.214705435171
74.4676166676104
74.7276739296293
74.9831546474218
75.2336664484055
75.492771998792
75.7791608707873
76.0351494657368
76.292293437701
76.5389812854935
76.7436561865155
76.9436968269097
77.1734471562609
77.3544719021575
77.5224035281397
77.6686387303219
77.7908374637871
77.9450720909511
78.073315863261
78.1435685710868
78.2876193060685
78.4506456442787
78.5574576989218
78.6292117126865
78.6986421153757
78.7782941876309
78.8806141482415
78.9635604386597
79.0242362164607
79.0476973374096
79.1162795419918
79.2105058706491
79.2646036705159
79.2845018117858
79.3061713362944
79.3602939928558
79.3907018682712
79.3789495202628
79.3521570649059
79.3393563391536
79.354062638963
79.3728958464375
79.3789523415821
79.3813245903436
79.3811652984837
79.3592478440791
79.3279504292874
79.3294819248844
79.3103379647142
79.2673772261522
79.2466690922985
79.1984968108379
79.1408891518437
79.0688168042399
79.0129218084751
78.9719588213513
78.889144773021
78.7708005754493
78.659837266074
78.5741112460518
78.5152855961871
78.4232030273085
78.3537915660003
78.2980347418385
78.2637692616739
78.2431113056744
78.1665142060391
78.0138740864629
77.9403018088137
77.8863926990746
77.8031330888191
77.748023754075
77.6817117719078
77.5925855214026
77.5014753126568
77.4465810333002
77.3922760530621
77.2955722416462
77.2120753683235
77.1548158452267
77.1125743723987
77.0605312501
76.9677283710475
76.8630196429816
76.7786542477972
76.685103099017
76.5982619887543
76.5338816017677
76.4459610560297
76.3254778579062
76.2372366084868
76.1315582485615
76.0025009308494
75.9269435188058
75.8564882304358
75.7699624446338
75.6720218262696
75.5417288198778
75.4328188680419
75.3804193425949
75.2947345424988
75.1115524451336
74.9581007550054
74.8507638272969
74.7510431167595
74.6424811538552
74.5501469169837
74.4279934933654
74.2912846606324
74.1981454706398
74.1051550203005
73.9255501047764
73.7946760043743
73.7058316252357
73.6062476447878
73.4801613107479
73.3775920338773
73.2513963532784
73.121219131884
72.9811927689783
72.7914937829265
72.635475982967
72.5233707248631
72.3719383848716
72.2386949725797
72.0586719655482
71.8918847827593
71.7221662119965
71.5520568367284
71.3754489383498
71.2513333023577
71.0992343502747
70.913651953459
70.7309644573132
70.570593217763
70.387947667877
70.2118922366701
70.0132271013763
69.853883284313
69.7539745604116
69.6941684871177
69.5895065079291
69.4698359549598
69.3274172505684
69.2155832058102
69.0994385960927
68.9939537715295
68.8181662499446
68.6675699874224
68.5126926516762
68.3257948298792
68.1052945116728
68.3816610969015
68.2987559489853
67.983324231899
67.7802533562282
67.6389561521961
67.5151970483038
67.4597576734272
67.3220505071137
67.150469086575
66.9754219039717
