1798
3999.43349933624
650.420452594757
1
128
4
94.2907635462342
94.3417992851868
94.3858778045377
94.4314041642156
94.4096839023585
94.3093748935547
94.2755554707958
94.3243287349613
94.2470368082038
94.2699226874723
94.3575612773496
94.4073469198922
94.3702924547233
94.2823218316572
94.224452571903
94.2845687444256
94.2775256122484
94.2790403621023
94.2855441121672
94.2710938027107
94.2914033539176
94.3441526012896
94.3648338837465
94.475592836627
94.5843727701988
94.4951246094811
94.3447348702389
94.3661439342501
94.409776531064
94.3908373513478
94.323959820215
94.3507889194019
94.4026202637321
94.4996168250893
94.4627567797383
94.3313832421992
94.3387090262214
94.5346359458034
94.5844803020327
94.4720654759752
94.4647135659054
94.5673645592776
94.5132826762541
94.4349954893838
94.3681729438138
94.4354047872556
94.5121269480515
94.5719222389623
94.6352655878101
94.6631396804912
94.6103231795823
94.5456697768775
94.3814735343802
94.3523887199843
94.4628679629057
94.5990286909892
94.6459876215819
94.572215091293
94.4844882441547
94.5559919182329
94.5722952545595
94.5343643226573
94.4973109226747
94.519448157762
94.6079585407032
94.617351224654
94.6567122453927
94.7121660369861
94.6357011231633
94.6412747676331
94.5379899903288
94.4329081509051
94.4334509177714
94.6199183976818
94.7891287707269
94.8572462085004
94.7652187123956
94.6180985843567
94.4915784557624
94.4175563418786
94.5572422773544
94.7125441627321
94.7866217558617
94.8356386951936
94.6993130637855
94.6188094874373
94.6899265975734
94.7348937461065
94.6535717399854
94.5612487503217
94.5497361830228
94.6895925584096
94.8390395501858
94.9121994337848
94.8774862462481
94.7948544547434
94.6116667224761
94.4788195118179
94.482124278418
94.6630526664547
94.7904148672084
94.8784968118655
95.0022784310183
95.1598213157116
95.0596581960513
94.8639853189508
94.6926530663804
94.5737658392928
94.5881487038639
94.6942145168725
94.7157637785747
94.7563283278932
94.8247486227195
94.8944625009947
94.9099901247113
94.9969256764793
94.9348376310472
94.8179735687189
94.8660285201849
94.9401778898243
95.0100265987603
95.0395172803814
94.9681352139714
94.9594397543019
94.961261238072
94.9832122558959
95.0434393790301
95.0126476604347
94.985587940396
95.1046724887452
95.17217883399
95.1667086967133
95.0916370027797
95.0207664098246
94.9844459603657
94.7604826621797
94.6076172540623
94.8067547916097
95.0664497556438
95.0464526710515
94.8498247831113
94.7316210411692
94.8169488071291
94.9732948868935
94.9723406628202
94.9847041136577
94.9980449640115
94.9427454830666
94.862325077626
94.9677222780908
95.1415793965314
95.2555625390358
95.1705908066855
95.045171521049
95.1527796873898
95.2736024150348
95.1359779952412
95.0356137686998
94.9505717584042
94.9467466730985
95.0792452778655
95.1903996864062
95.1575796893325
95.2321000252584
95.2519500646803
95.134099690824
95.0013873680883
95.0034065538352
94.9822532805098
95.1080481748704
95.2995824236491
95.3213671629845
95.2475883405683
95.0865790463689
94.9547984417616
94.8099803155388
94.5130199257251
94.4685594800471
94.5844215144605
94.7811652480723
94.8494349754755
94.7953883463203
94.7614562248578
94.8937011841549
95.0266566872211
94.973704771442
94.7910384872356
94.5786063389433
94.3095556983683
94.0230108176583
93.880538460724
93.9882666733041
94.1544004723635
94.1838207920519
94.2348940668522
94.3698490730182
94.2867891767557
94.0237290557664
93.7599420299594
93.7455819389795
93.6510844477925
93.548842134774
93.4661639258251
93.4691550012365
93.6135755549472
93.5695216431801
93.3552843469573
93.2254282304122
93.1258153214211
92.990257862025
92.8327459739471
92.8398068975562
92.8921375360394
92.7738247683901
92.6119862747299
92.5601636178405
92.5723314728555
92.5775867995267
92.3715470647626
92.1110174889263
91.9681640706629
92.1459213141472
92.1671336630036
91.9205255346108
91.6429842977053
91.6367309056899
91.6392169942259
91.6573474745966
91.6936395356334
91.5343483016298
91.2504309750168
91.104500320418
90.9418957934495
90.7941623431011
90.7543794244882
90.7526744789118
90.70148840417
90.6798193784887
90.4404693479978
90.3655802985433
90.3065736850561
90.1539603033351
90.0817847132847
90.0880041438675
89.9980993672696
89.8103061498283
89.6143822868682
89.5638041126351
89.5671480404512
89.5827348585705
89.4692402404133
89.2981323971215
89.0885909424237
89.0347128411495
89.0896103536728
89.1005751983097
89.0305385385591
88.9207090981697
88.7356679569479
88.644831426443
88.5624352010973
88.417503639258
88.247257853556
88.2601637323969
88.25886628267
88.0768710890113
87.8242666072623
87.8191275010102
87.7724563749622
87.650278915399
87.6522427621614
87.5797270395381
87.3567740565853
87.3098076225583
87.3248305591556
87.3297867771598
87.1826990262635
86.950512898264
86.8031627155712
86.8504792430503
86.7525974193818
86.733854512945
86.7490346801798
86.5731240719491
86.3134138819126
86.2473542512316
86.1963497577399
86.0900366978497
85.9579903602079
85.9091307156242
85.8564586693137
85.8093111416303
85.7701962325555
85.7349661706389
85.6154678808864
85.4804991694624
85.3870612327818
85.45298547378
85.326020880942
85.0880850370672
84.9325404488447
84.9838401431657
84.9409546962373
84.8919119524284
84.7668116626802
84.5727696121225
84.527572603457
84.5187980657908
84.415132936869
84.4115086216262
84.4289092747603
84.3286746762339
84.1011990083231
84.0127667530068
83.8924938657708
83.8482834271993
83.8485995651565
83.8326618917994
83.7424149608507
83.608999906897
83.4609390597153
83.3796901259917
83.3076988194098
83.2116240151642
83.0588542929769
83.0634880592948
83.0484159409765
82.9609391490427
82.9500145377656
82.9751843266561
82.840804734782
82.7791307355185
82.7211185202959
82.6882378010334
82.6430209555866
82.6518377928526
82.5872400759041
82.4098463029202
82.279798184829
82.3275091204398
82.2832605193468
82.1991212438679
82.1624036585924
82.186281880843
82.145653697148
82.1129174494081
82.0092008079875
81.9947354128409
82.0197715093447
81.9848188493462
81.8869012165735
81.8743624586646
81.7240637045528
81.6157275794934
81.5946020089274
81.6484257769297
81.6014375904581
81.6548322019154
81.6869555473976
81.5920133209629
81.4770291188676
81.4735536207806
81.5098753120916
81.4887763949969
81.3291833913453
81.3324066946993
81.3455522799462
81.3455405086762
81.3310326565484
81.2956296904727
81.2708454559464
81.2711154104531
81.2643733283696
81.2503568386012
81.1848902766748
81.2054355468747
81.1990763260174
81.1679980618233
81.07560296503
81.0205947214698
81.0056643092892
81.0429381938253
81.0161816035147
81.0361719662745
81.0479665887727
81.0144712447328
80.959570973614
80.920572260181
80.8555367283333
80.8532553657695
80.9072456329608
80.9744839534236
80.912190460604
80.9138050205329
80.9277686265706
80.9545998268926
80.9494497174774
80.9690731427342
80.9286118471459
80.9749140385109
80.9994425306682
80.9928595763951
80.9456573093153
80.9702573035446
80.9955794318264
80.9605290642941
80.9435756608754
81.0302499736351
81.0246906951925
81.0652420146954
81.1645385350939
81.2208609036503
81.1760100155266
81.1753657660217
81.1352742056047
81.1155449195142
81.1419956513029
81.2010296228738
81.1794173331573
81.1783519811061
81.2551935888308
81.3317783621175
81.338419646244
81.3574170727398
81.4024799243252
81.422758882539
81.3973887584013
81.432376025185
81.4555800995756
81.5234086328719
81.5444174081935
81.5695865557434
81.5747861204012
81.6339922405055
81.6888856234948
81.7874165339305
81.7862721397799
81.8532956029648
81.9270474288479
81.9533471951464
81.9972739034331
82.066256149948
82.0449772464122
82.0854426183239
82.1322855562697
82.2594724508075
82.3065407275216
82.3133087068893
82.3307046967568
82.4852392601147
82.6096218289371
82.6196461945812
82.6908226130571
82.7851512286458
82.7954967818995
82.8520395301554
82.8666179567502
82.8774932590926
82.9007464939087
82.9956217068352
83.1656866357331
83.3521545151162
83.3350810303176
83.2905668116997
83.3241794246638
83.4229623868524
83.426883300242
83.4664552139487
83.5320725666217
83.5685618330711
83.640153525512
83.7888950171578
83.8248309066452
83.9012067541793
83.9972888957219
83.9926665238851
83.957120791311
84.0087121264426
84.0553164073103
84.0965141955594
84.1184376450952
84.2046581532808
84.2739946534656
84.3597512608027
84.3280583679728
84.2861111199332
84.3183568700943
84.4155886325476
84.4543718809751
84.4479384257624
84.5316363269272
84.6333359733483
84.6623016375711
84.7716440409559
84.8184144002881
84.8586441948849
84.8342559505152
84.7894482646361
84.8773569786183
84.9967840285317
84.9949015741716
84.95957815692
84.926180197225
84.9965783138435
85.1076554499503
85.1368184009559
85.1416123093705
85.2176528700859
85.2972356719102
85.4131519494041
85.4736669880374
85.5188322968313
85.5641436919455
85.6294571725971
85.6754091222947
85.7525255843608
85.796652762868
85.8424217344462
85.8943963398116
85.9196035565831
85.9959829802482
86.1068546723133
86.1062229657918
86.0937355035937
86.1205657420752
86.1662157900829
86.2240464394278
86.3323073988254
86.4091158893389
86.40913071999
86.4564318989909
86.561264002268
86.6441117671269
86.6792850369983
86.6466468062592
86.6416251211831
86.6426256899696
86.6928442500324
86.6833671429433
86.6898507130538
86.7647375503466
86.7653744867994
86.7593818907221
86.8260979376136
86.7647095308592
86.7263112538374
86.7746432104783
86.7724191571595
86.7083334584299
86.7067772375436
86.6656224603265
86.5997963908446
86.6185230345907
86.5787218148665
86.4783263720133
86.4959703056283
86.5272643122986
86.5527617203352
86.5412284604268
86.4485124112045
86.3870055396888
86.4454164945339
86.4903434050004
86.4754122648799
86.4263810515658
86.4508867922293
86.459002966568
86.3429656582328
86.2122755302657
86.1961971382419
86.1972848621295
86.2040662265198
86.1554117419959
86.140321918406
86.0904872317895
86.0566518295273
86.0865984795188
86.1485943065586
86.1484830095318
86.2052463545003
86.294963194099
86.3562281164049
86.434468940052
86.6020365017869
86.6687084248123
86.699490183443
86.7314934831007
86.7991034621756
86.8835945787606
86.9976033093886
87.0241814183597
87.0715459768054
87.2056400940649
87.2362609697512
87.1914406907213
87.1826138096478
87.1955365602932
87.2633721337264
87.3531170750776
87.4261172765956
87.4568240945863
87.4488336573385
87.4446378826142
87.4842603011657
87.5368844052517
87.5586675059311
87.5722050906677
87.6265834236194
87.6796968180609
87.7549884879383
87.8196159685971
87.8650646436981
87.8585816568812
87.8621968650002
87.8561764283409
87.8627894041929
87.8622849169739
87.940669354432
88.0609261458447
88.1331235583537
88.1665319664366
88.229536707018
88.2465808466568
88.2939161695768
88.4380664552219
88.5806135610536
88.6274190398645
88.7041094135827
88.7165216352387
88.7047383511682
88.7675824584476
88.8500475552776
88.8809022358522
88.9484188014033
88.9646025496506
88.9385815338472
89.0319846432056
89.1458639618582
89.1979859140851
89.2788515043429
89.2808346306467
89.2204330860964
89.2363117008297
89.3123546778203
89.3526106143918
89.3920031691099
89.4368545532269
89.4873224960956
89.5285575085322
89.5890349716668
89.6135771054988
89.6620917973774
89.6877760332804
89.669629098
89.6702535407334
89.6895679685125
89.724876037993
89.7819923612131
89.8152558155593
89.8322887487804
89.8616076893538
89.8614703857141
89.8674390425391
89.9068549252812
89.9343523223772
89.9423034257496
89.9696426665534
90.0656282982561
90.0657650332681
90.0291973676012
90.0735819003359
90.1093782387821
90.1460290794756
90.1400270225181
90.1350196079438
90.1707968591589
90.1994648828375
90.2132479741503
90.2342002522354
90.2633354011235
90.2532832092461
90.3069596243285
90.3520872902735
90.3633575842464
90.3749663714504
90.4186393749333
90.4570617060059
90.465411545422
90.4675299819962
90.4772533998183
90.4621493754865
90.455259108859
90.5136789888513
90.5799983484116
90.6388721700984
90.6841883937924
90.6861570427483
90.6301781328898
90.6180632595467
90.6671788902224
90.679160431364
90.6873985165232
90.6801563500471
90.6802271371386
90.7514015155489
90.77266368842
90.7531819976399
90.7725162031021
90.8277019225915
90.8771463067605
90.8754212202319
90.8492633346867
90.9072871247368
90.9674979935289
90.9683045979882
90.9642095451713
90.9665038578637
90.9750468592536
90.9829155451594
91.0337017600146
91.0274458248207
91.020144616939
91.0524712487262
91.0343442949519
91.0149956384208
91.0500751775934
91.1348951181847
91.12974255512
91.0671920131356
91.1139638740943
91.1922868491994
91.2213175272414
91.2352139908548
91.2782865257978
91.3346017317336
91.3519491470956
91.3568469082517
91.4017737201094
91.3952679319468
91.3176320601442
91.3789208532409
91.5112379716034
91.5625404378583
91.5350590271101
91.530283389032
91.5842447675481
91.5801979713306
91.5942774089297
91.7145125638947
91.7533719522064
91.6811051527189
91.7097480002323
91.7707131367866
91.807988685697
91.8018596784615
91.8715281336137
91.9910974957604
91.9998399378974
91.9196763903067
91.9085113592241
91.9478258507342
91.990377551771
91.9583232436947
91.8838409911837
91.9569212584441
92.086937700858
92.150045945614
92.1338221976495
92.1683334329189
92.1979839685693
92.1869293229267
92.2225731598405
92.2048169113242
92.1043581322299
92.1280501487397
92.2801491653531
92.3631457742904
92.3274898701581
92.3150448231785
92.2971286335131
92.3537055259965
92.3729172651674
92.3256705290792
92.3275848392259
92.455861754863
92.4785976638464
92.3613859579195
92.3526407277833
92.4932248089618
92.5501954402627
92.4887734945588
92.4805358541841
92.531343815634
92.5666326940338
92.5466940865364
92.5726143737783
92.5936490479255
92.5650243820438
92.4955425281556
92.4695337644857
92.4969623603964
92.6278112688578
92.6875707386736
92.6292770410937
92.6063882440544
92.6447372549157
92.6914791007293
92.7070311093927
92.7820031180933
92.8124322641742
92.6900679810573
92.5909283906467
92.5756160266904
92.6657365959208
92.7538061395016
92.7471232886586
92.7061046491556
92.7641077972741
92.8183614487355
92.7987635850178
92.7599578606333
92.7488838639107
92.8096961400486
92.7808312587717
92.7991681544058
92.8167327957823
92.738289417768
92.6691805710639
92.69600826857
92.786826666986
92.8269377662185
92.7805767890503
92.841448639123
92.8683317166637
92.8440337065747
92.8396538843716
92.8855326638566
92.957968881178
92.9713176807854
92.9862741134862
93.0004818037368
92.9127966557705
92.8952357293143
92.9570505084366
92.9530704260901
92.9764685749749
93.0106245193717
93.0227179421472
93.03643177395
92.9979945726258
92.9645797814965
92.9932720061691
92.9982565187502
93.0119401782545
93.089231724791
93.0681048721689
93.0037051711217
93.0807163709349
93.1139522726401
93.0314528441188
92.9656870469825
92.9611774455127
92.9894354750946
93.0737176706445
93.1435317471988
93.0646694019017
93.0144592339066
93.0783459229442
93.1079393469186
93.1166684836165
93.1873192887382
93.2507558387371
93.2921955312792
93.3148963386722
93.2412231835073
93.1590047393095
93.1696561914058
93.1293907613087
93.1743655885736
93.288439410604
93.3325834982235
93.2585669980292
93.1179599762282
93.096544203698
93.1965402880291
93.2145972835376
93.2096383077363
93.2152307423359
93.2487202623464
93.2372901555857
93.2468794449699
93.2805005382042
93.2502341315926
93.1490484462302
93.0943672839244
93.160757034562
93.2936652615003
93.2960639932349
93.1767705899727
93.0777005838664
93.0740471061144
93.1223661711174
93.1351437387723
93.1269835941573
93.231515899133
93.2722163649224
93.290745266778
93.3019434024316
93.3354917365554
93.3801204605913
93.4118297282067
93.4060603028377
93.4517427120055
93.4356379049158
93.4348484774607
93.4784339457724
93.5171245482061
93.5570602821008
93.5637546767272
93.4809954427948
93.6204555406551
93.8514372994753
93.8011716591907
93.914523992778
94.079634773181
93.9509048453902
93.8532202636497
93.9405075945272
94.030804033709
94.0390010310158
94.1221491211008
94.239831420611
94.4095337097738
94.4333977413579
94.333873148415
94.3690145673219
94.5003656521348
94.5444515116745
94.6340337735443
94.6931220861878
94.5602709868232
94.4418962544706
94.545835942125
94.6305890600962
94.6251399936247
94.6825461384993
94.7828908391006
94.7268599322733
94.8134412631286
94.9153370944165
95.0279464199588
95.1047239282391
94.9801755583281
94.7898306046229
94.7435155638663
95.0117481483207
95.3291956892783
95.2199181340299
95.2234975184601
95.3346897982971
95.3777138339317
95.2863780594399
95.3264322990156
95.328486675387
95.5416527306188
95.4928103240872
95.3486229002857
95.4331671876665
95.5867811713115
95.4640798357255
95.3954891762522
95.5190383336921
95.856912648307
95.951988283249
96.0062915556739
96.2339071451572
96.0097805916171
95.97836070323
96.182751268414
96.0683034646522
95.827681851116
95.6311417188488
96.3237924134046
97.0280038108435
96.7787144554946
96.5081689051912
96.8286574004366
96.7320706861837
96.58130968403
96.4635713951133
96.5564701527458
96.2658987781939
96.1643398149732
96.1758764533187
95.9472657115079
95.5432374976012
95.5103387913546
95.5491894810694
95.2120508936408
95.1026746229245
95.1710667016257
95.1656151835314
95.0779200296492
94.8836969113725
94.6974759916725
94.5905525291869
94.5475188153687
94.5003382437196
94.5925070398643
94.5896594112163
94.5648247419193
94.5214457651273
94.5833122015658
94.5531488141958
94.4801690019719
94.4826015772245
94.445844690225
94.5169790993746
94.7156652098845
94.6451202149763
94.5371274287323
94.5596437796301
94.5924709210238
94.6322375129312
94.5073554546168
94.435332903462
94.5943153483576
94.7402182322783
94.8806705880988
94.791409507001
94.6487309099262
94.742586745395
94.9587950310903
94.9800591141689
95.011358189481
94.9893922903194
94.9750927723276
94.95737083324
94.8209462356966
94.8546458322977
95.0025931649366
95.1991612807694
95.4265604679945
95.3645701004249
95.3591397223151
95.3503505956669
95.644770677021
96.1049613912758
96.1606687026017
96.1020523809789
96.3007025185748
96.5040188594527
96.7852762759176
96.5561728686203
96.280660817938
96.4480609839482
96.4156693436151
96.1466052137604
96.4526812735802
96.8660333028198
97.0742984450849
96.8751627420289
96.5533463760662
96.5678814287556
96.8432869793325
96.6908301633332
96.4922240346668
96.3841576911009
96.3008528629012
96.2289132198954
96.4030674979568
96.3749508702717
96.3861266390913
96.4159399681425
96.2687825550919
96.0664563235281
96.3550206997574
96.5864933356166
96.703266787813
96.5785792125332
96.5797496342168
96.4550149508178
96.3707800232911
96.4030045901249
96.5680422063238
96.7270626938192
96.6717870116519
96.545586822165
96.7681544959268
96.8840500100248
96.7064884245491
96.2082970461828
96.411994099443
96.5459393158604
96.3800074061619
96.1372300358685
96.1043726692438
95.9396197105195
95.8173431391085
95.7080390337916
95.7538608855768
95.8627556667413
95.9979786274708
95.7574637638484
95.6556415680453
95.6564246619878
95.5021705885898
95.2757310808463
95.2453768116504
95.328391914943
95.5082696236243
95.5081173006884
95.504732699254
95.4647685464485
95.3905099905484
95.3362598799693
95.2773701114671
95.2642658526672
95.3622203315325
95.317291390818
95.3078787983277
95.2879428452792
95.2143498430224
95.1438902408819
95.2237507852969
95.1934702690106
95.2342625015111
95.2945017841691
95.2770000704921
95.2067026406699
95.1382785552946
95.0111627668787
95.006749936946
95.0842057927535
95.1141674941495
95.0851122206001
95.0517749174955
95.0484872295714
95.1066271014972
95.2203888002459
95.2190764716004
95.1490873522122
95.105127465261
95.0784380666018
95.0498123890785
95.0288030687519
95.0161731209945
95.0052928947513
95.0935738316096
95.068765959414
95.092226874787
95.1299538509201
95.1577305168594
95.1746554353582
95.1993660781101
95.13910543174
95.0156900381623
95.0077412910962
95.053136918363
95.0430874255781
95.1333213586136
95.1931277242766
95.148869084237
95.1316476185408
95.1050626222702
95.0409597047547
94.9520244264573
95.0012411458955
95.1095007731039
95.0820454131078
95.0656702596253
95.1048526801677
95.1107783547317
95.0417704144943
95.0591623927831
95.0796117093403
95.103023494548
95.1050040900441
95.0762399511432
95.0090146971432
95.0898324082999
95.1737432170808
95.0942651344752
94.9398957448498
94.8753144553484
94.9525352774917
94.9658573703862
94.8975072709091
94.866471504472
94.8676214297177
94.8553458966687
94.8425793986196
94.8248343573833
94.7483727645428
94.6141648010622
94.4945004317109
94.5257943753649
94.4428926930267
94.4031212453967
94.2886702167999
94.1986358083162
94.1721939083137
94.149729933344
94.021838215639
93.9957418186495
93.8004152384209
93.5576953891971
93.4351888455646
93.3742896378873
93.2201997894309
92.9735703835255
92.7780945805481
92.6953838539635
92.5908650895372
92.3314060980187
91.9879340381153
92.0061766822892
91.8301926065168
91.6129547750426
91.4953148627935
91.4822827575777
91.4462764489029
91.3559116787712
91.0534809913177
90.8055115291749
90.7821552622859
90.7846887487184
90.7197959017068
90.6115995631949
90.551702460396
90.5005608606352
90.4260537732591
90.2560581569316
89.833633230295
89.6360656644737
89.2529579578509
88.8474882697334
88.6014462592584
88.2271371667795
87.9173208093194
87.5584518306081
87.0112361483967
86.513583097206
86.3827648227109
85.8220198901178
85.2491155341592
84.6685164489788
84.3326125137538
83.9754004489516
83.2548367878671
82.8070281569287
82.5713327644847
82.0126959526536
81.347206685108
81.0685379022254
80.8034821455266
80.2992023444435
79.6646044637767
78.8971716391239
79.1354178028671
79.1642962470121
78.1441799369534
77.6179002847682
77.9028547864496
77.8226628272163
77.4725812051153
77.1591405040819
76.7238464579928
76.6154475407164
77.1287374365312
76.9396573772456
76.5830117809698
76.4929627894789
76.5953840381055
76.4773876854659
76.6682284075871
76.9194513905716
76.5589736208361
76.3380530259368
76.84840363392
76.9111290935746
76.6448771127763
76.5897949691988
76.6212644137316
76.6745702478211
76.5856573959736
76.5469896170149
76.5180806511464
76.4792273891035
76.4104542270384
76.4041493477625
76.4204311115282
76.4780497676007
76.5297537083632
76.6562541591598
76.765753603584
76.9167403287419
77.054273791418
77.118585543957
76.9185915863839
77.1002878622632
77.8678059979058
77.8137073484791
77.4399500858069
77.755743231786
78.0825644366538
78.0351588123321
78.0181011101368
77.4365207798189
76.8272951209043
78.03745975319
78.2365547379767
77.9743046989562
77.941772422333
77.8024829881555
77.9849408173981
77.8330376934058
77.6296212539722
77.4977630911599
77.367500740814
78.1846691473026
78.7141647150216
78.2559618475319
78.1885623611605
78.8589585396622
78.9354426406437
78.8463268390517
79.0313800072041
79.2372768128487
79.0957749172112
79.5757208172291
79.7813187067397
79.7563224757494
80.1527452767129
80.2368024481806
80.2252992799297
79.9116289353937
79.6622525296067
80.9511791949831
81.6413233493954
81.4579688397054
81.322487231945
81.4884005837705
82.094618454775
82.7224698890355
82.7415587073971
82.6437027584509
83.1664855037509
83.7820938522036
84.1634296441176
84.3134299459706
84.4878032000429
84.714396261008
84.7103556520984
84.5764022333579
84.3416606888334
84.3395565588122
84.3845540209141
83.9030393013878
83.3957515181994
83.2362135387098
83.2527516887653
82.8193528627942
82.2153074680136
82.0115076548807
82.490859871886
82.2852397453608
81.993367084068
81.7870792895139
81.7879401676297
81.9433570970299
81.9877653439429
81.9780174185364
81.882664637186
81.588798553186
81.5563715524138
81.8306768793208
81.5739327833853
81.2346398595978
81.0531264590538
80.8875189718653
80.5350672585622
80.2916092391557
79.9828227841605
79.5559227051062
79.6817535472393
79.7444266517384
79.5581030420942
79.4225042272543
79.4452425508067
79.4907285281449
79.4215652844607
79.5001770688456
79.697000918982
79.6482317379117
79.6205269630267
79.7622273551397
79.7638456921652
79.9782090312905
80.0901280158678
79.9836290236254
79.9016607847023
80.0719048171928
80.1827668822668
80.1318159347615
80.1254885784779
80.1097802646357
80.0756614365955
80.031644691826
80.1977013544553
80.3116164316391
80.3151729863935
80.4304012013608
80.5246168300848
80.5151016543202
80.7411675432246
81.0369949258566
81.1285259693467
81.146226767243
81.2302357517441
81.3706407241962
81.4857424116506
81.5517163122935
81.6265460736781
81.7101969468633
81.7684483617781
81.7205744115497
81.7448688654466
81.9210564831743
82.0188556238193
82.078140987301
82.1119167027305
82.1628457486792
82.2230536480164
82.2645987053929
82.3145903200998
82.3842328647792
82.4000669785607
82.4151461256399
82.4970730302886
82.5552406164928
82.6116978016246
82.7047413080258
82.7904246400264
82.8803732563799
82.9724464785483
83.0218607799888
83.0595902234234
83.1003552533304
83.1342615790022
83.1710356408658
83.2351441860934
83.2700187358328
83.27507508039
83.2640236096765
83.2856565763264
83.2878250241885
83.2211330051404
83.1710884176218
83.1178423186043
83.0153228270936
82.9047993463067
82.8217256003875
82.6999103607394
82.5623336140571
82.4274405893128
82.2976222005484
82.1519678499223
82.0067285799537
81.8930444712374
81.7878232706375
81.6804250691853
81.5655889577364
81.4423857720219
81.3446736051596
81.2662994804939
81.1595523269299
81.0510123312933
80.9479298467561
80.872547802971
80.8237145220278
80.8083700596823
80.8179111862984
80.8163399778436
80.822841801538
80.8660559575917
80.9103383748426
80.9696524131645
81.0568683393681
81.1665843275111
81.2589676110201
81.3563510046567
81.4945569601311
81.632629879642
81.7290831535022
81.8227128522275
81.9347124884873
82.042120377322
82.1324161777817
82.2133135271923
82.2955721489851
82.394149366852
82.5075463191423
82.6137312573987
82.7272879321577
82.8246667660961
82.8866078350084
82.9207603870855
82.9195386108059
82.8735340674267
82.782624740949
82.679390466828
82.5565155397244
82.4184882599207
82.2600869214146
82.0994468851686
81.9584553604321
81.8229224352447
81.7151837234229
81.6242485841167
81.4934869915352
81.3126592055628
81.1340393549829
80.9809569744375
80.8205400181962
80.6529928429324
80.4856205102069
80.3345773477325
80.2069597411224
80.0757669752849
79.9274128204488
79.7556819418967
79.5620474551951
79.3658790061924
79.1699130333213
78.897432351438
78.5542943954414
78.1759881160524
77.7727637910659
77.3481665056926
76.9516788967621
76.5926487781341
76.2818735464129
76.0540163090565
75.8900864377304
75.7154875869675
75.5758314834274
75.4611668582304
75.3567192513713
75.2418112258043
75.1287989353145
74.9766166444566
74.8146295536461
74.6663179746451
74.4788999464501
74.2685168377285
74.0462481851451
73.7985914313111
73.5118357214571
73.2062581576316
72.8851289865543
72.5364262476945
72.2179982310239
71.8865224026925
71.5379781299816
71.2376864647338
70.9568735376938
70.6821581669545
70.4134308280382
70.1693845225191
69.9823505983348
69.8228614609661
69.6963106412628
69.5857213329697
69.4843014023589
69.3931624133413
69.3116606281867
69.2136660223571
69.1113400331242
69.0009736484345
68.8731950537033
68.7436315438455
68.635867285135
68.5068759750123
68.3407001266046
68.163589248695
68.0270298184103
67.9091482255299
67.8119597535211
67.7438055207955
67.6756864108186
67.6286168226786
67.6594808447387
67.7110060173099
67.7463932782714
67.7859262816456
67.8562409514416
67.9107001963848
67.9897926206002
68.1235791292319
68.2916243027625
68.496425426728
68.7208429768049
68.9644054140983
69.2412118493905
69.5300498921152
69.8296341364484
70.0922468386343
70.3637599173768
70.6730867314579
70.9995072486218
71.3131122337984
71.6080926318106
71.9228410311356
72.2496437121098
72.5486389626465
72.8182543928755
73.0881389650353
73.381970550224
73.6407980332158
73.8606495924338
74.0919098747385
74.3121213750218
74.5126066638484
74.7511200324568
74.9781262759547
75.2184193259782
75.4862208998697
75.7402333412084
75.9923273169396
76.2710321170727
76.5108778659896
76.7519969881004
76.9803195940886
77.1908765897873
77.3896620164923
77.5966280663942
77.8219577993415
78.0384598310768
78.2918687057954
78.5499699811963
78.7534329892736
78.9612537787549
79.207112298878
79.4406928444016
79.6043954460434
79.7819297276183
79.9790852205822
80.1536691751259
80.2816096389508
80.4330811743547
80.6057182176328
80.7419632317954
80.840199153271
80.9336903387233
81.0374108697871
81.1632646576758
81.2926026261425
81.3880960249303
81.4703338246951
81.5805646016676
81.6755883341086
81.720641116143
81.7427600404383
81.7961509166774
81.8651741284202
81.9024685288312
81.9439846252757
81.9997066352114
82.0308473982167
82.0606216756442
82.0739155854882
82.1007272091795
82.1044323310372
82.1380037130869
82.1686365816972
82.1630484780205
82.1489217437797
82.1337819007571
82.1217967020685
82.1053859269271
82.0904385987377
82.0864909968837
82.065839498943
82.0350385865588
82.0435908627845
81.9935681661262
81.9543580489706
81.9616763723946
81.9245292442767
81.8807375152752
81.7938513501599
81.6862178440312
81.6118250013257
81.5402064831861
81.458720340005
81.3984124384294
81.3596042739126
81.3529095253478
81.312310848179
81.2490811649732
81.1813662364123
81.1019926183266
81.047450061015
80.980730843825
80.8867084147996
80.7937412687597
80.7255376760662
80.683720458947
80.637730635494
80.5699616977679
80.4994109901088
80.4250978241412
80.3997754821798
80.3356341970026
80.2322228724027
80.2048325561455
80.1623020708452
80.0865303995776
80.042852913673
79.9833576008781
79.9001858807525
79.8048694804168
79.7057806980958
79.6335749277189
79.5376009578591
79.4201457174546
79.3322773005407
79.2778400868847
79.2199889781482
79.1310907118112
79.0623967292578
79.0155769068807
78.9219687594918
78.8328310345461
78.7258891136914
78.597012992524
78.5076108480265
78.4177743269532
78.3207953509054
78.1950856166749
78.0575474416039
77.9837537700616
77.9104883955589
77.8123398934486
77.7018056867184
77.5944272890453
77.4625955467825
77.3436493243478
77.2830430494516
77.2064942147191
77.0786208234158
76.9927842825517
76.9082849581705
76.7721062715296
76.6267940171694
76.4962805452432
76.3865719868829
76.2587901235939
76.1082006943218
75.984655100178
75.8664249947494
75.7521439798968
75.6455303550515
75.5036437452701
75.3144248585182
75.1593888703116
75.0230107259082
74.9330239532042
74.7312077228026
74.5233770640947
74.3871329818806
74.2603587888912
74.0978639629081
73.9980628249957
73.943150725596
73.878925414752
73.8004279431444
73.7047389006288
73.5486187785136
73.4180972062536
73.3306069668191
73.2155976386411
73.0526685995225
72.9698244492451
72.8663390002983
72.7156961816867
72.5520469354196
72.7589132337169
72.5945463401959
72.2800774637632
72.1463485518617
72.0988107434644
71.9941282278773
71.9438926608857
71.8721705045201
71.7144029401486
71.5896037845463
