1798
3999.43349933624
650.420452594757
1
128
4
92.7372326810695
92.835849870752
92.9847524809113
93.0386570122466
92.9595507885166
92.9429612849711
92.8932927850144
92.8621074389072
92.8193302667073
92.9038854110113
92.9269667487985
92.894886091142
92.9934893873982
93.0362880554294
92.9601211892751
92.9415882491084
92.910399369925
92.8468373095364
92.8780393722604
93.019323062695
93.0105562532173
93.0196543923804
93.0095973992508
92.9431764644097
92.8686847966108
92.9076417030629
92.9505568164653
92.9545756875262
92.8609399021544
92.8359370425316
92.8248247821135
92.9048992359699
92.9472461319052
92.934821859155
92.9156265256915
92.9104806799812
92.9106436710731
92.9307532995624
92.9204154381115
92.9478397683859
93.028417736332
93.0770580109224
92.9191360674545
92.8587830032227
92.9938552470364
93.0549879653579
92.9583538862574
92.9794128205866
93.0483561469993
92.9701062689073
92.8006612635248
92.7811170442448
92.7991043037205
92.9419223523467
93.0310426142964
93.0703998957325
92.9996768043027
93.0365997817722
93.0528793721089
92.9489364351046
92.9760733014513
93.0468001301207
92.9354962491176
93.0047555421031
93.0965571948468
93.0549845316071
92.9785681311254
92.9665456224712
92.9119760282698
92.9527665891578
92.9673342599382
93.028716536068
93.0650416001299
93.1884210973193
93.2247028589192
93.0596744234039
92.9245502894352
92.9900223274136
93.0692626491837
93.1960381567052
93.2850141478084
93.311999946993
93.20342366072
93.0795012395432
92.933622355913
92.9131342728017
93.0164786210023
93.0541622455944
93.1296802139671
93.2922276014118
93.3195110729853
93.3189826691113
93.2782784508738
93.087483247754
92.8849563380856
93.126975399933
93.2850411931301
93.2491057999923
93.3823601944739
93.4831836929641
93.4000905463681
93.2876967827182
93.1568023763284
93.1001569944681
93.1019962406714
93.2216264091194
93.2542361746988
93.2739019951004
93.4283542845193
93.5296211654303
93.3849654611486
93.3786504292183
93.4383061812048
93.3807481489981
93.3120970309117
93.3356528335818
93.3204410753889
93.3214762491327
93.3198796228111
93.3580781009061
93.4029516815029
93.4170171062562
93.4516680730336
93.4687325176219
93.3282118929137
93.3694723555818
93.4252995205384
93.4309500214461
93.3489209516597
93.2305248471885
93.2388338198329
93.3339468188282
93.3682619562827
93.3815109924958
93.303280666856
93.3701400858193
93.5623960420444
93.5734504718712
93.4678466885358
93.4219836479086
93.2571028807766
93.2822141218662
93.4549035958967
93.6115241063981
93.6998303768308
93.7364524737388
93.629064485886
93.5497499546167
93.5722788303291
93.7284587881032
93.8152095270062
93.7024977915198
93.4785078119209
93.4680173753423
93.5307180184342
93.6434234953065
93.716535239721
93.7038632539451
93.6077539427574
93.6159105797448
93.6333451717422
93.6157498773923
93.5905142044822
93.5984380461884
93.6136751760974
93.6333186035994
93.5263457995902
93.6734817762484
93.8719606448275
93.9109943411552
93.7320623822569
93.5417629272288
93.4573619501283
93.4479339942451
93.4150798251869
93.4728788612558
93.4920285636733
93.5908173748437
93.6597684011906
93.6259392005004
93.5316101642719
93.4745562243384
93.3706306562863
93.3737501503999
93.382220013744
93.3041062690648
93.1895546853431
93.0153555949069
93.1156772666121
93.4336387018352
93.3051496343461
93.2674604288212
93.2757682677552
93.1285774276017
92.9690173931906
92.8996950343427
92.8843486460983
92.9471480305933
92.8503875394856
92.725862196452
92.704265821299
92.8493711247091
92.8359855851342
92.7134905901425
92.623419345745
92.592939295824
92.4661799124156
92.4369730574415
92.3371388660617
92.3828912653633
92.4017275447882
92.23302148474
92.1638058621147
92.271570531161
92.1672144698367
92.0572436668769
92.0667632247912
92.0347302998779
91.9886149659493
91.9427184888277
91.7840277327362
91.6962108562175
91.6401209364047
91.7214255921417
91.7940619602427
91.6785525116245
91.4541846790636
91.4080814728523
91.3469037607492
91.2780653653149
91.2701351911041
91.2336211689519
91.0052523775905
90.9685906688791
91.0751520921315
91.1675762869535
91.0659925722419
90.931373375275
90.8713977121403
90.7406162763285
90.6103063225246
90.6809740872924
90.5365433525687
90.4225269485539
90.4475600331825
90.3891493848349
90.2175148094971
90.1626163181703
90.1547107369974
90.2049788923601
90.2425814479855
90.0457380627798
89.8371836165542
89.8377535123225
89.7839609913382
89.6778204217365
89.6202563952992
89.6535774011335
89.5158993167672
89.3849230309219
89.3098254052971
89.3446698961771
89.3907890650486
89.3420802823069
89.1258854267009
89.0631256068044
89.0123385224747
88.9900498162901
88.9492984823665
88.7738957788989
88.6563124985514
88.747885601529
88.7088570303086
88.5728512393162
88.4956078502654
88.4490218800105
88.4034713190392
88.4205518493292
88.317019029052
88.1964525098246
88.2136804371989
88.2247684280596
88.0639935567804
87.9495053700798
87.8234199355043
87.8306251538759
87.8392498714396
87.7495303743314
87.6384487155278
87.6685381073078
87.6794617245644
87.5289369268359
87.3520131252708
87.3953641963711
87.392105329695
87.2811144298449
87.1870701836735
87.1520543039205
87.0945189614422
87.037221431047
86.9372719174387
86.8809471509515
86.760704960716
86.742152515518
86.7400192123473
86.7519855032248
86.6789944455459
86.5494631703757
86.410148131804
86.4389442302553
86.3846470696215
86.327423640741
86.3113780437447
86.2551265267625
86.1366094415957
86.1897178204866
86.2007145315439
86.0691934500428
85.8820257738309
85.8283175429612
85.7755080491688
85.7522855707851
85.7229712380123
85.7862354917728
85.7496350359001
85.7090820560261
85.6573124193258
85.5703334698549
85.4813608832137
85.4169765723821
85.3233039442988
85.3348763034027
85.3457227040502
85.3552978294982
85.3035363653334
85.2685273931492
85.2285158526888
85.1862284815454
85.1348307821351
85.1466744785813
85.1256524483858
85.01457329997
84.8466578938428
84.8274315574681
84.869087297374
84.9200823653731
84.849342900474
84.7841313215644
84.7627598969716
84.7656295487733
84.7841880641149
84.812815241973
84.785345791059
84.8163423362828
84.7893707422655
84.7260537269038
84.6501072331499
84.6238818180706
84.618030916723
84.6159051120321
84.5682103007306
84.5975861192505
84.6194213032717
84.5889965028614
84.5568571061523
84.5990141251493
84.5636255597387
84.5326190291122
84.5755231510208
84.6433084081218
84.6171036871968
84.5757886184096
84.5068185907098
84.4989066230011
84.5436723433102
84.6602190392805
84.5461388480796
84.4228023837978
84.3198189448506
84.351907316806
84.4501102122283
84.5060055229284
84.3918894351397
84.3708183021182
84.4013087485386
84.4350587515381
84.45347688963
84.4836872879704
84.4811600737247
84.4578586393552
84.4205259129366
84.4932063295271
84.5002832077112
84.4108983998514
84.3565779373555
84.3810753799642
84.3471464406625
84.3965251966135
84.5047177422215
84.5827025793541
84.5401631849508
84.4915105845286
84.4343202772398
84.4661475959949
84.4577512261858
84.3871670650319
84.3995309022687
84.5357806481294
84.547897555624
84.5113107654538
84.470070008139
84.4109516474393
84.3681718569275
84.4805145062817
84.599615555265
84.5667180775466
84.4622096946116
84.4866737891191
84.5657756357499
84.5666781843574
84.4959963467694
84.5320726293497
84.5590954693112
84.5481677665187
84.5752573550089
84.6870642851564
84.6722536353338
84.6915188026881
84.7307490019508
84.7504375310903
84.7367923658536
84.7217995134864
84.7131528081915
84.8120141532349
84.8580003677299
84.8236575946341
84.7718980544015
84.8024943170151
84.8465797044837
84.920251911388
84.9498585287151
85.0135211509265
84.9763937565675
85.0042764480152
85.0519667466653
85.0482997410458
85.0627413553115
85.1394549205518
85.1779801042061
85.1856016924855
85.2403040049888
85.3360646493972
85.3797058627964
85.5592086121148
85.6522089138941
85.5579277289999
85.4908272129736
85.5592646077022
85.5435874948018
85.5486509381214
85.5974741290873
85.6554875254995
85.642634217353
85.6500132315574
85.7166810893525
85.8297968787324
85.8072477006703
85.7814681967929
85.7904449113182
85.8758292557178
85.9598314923009
86.0413279847245
86.1734850132096
86.2920722507049
86.2797314929792
86.2526913731631
86.1925382411738
86.2101193174266
86.2838124216868
86.2917048147736
86.2271127391529
86.3043062240012
86.412906197204
86.4117059689923
86.3904257677113
86.3983091418716
86.3645354795903
86.4200015536779
86.4610303010182
86.5608215022183
86.605253215478
86.6078798755724
86.5824751001912
86.6670737908545
86.7359481759502
86.719947408868
86.7314699221427
86.7640259323563
86.7905539444021
86.8920355546292
86.9334099463623
86.8851624445964
86.848750735234
86.8717001291772
86.904802910695
86.9861243843359
86.9953026511819
86.9713330775637
86.9698466468177
87.0815718658849
87.1419523090188
87.1258147283738
87.1315327688302
87.2342470064469
87.3185988258666
87.3469338653014
87.3133849594363
87.3604932592079
87.384648956604
87.4072088151861
87.4378715941701
87.490395890514
87.5454493136886
87.5621529085529
87.5482360089419
87.5256201549959
87.5321689741732
87.6741018511642
87.6897619626772
87.6956117266588
87.7583619008573
87.7949670299621
87.8120156852575
87.786095315947
87.7310070890382
87.7340554267366
87.7083498057093
87.6682206497105
87.7084541812119
87.8313850521023
87.8519671964436
87.7849629447329
87.6731245191918
87.6597263065042
87.6871675264199
87.6593839671839
87.5770512165639
87.5744677495671
87.5718030192744
87.5182163296339
87.4677341191646
87.4662515826299
87.4153323191306
87.3837844953028
87.3553617256684
87.3237916225039
87.2677598083589
87.2540197642617
87.2899324566458
87.327815500532
87.2549521307313
87.2014208088638
87.1885923487286
87.1870907811331
87.1545966796803
87.1344358376547
87.1425030100538
87.1670603369285
87.0730441026614
86.976428695312
86.930004324155
86.9317212395255
86.8913244973556
86.8545083785056
86.9026135246597
86.9375295527428
86.926144095745
86.9693897615267
86.9383368209157
86.9426005191109
86.9731450139004
87.1224920917518
87.2472995328019
87.2885390518422
87.3070545409913
87.3634027281052
87.3904988058296
87.4138419251942
87.4615362443805
87.4921347101436
87.4826900295413
87.5564209524583
87.6547194845697
87.738843116571
87.8101471785433
87.856328095283
87.8743609029219
87.8951512545467
87.8836950803432
87.9211328347134
87.9271951389187
87.895078550877
87.8937419370696
87.9427463352633
87.9596484893937
87.983087923632
88.009418625693
87.9904650935159
87.9858937109224
88.070954741749
88.1542382100394
88.1360888526555
88.1484020386284
88.1993911714904
88.1881944147453
88.2587717930528
88.3495249342985
88.4278674494973
88.4765482063483
88.5222618159866
88.5101813323182
88.532837972931
88.5792050722377
88.6406789477596
88.7152703340623
88.7441018236593
88.7903353163103
88.8858121258105
88.9003201376815
88.8876942273509
88.8892363252256
88.944084863086
88.9796683060361
89.0388784167319
89.0772860788695
89.1010329772615
89.1272292673629
89.1546006809526
89.1853081510511
89.2415234199319
89.2895748755015
89.3263671380506
89.3263389533889
89.3559558670465
89.3836479839502
89.386103751274
89.3826881629245
89.3997722137271
89.432246457825
89.4844979259708
89.5100966073642
89.4996933163639
89.467602928543
89.5286567003736
89.5753214316388
89.5797382170248
89.6289983169091
89.6641526757314
89.633272813552
89.6722479628097
89.7065816366575
89.6956101729715
89.6794474834315
89.7511086948418
89.7967979453761
89.7736744792665
89.7628941878035
89.7787618394083
89.7948561918809
89.8324869148794
89.8316756958213
89.83662389179
89.9132342880959
89.9518145370274
89.9311928062668
89.9573489100019
89.9469022409244
89.9404660848536
89.9614749862498
89.9914990832535
89.980623174861
90.0232839932987
90.0746735604755
90.0611380133369
90.013273626859
90.0277953082505
90.0741103371777
90.0922662571979
90.1157155376359
90.106331049277
90.12205417867
90.1431051822593
90.1681495573972
90.2169247447581
90.2299161109196
90.2353266259476
90.2394781449525
90.2527164506192
90.2239818393809
90.2593726450916
90.3133085055124
90.3243838604207
90.3356522582026
90.3548780839327
90.3545226163563
90.3770973087531
90.4054803437502
90.4192131021675
90.4519453189705
90.4886526180329
90.4825387569362
90.4687256305867
90.4478826634709
90.4612910815431
90.4910277263401
90.5332498524756
90.5557128661889
90.5477755688653
90.5330065848824
90.5132804913036
90.4892210560961
90.5479150160157
90.5373568334154
90.5077132716589
90.54886752401
90.5835770802156
90.5828667435706
90.6015358884187
90.6596706402448
90.7295754666417
90.7286685327116
90.72190843555
90.7397932187786
90.7783861042581
90.7948497108055
90.8268485493537
90.8488174250533
90.837209870346
90.8520707075843
90.9355585164514
91.0334654233942
91.0387255657818
90.9655057027995
90.933226214337
90.9720343746317
91.0682169497643
91.1369704583098
91.1697906612072
91.1822292763862
91.1671234849901
91.1352209031041
91.2144509573382
91.2637456022432
91.2792812655198
91.2815379182632
91.2888513441262
91.3658526956288
91.4042826133507
91.3983802357694
91.4938629577151
91.4941315530385
91.4241975629386
91.40994448039
91.4618347674686
91.555973091791
91.582072146296
91.5847976199921
91.6550996362144
91.6211385528784
91.5997138580678
91.6231707409894
91.6837734629191
91.6518175762566
91.6141764197229
91.7149842523971
91.7477681472778
91.6905636374167
91.74695365336
91.783091358829
91.7830649728049
91.8078557193268
91.7885930576478
91.7793008059967
91.8721117717166
91.8502961517374
91.7758064304469
91.8107119124698
91.8740807429076
91.9190710810166
91.9175587360602
91.9170886438262
91.9284035977489
91.9761134014607
92.0319897873423
92.0234842459017
91.9160507936667
91.8166177103062
91.9365237045649
92.0198968599665
92.039402070023
92.0932597234493
92.0544878886944
91.9325800292783
91.926492849126
92.0258558171108
92.0619163713495
92.0806890879166
92.0526524124258
91.9781802300774
92.030938839069
92.0867635977444
92.1154020629142
92.2049647131754
92.1768250787053
92.1463839411722
92.171110671616
92.1170753692677
92.1612008137516
92.2470097617094
92.2285201197044
92.2489932960144
92.3098064279697
92.2555663775372
92.1711257591613
92.1699609764374
92.1793512586498
92.2136764551467
92.186233067174
92.1487146614705
92.1717943186428
92.2188006316103
92.270775191218
92.2138563983291
92.1703119788379
92.2383195665441
92.290743881339
92.3424293590967
92.3448221825006
92.245014993924
92.2666116325053
92.3847089946291
92.3911283757038
92.3652459201949
92.3679920716828
92.386659875688
92.3930652521738
92.3660746569023
92.3443515647892
92.3474502418507
92.3605136614657
92.4087956789818
92.4257756482275
92.3849069707713
92.3300277257172
92.3601781231033
92.3786582261302
92.3447069531082
92.4053700226643
92.4614852613262
92.485908719237
92.48342348651
92.4306455358653
92.4378176290314
92.4701076212857
92.4278091740012
92.3535758770507
92.3756594301776
92.3872198667358
92.3504875527235
92.3400530075645
92.3467024654651
92.3685715785374
92.3693256325879
92.3160541329113
92.3811488237038
92.5082049955827
92.5746624453644
92.6193436336952
92.683581066627
92.690192010589
92.706258165218
92.7014255024825
92.7301557215168
92.8222934757675
92.795323002817
92.6934711634978
92.5269049924318
92.3716008728328
92.3557896006775
92.3814999140172
92.4021781819535
92.5401682032807
92.6555059601747
92.6205510193789
92.5752730498659
92.5682094845682
92.6211294999956
92.6176631102996
92.4745964300903
92.3777644324479
92.3669039647637
92.3826058728881
92.476023353064
92.5415356463721
92.6090497750842
92.6240162698574
92.5708004776578
92.5626161992856
92.6455625529528
92.6183069486087
92.5569475044163
92.57407966317
92.6467363730859
92.702333845827
92.7315523025469
92.744864682185
92.7417820236737
92.7097015747967
92.6789484773453
92.7694405308516
92.8326136110328
92.8678899945382
92.9584316176669
93.0052439443823
93.094851779257
93.1273333677899
93.161811009294
93.2026330609303
93.2781634120816
93.4801284088432
93.6090889223884
93.4879673004894
93.5151363280201
93.6211933663157
93.6897682673389
93.772548844724
93.8411424342273
93.8704777004882
94.0336359763209
94.0206336030272
93.926110378319
94.1106356235201
94.0567311783486
93.931254642334
94.1807611642407
94.2969235938564
94.3568022204984
94.3209318898675
94.2254483048186
94.3716857931697
94.6736636005603
94.6093941331886
94.5216034321065
94.5731389053914
94.4701050348753
94.4162889379387
94.6274959991015
94.8960744469931
94.860379065926
94.8713864212776
94.9758261796524
95.1057542762288
95.0650048183348
94.8415922824565
94.6698075558573
94.7289752990317
95.2529561514493
95.5154535545149
95.4200897851068
95.2383960174811
95.2308623190789
95.2973256879013
95.4374181297719
95.4177700854508
95.8208393044148
96.0369271065423
95.8007779801309
95.8528306901308
96.1281706847896
96.1620666416638
96.1370859057949
96.0226812892083
95.9435304241818
96.4246691552756
97.0750796327844
96.6374707000137
96.8508403029821
97.7712138826973
97.7258326865804
97.3040733948337
97.1323379713672
96.63028674233
96.3689902459994
96.1328436470406
96.0050103644673
95.8733529918731
95.7665968424396
95.5067079608464
95.2499886986964
95.2150486321516
95.392774187123
95.4072054035077
95.0896149245819
94.8752609228513
94.6034323150992
94.4009589029289
94.5106603275904
94.5034797863392
94.4254265886091
94.4197098283004
94.4418905576295
94.4022406767542
94.3381518541199
94.2757588240214
94.2550364733715
94.35710895568
94.4808728845811
94.3606363248553
94.3752897926135
94.5168453978691
94.6208968483613
94.7808594332016
94.8289072215015
94.639642698673
94.5912415884078
94.5988741209686
94.554201058004
94.5229764091449
94.6565007447386
94.7839941935115
94.7282622016157
94.605981081881
94.674665748448
94.7971002585092
94.8667201568488
94.9377585166477
94.9608694875502
94.9792752322795
95.1613343770828
95.1164636556249
95.1486445672922
95.4099181072279
95.5082153338807
95.4859111709595
95.7719990858546
95.82451366447
95.9457556446255
95.9838320009685
95.8830953962527
96.2312311326688
96.6159501403638
96.4845924602596
96.8290716988681
97.0945568677776
96.9793739818942
96.9709938920107
97.0814534111211
97.0861875006082
97.238819516348
97.2203636479482
97.1162502947285
96.9464336973483
96.9679481585582
97.0358773348291
97.2347840459569
96.9424402689158
96.7050653313199
96.9384646033662
97.2011689631397
97.242987948229
97.0306527270351
96.6197248777166
96.4243395131841
96.5166110271973
96.7270419484997
96.8600635616455
96.6258702602601
96.1058970086017
96.0609469617296
96.2461206376802
96.4161925157072
96.4243421656288
96.7163135967101
96.9220861145424
97.1261828561223
97.2186486468344
97.0997650448542
97.0027050691912
97.1057446090916
97.128300400682
96.8489584912018
96.4651902929099
96.5542240944138
96.6837466071145
96.8393979011895
96.7520901619983
96.431515125128
96.1024855974265
95.9069609676513
95.8385788699584
95.9706710944041
95.9522097989141
95.7627708600605
95.624908341385
95.5270730869225
95.3926146900955
95.5202114769219
95.6492920959328
95.5889542885141
95.4985734101068
95.4704026316822
95.3519120812729
95.4193670889206
95.4024515838191
95.1682440770076
95.1147701950046
95.1728045140435
95.0965350734834
95.0112590578547
95.034035716009
95.1422081371328
95.1201071428924
95.0682437014126
95.002146186662
95.046166399402
95.0801201866809
95.1557651247632
95.0778887953325
94.9230589600224
94.9619528724462
95.0561744153399
94.9759110311313
94.9721640587084
95.0930167171755
95.1462146157076
94.9749066219895
94.9119691956755
94.905540008183
94.8884135516969
94.982091889102
95.0149130988784
94.909535894191
94.8528873528083
94.8155057092662
94.9334547344534
94.9936582690544
94.961928574374
94.9572357757522
94.9778646030551
94.9111870291802
94.9268754069326
94.9731250241706
94.9973342360124
94.9610208660328
94.9513834413954
94.9139968251934
94.8703600079993
95.0177664460112
95.101362672727
95.0476939534447
94.9911689956114
94.9206728288852
94.9682114101594
94.9562880890364
94.9483007168236
94.9964980390814
94.9324568872705
94.9683492365026
95.0661710455055
95.0947059766061
95.1140080614
95.05705246744
95.0431460563798
95.0381998441139
95.04676826381
95.0580414153622
95.0627477669929
95.0570403144999
95.0062494776833
94.9325456375298
94.9537522873867
94.9769463787161
94.9380854154654
94.8011713756574
94.7079259185508
94.7570052164106
94.7796005606563
94.700822206203
94.6181365147538
94.5410922092088
94.4320632638097
94.3581961862905
94.2891094946735
94.179555796343
94.0540678939989
93.9674838109097
93.9970450443901
93.8560141895932
93.7804892138666
93.6876182567833
93.5462397385827
93.4686607634151
93.4226791246068
93.2578350634703
93.2130153112233
93.1178734134999
92.9830675871323
92.9681818787738
92.9931645335276
92.9544664569713
92.8538587907481
92.73713183571
92.6437387670908
92.5833606957592
92.4926422150883
92.2508060174122
92.3039296522393
92.2885214304472
92.1788943801322
92.0089783404964
91.78822415696
91.5298580774754
91.3505449093177
91.1119123293587
90.8750973654099
90.7703514190329
90.6661385442024
90.5281542551015
90.2814724632951
89.9651128513768
89.6415314557236
89.3769202406213
89.2323593963159
88.8813968893563
88.7982678092244
88.6442682026181
88.3934674401221
88.2981353277992
87.9799532182169
87.6243400594604
87.2872147109083
86.8848614782313
86.5082172322796
86.5350018332623
86.3609587243749
86.0193952514211
85.5613145379628
85.1904055704666
85.0048730595731
84.6300723001916
84.3027541106788
84.1199248944151
83.8457297327476
83.4442716599046
83.128290930748
82.8625286672685
82.5316672373741
82.1141477763971
81.5414828579344
81.2793769331506
81.4620163827979
81.1259345986177
80.6533788828955
80.4592494417964
80.2803699035298
79.9215553496253
79.5248535411492
79.043086572062
78.6106406759514
78.5915075533022
78.4807372991626
78.0822192182678
77.6310187252561
77.2759801383316
76.9408593883616
76.6442503941902
76.4309014896949
76.0407321240967
75.6106548576421
75.3968405060078
75.2253515282661
74.861974219157
74.4935529164676
74.1483168046774
73.8491563785805
73.4782744754403
73.1726427596623
72.9142268452703
72.6748345236844
72.3807251393759
72.1127376195537
71.8666273158578
71.6628243951433
71.4115328001837
71.1897322085428
71.0120216883829
70.861258260984
70.6483283889607
70.4720215944293
70.1877870656442
70.0183073097654
70.2646310897314
70.2859909074947
70.0129190334558
70.0006065466695
70.1347711097208
70.1260572308984
70.0705293659852
69.7266596762199
69.3739887784585
70.3384989132618
71.07783513713
71.3003466828947
71.478644962318
71.5623671164252
71.8989283805134
72.1005767152099
72.2038338242303
72.424060602561
72.7397747225029
73.844355296439
74.9217325595155
75.040574579787
75.1374892679664
75.7579560728625
76.1320107054439
76.2948292973504
76.5829346407341
76.9800858066442
77.1076829250659
77.6945318100144
78.2948314621907
78.5364450705326
78.9347253642448
79.1177858218141
79.2473578242442
79.2164241773045
79.1439184582038
80.1601616791209
81.0978134962591
81.2276635440173
81.1809315711958
81.2250092152505
81.57850627917
82.1108383188246
82.2268093933037
82.1189285567356
82.3700487189081
82.7706585826844
83.0724716413304
83.1488311090639
83.1480916833087
83.2019344912757
83.1517796985986
83.0508582740438
82.9217971517828
82.9152475226964
83.0820286470593
82.915270229914
82.5266255529364
82.2136009135837
82.1335889901008
81.8354649704032
81.3251813310569
80.9653270768282
81.2358993642404
81.2020042838606
80.90632556618
80.5441497462678
80.2879585194063
80.1938855421325
80.0408556815891
79.8254446190091
79.6078075725743
79.2749067534485
79.0080014425383
79.0747618685173
78.8978848163504
78.529941189335
78.2167304264972
77.9505180835398
77.5537137116458
77.1477663347165
76.7791656190371
76.3013090796099
76.0721286732198
75.9136197327323
75.5380875516636
75.0754959163117
74.6528065039228
74.3137453413922
73.9632759473464
73.6635855104214
73.4539813651393
73.167411599759
72.8616056225479
72.7600100159991
72.6278533782664
72.6217428878744
72.6412812586564
72.4997455264591
72.2940497041727
72.3231906020027
72.449705267748
72.4722931801554
72.4704045522028
72.4930370755015
72.5588917382129
72.5809461357991
72.7439438444643
72.9741679561218
73.0780209152054
73.2397958079827
73.4137151328075
73.5075505332366
73.7460453090629
74.0988392758229
74.3370358040608
74.495586473954
74.6722302845782
74.8896484916679
75.1073533273027
75.3282588102668
75.5522388820765
75.7733608998195
75.9740703838265
76.0942379329592
76.2431827877012
76.5248056131278
76.7895329397527
76.9691341753826
77.1066633505891
77.232430285041
77.3629931301534
77.4772622048329
77.5770479746219
77.6488716196155
77.7209525239214
77.8179183848292
77.9147408648041
77.9922651738075
78.0469877539546
78.1357058834607
78.2360582577194
78.3057016705881
78.3746911848066
78.4595293333448
78.5609908087903
78.6507689988232
78.7361972528952
78.8287967151221
78.9497952881623
79.0619399859678
79.1413398748395
79.2223177754656
79.3098473636634
79.4089841798933
79.4875387402258
79.5465785731251
79.5984873360783
79.6233860807724
79.6486771335703
79.6860400901545
79.704908098568
79.7248913676339
79.7543358008247
79.7761484984159
79.7839557463496
79.7915792218454
79.7903363876875
79.8251028417301
79.8704087573516
79.8843040776314
79.9197640299164
79.9688367026676
79.9806887471157
79.9904089492429
80.0318239036668
80.0515121732891
80.0512670982517
80.0817304644486
80.1169665826533
80.1220008345272
80.1238015609478
80.1353954896786
80.1595074191998
80.1881818860913
80.2054903418517
80.2323769358205
80.2909526203872
80.3641377379553
80.4138365715119
80.4650866356482
80.5407232482613
80.6022785912677
80.6692400808115
80.7565343008587
80.8564656618726
80.9486277056774
81.053090639851
81.1552694250476
81.2544718757881
81.3459170686362
81.418648065038
81.5034751234605
81.5907232861609
81.6693998127142
81.7530166025681
81.8136364254354
81.8674445212957
81.9298563544862
81.9646798275907
81.9741223562943
81.9853849455291
81.9806791288627
81.950004931334
81.890909146722
81.8387887578056
81.7933291168064
81.7352541849593
81.6604500942345
81.6027631466298
81.549754692799
81.4974541341813
81.4388669656633
81.344722701502
81.2161768478151
81.1126102946057
81.0351648148413
80.9430840136851
80.8563305076926
80.7575789088536
80.6291323357406
80.5034961309065
80.3686277847445
80.2488888640257
80.1414508545552
80.0040466823219
79.8611372089016
79.7349679181677
79.6279985229346
79.5112963671377
79.3563950446155
79.213117647026
79.1204531900602
79.0408111215097
78.949459777217
78.8411433160135
78.7591490336776
78.6776027885876
78.5598156556794
78.4198512559477
78.313626013169
78.1972392075387
78.0363117731342
77.8417176522672
77.6305192706864
77.4269499832536
77.2525477334356
77.0978455181472
76.9414337457141
76.7509647678537
76.5630166306517
76.397385502073
76.266530911742
76.1174833341845
75.9429135949688
75.7471301121088
75.5749023865307
75.4133079306717
75.2648712544666
75.1068794903133
74.940195837024
74.7757639849364
74.6038096928331
74.4568568713462
74.3063760303915
74.1366943792206
73.9636520459447
73.7775810889389
73.6092705104044
73.462383508248
73.312627460474
73.168760927772
73.0516363421575
72.9615498830703
72.8904299632952
72.8139064001374
72.7762632018566
72.7760556424169
72.7894458257815
72.8021681784365
72.8352847240389
72.8719820321576
72.940589285682
73.0378173667867
73.1225875511653
73.2562647547516
73.4076222752069
73.5547417540634
73.7262212827541
73.8893631065003
74.1003469439217
74.3382676452613
74.5603325195102
74.7797680316137
75.008872617757
75.2165470172917
75.4322122480828
75.6606174905083
75.888945316701
76.0917537556785
76.3162215797703
76.5189853247077
76.7236156383116
76.9041424368895
77.0343954818131
77.1702316693854
77.3229668317497
77.4784512899797
77.6300156995199
77.7529274587052
77.9081522565746
78.0659792458041
78.2495799016273
78.4295172957669
78.6161886945548
78.804430568695
79.01020187205
79.2111635016898
79.3574800870762
79.5002392977365
79.6772942277664
79.8326505967719
79.9879282388836
80.1243921960569
80.2904480845707
80.4513261057357
80.6020050705061
80.7522190409582
80.8794864320076
80.976555152619
81.0780342502675
81.2013272899569
81.3498742324224
81.4875135149581
81.5708248617578
81.6306106678694
81.7198732188029
81.8141578096682
81.8923009218129
81.9545788897959
82.0133816977446
82.0745819238149
82.145980174114
82.220647028422
82.3097158391244
82.3964500760869
82.4513683667653
82.4934099444764
82.5646858814194
82.6176189129295
82.6828631070791
82.7705755714281
82.8262283225633
82.856127567301
82.9102908593403
82.9494260971156
82.9710283582529
83.0033289791055
83.0337312041935
83.0587229855596
83.0703221911288
83.0647605100959
83.0707637826043
83.0930718173395
83.1208385861555
83.1179704574232
83.1337406386869
83.1463151734293
83.1112193102449
83.0750004385492
83.1090218552069
83.1287409399147
83.1348415983116
83.1266207285867
83.1200945276107
83.1185058917998
83.0747772687554
83.0126035643356
82.9648336675582
82.878312848279
82.7535222472712
82.6573114556916
82.6178733320869
82.5320002543176
82.3850169222717
82.2661165944445
82.1776826970747
82.1086248681821
82.0345250828367
81.907540656621
81.8190761001479
81.7448468807071
81.6624783980648
81.5675135622814
81.4669278280677
81.3412844364065
81.1720455357761
81.0334265587624
80.9562175297376
80.8381257912813
80.6897640063008
80.5871068027396
80.5293079009111
80.4286936089893
80.3481558075469
80.3105092783828
80.2438711986976
80.1554935073384
80.0935777984344
79.9800089591975
79.8845679519366
79.8596575600542
79.8051167910879
79.7864934424507
79.7954983580779
79.7749594025243
79.7233337292241
79.6745342733777
79.6247626231661
79.5887146304079
79.5812089044197
79.5337346716261
79.4849287630248
79.4586460789524
79.4503466695204
79.4040570127706
79.3818031471899
79.3685214553958
79.339118099229
79.251749976315
79.2066474619046
79.2089248923119
79.191204624185
79.1411110382157
79.1140545345714
79.0596384146053
79.05076816653
78.975458600877
78.8570275185109
78.8269046518818
78.8338372086251
78.7511326503869
78.6198873125179
78.5291832280451
78.483748657825
78.4254375343107
78.3562061218094
78.2062551241203
78.0925502570457
78.0072008874747
77.9106459338593
77.7888282887538
77.6834712176389
77.5643751876669
77.4595338823486
77.3510200502826
77.1995448375231
77.0607395384987
77.0119386756231
76.9151850289724
76.786332361709
76.7297617014342
76.6608262656744
76.5680440320722
76.5156284938667
76.4650893052702
76.429690007147
76.2986105571993
76.2002352834456
76.0805028387229
75.9822645985926
75.9154103101971
75.8623023268335
75.6877481922527
75.5185978351361
75.2906663073921
75.5714603137167
75.5829805916152
75.2557875509896
75.0745041190066
74.9873971149152
74.9198203690688
74.8298637545461
74.7534306354533
74.6466027539355
74.5136929093877
