1798
3999.43349933624
650.420452594757
1
128
4
92.8483407683677
92.8764471794316
92.7749800025678
92.6751347875662
92.739827698992
92.8300110728383
92.8010671387427
92.8324091256565
92.8998947236023
92.9786909040535
92.8791209796731
92.8082414115521
92.9038390965557
92.9624728651452
92.9076260867504
92.904087763632
92.8228495777303
92.8561919528765
92.8841247817797
92.913824696211
92.9552239836033
92.9504063073227
92.9430896547921
92.9604113309748
92.863781734371
92.7747863199279
92.8080530607822
92.9032646544486
92.8722146302973
92.8625981330011
92.8101324618387
92.9681719873291
93.0605617676592
92.9934695675596
92.937578354753
92.912565794493
92.8829367324781
92.9028122247947
92.9008483062587
92.9330912638242
92.8754967511242
92.9176838906665
92.968234058159
92.9376857375106
92.9459460922641
93.0535843875691
93.0698865299513
93.1483869611332
93.2018271641712
93.0618137755496
92.8293304939348
92.8331912404861
92.9540113222848
93.1908753269068
93.2554545830373
93.0980600358132
92.9819262907534
93.0002362816438
93.0795854848203
93.1943462947616
93.1703129834598
93.176959375988
93.1262255914366
93.1213952512557
93.1805007207383
93.2494712995904
93.1193919142983
93.0460902505823
92.9942406249875
93.0226200490181
93.0522366651614
93.1852986729654
93.1848274322725
93.2726285582844
93.3820706653683
93.295170002676
92.8973142050123
92.7324496238649
92.9363616394486
93.2974503820609
93.4345877280192
93.4975281349203
93.4063765776995
93.2852397514811
93.1290704042388
93.0168073517693
93.0840311631693
93.2514196255572
93.264073884248
93.4313261573893
93.5012634970472
93.3048024282948
93.2562136507326
93.2710183324495
93.1015088781294
93.231159870546
93.3671289201724
93.4042449209546
93.3813902674372
93.494726290686
93.5506057839541
93.4376350809682
93.2956176074883
93.2771370699237
93.3177875299731
93.3534034486769
93.3563294585714
93.438405762007
93.4113919177345
93.4377761793896
93.5110412668008
93.5759514680312
93.4455049927048
93.4466447742607
93.4984799288994
93.4611221282794
93.3746007835043
93.3488923537311
93.4370557183383
93.6059524039167
93.5681122820722
93.462111406854
93.3546593727134
93.3875070641069
93.3970567776208
93.5657042338079
93.6477887233646
93.6813974924401
93.6755684770022
93.7666204476541
93.7644668575704
93.6324422442313
93.5241883082021
93.6214809187541
93.5180093319721
93.3752597584685
93.4745485307143
93.8021704889948
93.8726258665942
93.7122366991021
93.4901039863471
93.3123708962238
93.3968864232169
93.7652242140557
93.7919072454542
93.6489360265155
93.4755933096338
93.5712905666188
93.7493958613682
93.8146715916987
93.872730494178
93.8815209343433
93.7173339456131
93.6710664198919
93.6271194548226
93.7354548544203
93.8690411757591
93.8906767711668
93.6521413236211
93.5733801814573
93.6303947300788
93.8191860126482
93.8739522995083
93.8259956055122
93.688779194756
93.5974631279318
93.5679133808918
93.731698100232
93.8932903444466
93.9073932771043
93.8356078961018
93.8175585271204
93.5770978299681
93.4961072354099
93.6366572968804
93.6719218210445
93.6434172441959
93.8090702963693
93.7996124793127
93.7437573648136
93.5526180940364
93.4074829499298
93.4328216270003
93.4201581187233
93.3649538414203
93.4085192055407
93.2700888815947
93.0008857588391
92.8571706234868
93.0958851452598
93.1786114734398
93.0626749754096
92.8288454693022
92.7804259517266
92.8079502465382
92.702159446466
92.5386546967929
92.4106775719758
92.3087110839988
92.4724194574237
92.4920255681839
92.3995176682253
92.1552736203041
91.9687658874344
91.8739144228152
91.818297949671
91.7282529236644
91.6668389412595
91.5062814121965
91.4332019882767
91.4625534302701
91.40947099036
91.2304295217937
91.2109296114198
91.1182908250764
91.0021510372666
90.9568843927773
90.9521488943463
90.8659295151563
90.7875108825966
90.5566830350201
90.4846891785325
90.4110789241571
90.2233049034929
90.0500990416526
90.0584912875212
90.0300072771984
89.9850961945374
89.877240904559
89.7716101694559
89.4786262444434
89.1852893347529
89.2385402292094
89.3841760639152
89.2772823586812
89.2031384661778
89.1494483113449
89.1013890800071
89.0139821217381
88.8939212518981
88.696528167621
88.5724038010714
88.4584715822387
88.4132963924347
88.3314685922769
88.2987246951658
88.2612408863771
88.0966200895105
87.951201528323
87.8926758067932
87.8402588828364
87.7945629657215
87.5810445387834
87.4423890593904
87.3058562242627
87.3027307845418
87.375630220975
87.2682794476659
87.1516239658607
87.1787701134308
87.0244425389878
86.8777154828479
86.7836198038624
86.731108385469
86.5657614930674
86.4987809550069
86.2954789830738
86.0685369418738
85.9532613108641
85.9769707950032
85.9265256956377
85.9072424566131
85.8927815472525
85.8288299805791
85.6065005062845
85.5138199015385
85.4216225123365
85.2826706815865
85.1922716089591
85.1941950275535
85.1268764014573
85.0318704734946
84.7775118107338
84.6228495614762
84.6216421202906
84.6122191984065
84.5048812620693
84.5344279485399
84.4756533297599
84.347280219577
84.2522834581476
84.1481677318584
84.023467855715
84.0880824060457
83.9739554641477
83.7819404792717
83.6231123620424
83.5323813259122
83.4603071929453
83.4337279072158
83.3752762506031
83.3323259041002
83.2662337790212
83.205412429866
82.989776816876
83.0142185775677
82.9794643161525
82.9614985892391
82.8196843743052
82.7015662344366
82.6581051267453
82.5745063805574
82.4571714370512
82.4687680177841
82.4131763436687
82.3985424881375
82.3181352859828
82.2053680445459
82.0504911999191
81.9588007133505
81.9090885814564
81.8996347463695
81.8173442187676
81.8306873654073
81.6968340869125
81.6671892476875
81.7344628119353
81.7110831075401
81.6084940978416
81.4119023112056
81.2755917026123
81.3569360380187
81.305655276009
81.1996398406064
81.1503607671996
81.1845745493442
81.0535494961765
81.0195744144378
81.0198067497398
80.9579644840721
80.9319004605772
80.9215122275949
80.8145920144144
80.8143795009798
80.788746675625
80.7765526346166
80.7241666496915
80.763562369661
80.6991088831169
80.6317959805514
80.6005580003327
80.6153515733785
80.6052160904656
80.5599121344739
80.4313559907489
80.4510106905567
80.4601525636177
80.4786265231738
80.4534943085918
80.4234025619459
80.4212214823097
80.544355903622
80.4796237669195
80.4493191113678
80.40319966389
80.344452682112
80.2673015467238
80.2742382624938
80.1736780128775
80.259384215101
80.3732398777375
80.3637653163975
80.2369253964336
80.2499396555848
80.266946393092
80.281398046225
80.267087003543
80.334056130937
80.3180425237989
80.2722625402076
80.2126372396334
80.1793618135555
80.1434398216038
80.1511925329697
80.148536045027
80.1943732838119
80.1085402578694
80.0722313069867
80.1137507654475
80.1261416238384
80.0969343958039
80.1639153558649
80.1164780536683
80.0915696400469
80.0928321471682
80.1815166251182
80.1685313085236
80.0828449797664
80.0161623304914
80.1695336637739
80.2617189467418
80.2374288957009
80.1855292580148
80.1791823914026
80.0427589099155
80.0753654867608
80.1616795691433
80.2114871510961
80.129736697348
80.0846065242028
80.14807165254
80.2585984379511
80.2525744139361
80.2371065865401
80.1894287711523
80.1858318970226
80.1700374135535
80.2306642166683
80.2599684456093
80.3088475885702
80.3440736779326
80.3757207519474
80.2779171457031
80.2334497847429
80.340175056086
80.4495285775883
80.3521760199201
80.3068978988637
80.4002502644828
80.5430190273188
80.5038660447565
80.4915039357751
80.518415949934
80.5807411503302
80.6237973395744
80.6387899758172
80.5612651112524
80.652536432931
80.7093568828411
80.7736768146092
80.8697210597388
81.0009667462226
80.9044815120529
80.8753024317461
80.9787908649947
81.0075129975757
81.0288465639029
81.1412438468282
81.1451913749801
81.1902881613242
81.1580427379345
81.2564422839905
81.337661176188
81.3917940909809
81.5543952334865
81.6591884245619
81.5674498596504
81.5827915933672
81.625065621251
81.6681310919955
81.7372959398447
81.8512632852726
81.9525169334315
81.9810981850479
81.8569158479993
81.9012903707574
81.9847345980961
82.0828124286637
82.025741915519
82.0454894529505
82.1754630829746
82.3581479942049
82.5033642686841
82.6335505780528
82.5655223306259
82.4868565590797
82.456043153275
82.5826897222495
82.6301474978295
82.5871030219167
82.6072323761443
82.6962429924126
82.7128339313217
82.8067031968645
82.8403018162967
82.8460653747917
82.8510537096052
82.9993213722611
83.0703879835647
83.110206074525
83.1341966890226
83.2050938114003
83.2435670761095
83.2493727031796
83.3017198377007
83.3933061385121
83.3850040479637
83.2991281776117
83.2448643883526
83.3657020210764
83.4240095247802
83.4468032914713
83.490178827775
83.5685810050993
83.5888005329862
83.6108027019678
83.7005694677633
83.7958138999438
83.8430828379955
83.8987049656157
83.914773460817
83.9706783445626
84.0628348354219
84.1834352406122
84.21300250108
84.1905693428693
84.1644341633244
84.2045534940399
84.2957496105526
84.3726034055276
84.309039462472
84.3141187933629
84.4063346953612
84.4872240277498
84.4513279978268
84.5265203921785
84.6070426761009
84.6044863719425
84.6173176386232
84.7242536397346
84.788282760948
84.8153298913498
84.8121688145064
84.8226481278708
84.8144087310878
84.8590835168798
84.8885019669325
84.8974280772271
84.8332943017143
84.858501309343
84.879984971625
84.8564976274314
84.7685178676329
84.7583637285768
84.7757629940283
84.738124668328
84.6769343902197
84.7132975809305
84.6879408244183
84.7021696541752
84.6427031008917
84.5557105301081
84.4760417044559
84.4641822649349
84.4382379284676
84.3878208582677
84.3612541883345
84.3860077732953
84.3502730739928
84.3363321881495
84.3101029617227
84.3161668523418
84.2990155445937
84.3082093286167
84.2836360112939
84.2580769206792
84.2882166686148
84.3141991953755
84.1798606103448
84.097545879596
83.9824687365043
83.9409335810181
83.9325678374126
83.9552779171979
83.9715580894628
84.0044770786531
83.986884217867
83.9962314316067
83.9834400284766
84.0293289471919
84.1541844878998
84.2903108592452
84.3667927647554
84.4525164546125
84.535598206426
84.6307396659778
84.6677321304939
84.7741470957653
84.8544482581521
84.8764207652292
84.9036716652281
84.9907005460302
85.0657237567287
85.1071668257392
85.1179075023012
85.2167825079271
85.2539806795504
85.3020739817474
85.3330179225508
85.3303029368905
85.3044888666583
85.3630510142873
85.3765464339169
85.4007400519434
85.501538992548
85.5501037849563
85.5141034888706
85.5450437190253
85.5865031395963
85.6271086012622
85.660107391389
85.750813516495
85.8092871395205
85.8427766977752
85.8261266112957
85.8463734041622
85.8896876596915
85.9708016095783
86.0881912195937
86.1914020341851
86.2156987517952
86.2175435032409
86.3318648945038
86.5062442653859
86.5810969417212
86.5959093989835
86.5892723035565
86.6450405788594
86.6590090549842
86.6578218235182
86.703905479294
86.7816428715022
86.8777842647621
86.9510887002592
86.9195274642015
86.9424314285493
86.979343179976
87.0248227613904
87.1169888592767
87.1444916363325
87.1302508958928
87.1705502357322
87.1588252157458
87.1993621641669
87.2907907327387
87.3547100220939
87.3733667624512
87.4227441645612
87.4621358427824
87.5429470083781
87.5422612521129
87.5410253944561
87.5945882780203
87.6159895402199
87.600175687843
87.5682049591166
87.6209981271091
87.7289729291454
87.7702184317762
87.8019545603049
87.8102947123628
87.8263832630181
87.8413025562892
87.8300529611326
87.7944381737495
87.8368192249336
87.9316357526409
88.0061898990975
87.9625438832278
87.9180979568459
87.9546665746596
88.0074854178715
88.0728713314358
88.132568659737
88.1416510624173
88.088815086311
88.1078871443776
88.1978441499205
88.1815954984849
88.1927706354525
88.2097786495373
88.186891280189
88.1843250882677
88.2258129373522
88.2944611349503
88.3841925348946
88.3766720566861
88.3677038748583
88.4286108736453
88.4562458765792
88.471528384111
88.5244252805903
88.5569771191922
88.5491462383389
88.5488371394411
88.6013061258859
88.6096436360434
88.605784718041
88.6224202634586
88.6389699543518
88.6507643490234
88.6797350488923
88.6981918884231
88.7294800168077
88.7309002631203
88.7162380284116
88.7157473565535
88.7663614537784
88.8067544954188
88.876960060513
88.9450989391522
88.9446334670421
88.9432761353929
88.9917225531002
88.9966001377836
88.9758160662931
88.9999458313288
89.002756209765
88.9734822602588
88.9993809354865
89.0133330880871
89.0216850186167
89.0555742647089
89.1006885032552
89.1123660846626
89.1150246188815
89.134740413743
89.1490827104739
89.1328665494463
89.1781965856186
89.252614116204
89.2902224847072
89.3102728463254
89.3232741838843
89.3860024254064
89.4695877565344
89.4962977082708
89.5193736324598
89.5609603571522
89.6093451322497
89.5967833496133
89.609657909958
89.6688682875206
89.7425663800229
89.785438448508
89.7309631603798
89.7418369324237
89.8327455245602
89.8421706008673
89.7986424800279
89.8443746267727
89.9514941366397
89.9292337745374
89.94618792521
90.04672064636
90.0905301439654
90.1380940143886
90.1709969424382
90.1195149373228
90.1522845045224
90.2022930548041
90.1869540621701
90.1713256125397
90.2290555438943
90.3111847197013
90.3595179141941
90.3531343535803
90.335524750718
90.3205668326664
90.3722238765846
90.4723389620522
90.4993204147403
90.5374879777098
90.6090449834624
90.581676756864
90.477146533852
90.4809919462189
90.5621125089007
90.4908695003833
90.4383279106916
90.5054639910355
90.6212100397348
90.6295079747077
90.6567518815042
90.715209350643
90.7197549665631
90.7824252309693
90.7942031153159
90.7191365625703
90.7400995222251
90.7969292183085
90.7690470747028
90.7858519044368
90.8569430278829
90.774378686279
90.7387039430844
90.7735407947068
90.8938674404511
90.9298619504406
90.8990609759893
90.9371246739015
90.9417052484443
90.836197164175
90.7711992496651
90.8640299891787
90.9879319756197
90.9679704598888
90.9506086585539
91.0618587077265
91.0807068501267
91.065135117157
91.0429297571254
91.0592951470058
91.1482233558446
91.1576295403517
91.036725993175
91.0029818122712
91.1193538654062
91.188442632866
91.1998401498405
91.1535090068066
91.146800523949
91.1581956139919
91.1995882157569
91.2201744377473
91.1875561925364
91.2051205026948
91.2785160077431
91.2129890729986
91.1123942968671
91.1525753240721
91.1750161598225
91.2279077759295
91.3445441168207
91.4071728204053
91.3763949484835
91.3054245684966
91.341347521211
91.3768579749033
91.3066547629744
91.3093927576425
91.3987851131205
91.44288246394
91.3898189377635
91.4114797861702
91.4293217545966
91.3528769940161
91.367274911232
91.4316951062373
91.416390784698
91.4806698856861
91.541566663022
91.5331064347083
91.4971971042601
91.4353661093656
91.4052087988084
91.4061396479733
91.4478174188765
91.490933744773
91.5222312145452
91.531818570617
91.525777158163
91.4745851853379
91.4817240018819
91.4718783887272
91.4886468622525
91.5551858296467
91.577394358397
91.523264870792
91.434930218991
91.4467003238248
91.5408806953472
91.7175655395294
91.7858441267425
91.7336821547806
91.7227242536451
91.8009410302337
91.8860891114678
91.9243994674233
91.8374599107067
91.7826695734989
91.7151304551291
91.7639217604422
91.8803316582061
91.9148526837421
91.8229011635706
91.689533893957
91.566017516875
91.5400785321442
91.6028390345858
91.6425065224723
91.6904324441818
91.7235383783459
91.7366105855293
91.7360922220264
91.6989733489569
91.7342298235963
91.7496998493323
91.5821834500589
91.3775276550004
91.4038973601769
91.5579236007426
91.5701930995104
91.5185953250701
91.5717913237785
91.6063712572444
91.6606511581478
91.7030950389588
91.6683068305866
91.6411718057625
91.6632832364104
91.7203660636589
91.7820209126089
91.7727962391917
91.7145897580369
91.7326388720525
91.816146911289
91.8743421546863
91.836788466587
91.7801512208896
91.8536315402775
91.9629924947139
92.0858065209681
92.2315384464239
92.2564210365129
92.3178829355478
92.2669030801402
92.2644491332786
92.460380228504
92.6996081153943
92.7588195714106
92.768620496773
92.8817052736244
92.9642631744879
92.9765102329426
92.9601136103972
92.937449865365
92.9623139279555
93.1737026919095
93.0884521161803
93.039742254314
93.2868425325593
93.2777241516624
93.1930682670614
93.1646453840277
93.3032311580861
93.3991779642466
93.548175643219
93.8688090631875
93.9314542254441
93.9446451943053
93.8897548637597
93.7918075917209
93.753223728904
93.9765206343111
94.1166717678255
93.9810524317413
94.1184753914413
94.3256262862298
94.430280252564
94.4823390017247
94.5676299889209
94.7037564779976
94.5011550724067
94.2923883144651
94.353168856543
94.6368775970731
94.8158277962347
94.9788229747923
94.7652367067406
94.7067386472946
94.90507332954
95.0663049040039
95.0768339882428
95.3858727800366
95.5899358144786
95.6756663774463
95.9423299124861
95.8156088554507
95.7388056237681
95.9054102248468
96.0282971026643
96.0882921380513
96.506397354099
96.4956056658661
96.1835587378345
96.4402013460386
96.7208005572252
97.1307794098029
97.0069968040146
96.5587913502398
96.3980753279624
96.0449941772888
95.6020493917247
95.6623492501515
95.5549980337552
95.1855219748487
95.024520180697
94.96468700036
94.831352735044
94.9302117752244
94.870574771325
94.679440343517
94.5268307135778
94.193983957671
93.9185801281673
93.9247724555513
93.8280185245453
93.7284651619579
93.7108321686292
93.8794888032995
93.9227607271009
93.8651268362789
93.8368794055958
93.7521668384143
93.707056802459
93.8631838373611
93.9014231559904
93.7350203143938
93.7748545931003
94.0311786564456
94.088213466056
94.1110042600771
94.1266025276514
93.9903890429625
93.7773664167453
93.9900711819911
94.2597068217139
94.2178445649961
94.0796840493864
94.023623767469
94.0729966145595
94.1844416372927
94.3464753882153
94.4215332350189
94.438707105814
94.6362412595612
94.5915677147879
94.3054155102286
94.4599904422499
94.8936710363363
95.0807782280983
95.08093057192
95.280858809549
95.3487713041188
95.2354878497931
95.3858052507255
95.7134759224589
96.0607422862558
96.1080901420746
96.4366329023999
96.7248322339885
96.6264602253665
96.5206188801116
96.7060965205572
96.960798968772
97.2410286717655
97.1163870005991
97.0472229419534
96.8848034921164
96.6924507133363
96.6968939541207
96.9438685522343
96.9583727737942
96.7754562900123
96.9597048604011
97.1853363958914
97.1552152007957
97.1366954807134
96.8282878605485
96.4864575079247
96.2925978349395
96.407571579382
96.2002715248804
96.0539934905304
96.1527638612358
96.3099873231383
96.2513800031448
96.2963587332745
96.3613195845565
96.1558883649219
96.1421603384995
96.4524830264161
96.6033327973727
96.7215846871963
97.1280806710135
97.3219948563426
97.1283432816002
97.0408757095949
96.8225913044001
96.7225535112181
96.3915015576643
96.2000561744933
96.402564800209
96.5109663463891
96.036710265964
95.8144392968547
95.6921455961514
95.6506731716981
95.5706924500922
95.437110973098
95.3469726115565
95.294075738153
95.274331582934
95.3570234812603
95.1571160298748
94.9967570485839
95.044293115375
95.163573026502
95.0242827529909
94.8971623560058
94.9363912437595
95.0288928682605
94.9073678337606
94.8860707753472
94.8370453449254
94.793593161002
94.7553661964852
94.6946315465311
94.603121224193
94.5586447750046
94.4917180506576
94.5182974504234
94.5827133369605
94.6349780356711
94.5250122406961
94.4664872701726
94.4618013180106
94.4945466698392
94.4934051572803
94.4706517366374
94.4260838756452
94.5350711782587
94.6383989997887
94.5423512155723
94.4421276451082
94.4668342344334
94.4531013979114
94.4339168238383
94.4749782469515
94.5484036904008
94.4731235398889
94.4064387279058
94.4750096222681
94.5931408272472
94.4960594852458
94.4191361330194
94.3838618169422
94.4175072848003
94.4216904750019
94.5110586854304
94.5376422300649
94.5786722955053
94.5595543805088
94.4843563906236
94.4216554999606
94.4692525591086
94.6186440419834
94.6137613355042
94.5103969150062
94.5390104665276
94.5756029901706
94.536974175557
94.4227724784172
94.5019372160065
94.6027390757662
94.5414871848178
94.5533320645891
94.5651584018751
94.5510233222805
94.6132106628108
94.6428846300205
94.6143090739449
94.5579334390157
94.5517105336731
94.5581919807304
94.559637047222
94.5134314747629
94.4384650123296
94.4040776517336
94.4912116607784
94.4451309328405
94.3291339604239
94.2093582323391
94.1956325545964
94.2951218684788
94.1992905963572
94.0182470363591
93.9116591273425
93.8192876107013
93.7287084598556
93.7080925375281
93.6137725858187
93.4243564626737
93.1975218163504
93.143550420113
93.157137192396
93.0532479433862
92.9148908169787
92.6679669210929
92.5005748565591
92.4618753528526
92.3664849891191
92.2673693096268
92.2669409846849
92.0628730313029
91.9119934082675
91.9478998102632
91.9554258270588
91.7857242018162
91.610962414645
91.515321773734
91.4799504318724
91.4677516478707
91.1620621107188
90.8433639992655
91.0279963198116
90.9416058339403
90.7493528675553
90.5367221191772
90.3270831350108
90.1545333786206
89.9114347997853
89.453375613627
89.2515850389938
89.2880615741435
89.1299492739781
88.736571403402
88.3811919438035
88.0076397015925
87.697190648779
87.5514954983094
87.2323840008877
86.743103992837
86.7292727032018
86.3844833871437
86.1889259304137
85.9380692934507
85.4629707707828
85.0331668509225
84.6401587941576
84.0967816298556
83.9395545222421
84.0423276448171
83.5649882928447
82.9694593986677
82.3593178319394
82.081522811752
81.7822881735434
81.2359152852642
80.9550850444431
80.750769491054
80.2263679982027
79.7056494444792
79.5038368965645
79.2262596612615
78.7448361947431
78.041568414392
77.3509585987753
77.7750152270081
77.7837145185756
76.8318693626295
76.3413889361359
76.3646265428714
76.0499060996931
75.5287094414406
75.0041874935917
74.3846530562982
74.1721749684071
74.3786070496245
73.9596165799029
73.2921237862295
72.8375329221641
72.5724664477189
72.2186896018979
72.0493868750321
71.7627679701597
71.0647784607774
70.6096370834574
70.6863996393197
70.3394797341167
69.7619270057259
69.3420154381272
69.0034789129416
68.6849008566754
68.3234165948098
67.9945974277196
67.6612586872166
67.339845417228
66.978661074494
66.7012760515455
66.4309135848095
66.1390061108659
65.8263519925433
65.5991802055045
65.3401623719369
65.1262441814663
64.9371591957082
64.6730627626797
64.1341898770209
64.1901903757485
64.6009018749791
64.2154040186891
63.7120909523701
63.9901596668951
64.0881630299659
63.9705451789836
63.8190028825126
63.105550814924
62.7258801007553
64.6966324302924
65.0603462044297
65.0013732523544
64.997333672205
65.1396005053868
65.5881622750665
65.6175699974545
65.7197882499176
65.9929080802356
66.4238751025398
68.2349437913115
69.2373908843376
68.9394156350096
69.2178109010116
70.2086179907978
70.5338362484154
70.6660485110551
71.1495041529074
71.6577958899448
71.7976882236922
72.8444789668297
73.4179614550876
73.730864887107
74.3130209932926
74.4951391535128
74.570058062007
74.3466550197359
74.3602648370476
76.3572649471985
77.2466095277745
77.0460278173252
76.8583309595107
76.9850161552874
77.64586766825
78.3181564133948
78.2246499588296
78.033128626029
78.5253533779595
79.1460303113173
79.4379634114621
79.4194163951585
79.457666316912
79.5523431465258
79.4223009347371
79.3068136455436
79.1631652878264
79.4112168319849
79.5830515975983
79.1230653460162
78.5636051467198
78.4043328015182
78.3544522230871
77.8036734090683
77.0723157993444
76.9379968096342
77.483352366519
77.1993304588164
76.6929267010289
76.2013518181135
76.012103524294
75.9776754899924
75.7881112014944
75.5236527361565
75.2170523972242
74.7037592941864
74.5825870158489
74.7528288193186
74.3765894122951
73.8844494714512
73.580915958703
73.2528941271735
72.7885804087294
72.4089973361276
71.8661095218819
71.2890592031183
71.1868499883986
70.9076825968953
70.3637653589871
69.8039709907013
69.3749076147037
68.9455122795959
68.4811251731952
68.1881098411802
67.9934960807779
67.5465130465369
67.2378648325849
67.1342508722352
66.9683121710575
67.049062051449
66.9851352359579
66.6574701035402
66.4388129361583
66.64625726177
66.750400856721
66.6876634011187
66.6717872946207
66.7160726422256
66.7593693733041
66.7985403382953
67.1557493773068
67.4154251038926
67.4842377551255
67.7039199683212
67.8719502270542
67.9125233363352
68.3004895844195
68.7883475810836
69.0064749209745
69.1458156683159
69.3923870975083
69.689553533522
69.9398319559374
70.2086492641221
70.508691228715
70.7690635083905
70.9758833392666
71.0684946186778
71.281955268189
71.707593364487
72.0367529525342
72.2355280136896
72.3737319793393
72.5091509329589
72.6705936694768
72.8288635647952
72.9421494430023
73.0463072294786
73.1213854363589
73.2097308304748
73.354523952613
73.4494891264021
73.5073720599417
73.6325337885622
73.7285806485629
73.7778552761547
73.8723606102419
73.9957660661148
74.1275505098867
74.2502557700413
74.361156804534
74.4776767757043
74.614684495557
74.7577274864083
74.8682582173085
74.9561882979264
75.0700269630617
75.1773543927246
75.255462272508
75.3269579380104
75.4030618554913
75.4862239928833
75.5217266277192
75.5313926070546
75.5611512530139
75.5945389890918
75.6014124795812
75.6323897425917
75.6846622226705
75.7085905172892
75.6885090442592
75.7033831820086
75.7760050395048
75.8423326153019
75.8828362397333
75.9061124159086
75.9343155048548
75.9810642296156
76.00855812857
76.0169811617967
76.0334469678541
76.0490687270144
76.0732713040667
76.0743862792983
76.0725318742415
76.0981915762691
76.1316710423744
76.1521770283567
76.1760128826362
76.226370751096
76.2917893740122
76.3588727924526
76.4157722069712
76.4852662603526
76.576455059406
76.6644435858255
76.7559412267418
76.8471595589404
76.9663606958198
77.0921369167918
77.18186974897
77.2851876675796
77.4192411466511
77.5332040081978
77.6335547259156
77.7423332883765
77.8873629807486
78.0092565793336
78.0834863765723
78.1610318983675
78.2088905523521
78.2530211779131
78.3045204681031
78.3397378481289
78.3406430394599
78.3286881512064
78.2930091185512
78.2350027363012
78.15861512754
78.0982646819188
78.0421085695648
77.9898191654108
77.9318718135756
77.8532787110349
77.7482174674055
77.6452089419148
77.5539684739547
77.4434198818842
77.3236093541727
77.2283590374298
77.1079942241965
76.9828120550447
76.873627265446
76.7361603903377
76.5740932204615
76.4475692410445
76.3244031975045
76.1787605514211
76.0110879478385
75.8424492828045
75.6956553335756
75.5284454941084
75.341617825718
75.1967970222294
75.0768182464764
74.9486697897607
74.8482961546707
74.7591348432959
74.6728544270638
74.5775601214866
74.4359400507341
74.302355575945
74.1894133525656
74.0421568259246
73.8682214544052
73.6906723289639
73.4827018689845
73.2533125508643
73.0314542341694
72.8363267299617
72.6137844703955
72.3914422207486
72.1932085067454
72.0012424820162
71.7940548854563
71.5924815451324
71.406311487239
71.2034132087049
71.0329193470792
70.8606657002352
70.6438107926142
70.4745504592285
70.3016309461607
70.0867568933538
69.8973253399292
69.7338607726343
69.5527486577643
69.3496653915719
69.143174319255
68.9698643233726
68.8077936943601
68.6160844370016
68.4162237655851
68.2489953509933
68.1250981683898
67.9867283391168
67.818898742459
67.7148435716472
67.6565369766439
67.5990229221859
67.6032517978391
67.6245240387447
67.6305520486086
67.6988683532037
67.785069336487
67.8354937502748
67.9076841985107
68.0173124047702
68.1613973477554
68.3439076460859
68.5495839662018
68.8024845130795
69.0338082400086
69.2497104826102
69.5096140289809
69.8058397631374
70.1114161494766
70.3927087846925
70.6776744025778
70.9669560932214
71.2626247349267
71.514678569734
71.765249342634
72.0492956084216
72.3210036563297
72.550073243256
72.7290148476669
72.9141363886086
73.1016799264434
73.2701412224025
73.413401962806
73.5741430146661
73.750217143506
73.9298487269368
74.1071411867389
74.3031321109991
74.5315531356963
74.7840839343685
75.0228545632422
75.2510193662965
75.4825948019303
75.6787981372746
75.8627522526511
76.082256685861
76.3098564658325
76.4943338578609
76.653267473055
76.8021735455413
76.9803735681236
77.1751485463606
77.3614496823975
77.5114726809301
77.6521006453565
77.8116743383561
77.9743864782685
78.0887704541206
78.1942604385075
78.3385235939293
78.4614359355451
78.5377351856563
78.5926051982399
78.6694975021796
78.7496806782554
78.8290579884543
78.9193862610258
79.0344054543142
79.0933425121548
79.1345090336886
79.2158838989694
79.3267692236778
79.4276508355651
79.509734149843
79.5804509040102
79.621950057089
79.6449419555379
79.6867376678448
79.757905142078
79.8315433427763
79.8384767653196
79.8404169987097
79.8945878118125
79.9631971891285
79.9793262464885
79.9531014485604
79.9458473925823
79.9826635816316
80.0128372726514
79.9775454265036
79.9366713362271
79.9606963485186
79.9873401587845
79.9722479798767
79.9348317502507
79.8952746954864
79.8588930360876
79.8582655539076
79.8485128283244
79.8313828499946
79.8162070533991
79.794269437234
79.7250663820944
79.6279789590482
79.4944371775677
79.3676232663269
79.2799495909132
79.1580039989315
79.0124829334628
78.8659578782704
78.6823140564454
78.5537244398352
78.4748121127242
78.398122670988
78.3331580769814
78.1825526436681
78.0184163239753
77.9361101479334
77.7907243520085
77.6361276890478
77.4937496544426
77.3166451951516
77.1411892347419
76.9995724636704
76.8487289518166
76.6945511498469
76.5822180964852
76.494288514454
76.3825300464642
76.2530908909678
76.1653228565988
76.1050109069098
75.9902589247352
75.8703055949667
75.7888915024921
75.6825289393966
75.5283216645473
75.464273143543
75.4296427553526
75.3885412163062
75.3337825184203
75.2785073296187
75.2479292702729
75.2082628539329
75.1023264925324
75.0099950474192
74.9655795194986
74.9289102738951
74.8562348708682
74.7940936541423
74.7667544117532
74.742634767362
74.6510680914305
74.562195517769
74.4931147539966
74.4493013759925
74.3935015376491
74.3319684215132
74.2530055574137
74.196237891026
74.1406991284052
74.0590078772756
74.0152099272167
73.9633205682355
73.812423414714
73.6931349628092
73.5825494939707
73.4915666129511
73.348733435884
73.1865499671975
73.0778748807499
72.9885712930218
72.9099998830082
72.8150657321097
72.6469862659923
72.4903295828679
72.3808677831257
72.2673781971394
72.099091716973
71.9441165604404
71.7977964201319
71.645652159638
71.4900055062756
71.3572836898505
71.2171660062499
71.1081033465707
70.9837100338768
70.9585517936357
70.8953188423095
70.7463296932607
70.6383269347391
70.5802610139632
70.433213273747
70.299729224752
70.1700844294202
70.0430434132222
69.8647386980624
69.7756997029746
69.7179495385069
69.5439648863145
69.3071770124538
69.5606353272006
69.4320130660104
69.1085062846567
68.9359699306538
68.8315819499416
68.6954852809833
68.5785798584961
68.4575652010089
68.346017035847
68.2213236109886
