1798
3999.43349933624
650.420452594757
1
128
4
95.2008980928097
95.2031718282057
95.154701191237
95.1445849851813
95.1386454291493
95.2236170867305
95.2398856095046
95.2178505790026
95.2979904884379
95.3274557285715
95.256692182196
95.285437825842
95.1788267542635
95.1125959874257
95.1485590900469
95.1771771674994
95.1508353494067
95.1500199640677
95.2030757709589
95.3268864648673
95.3016679337135
95.2219348657907
95.1596353135703
95.1997357857942
95.1936660527462
95.1055127531033
95.1288933146249
95.2096481534048
95.1693011781068
95.1967303505693
95.1943445330074
95.1970937364671
95.2207852185219
95.3114915681165
95.2926569357147
95.18963384209
95.2401709634256
95.3405791515127
95.2579543412028
95.1924797033583
95.1969800825955
95.2836466060399
95.365846222573
95.2606285682393
95.1763473253151
95.2094783945547
95.1620888593869
95.1727366737619
95.23335022787
95.2421992779501
95.2669957759025
95.3518040279634
95.2656813635571
95.2300081935147
95.2769012636125
95.2562132245557
95.1244347155776
95.1801421602512
95.3134809445819
95.3073593201549
95.2872065729654
95.3298387037236
95.2882496319029
95.2545136396431
95.2437985832451
95.3534952123772
95.3922264701842
95.2763492860837
95.2023002432083
95.2637777057507
95.2335157145106
95.2328628714089
95.2114767230625
95.22539362855
95.2954206614162
95.3295273464867
95.2827879228589
95.1877991337472
95.2309962325818
95.3862912209137
95.5022578620052
95.564352864659
95.4767133681054
95.3905807860751
95.4317666821412
95.429114502096
95.2534851722226
95.319919709523
95.4476772729216
95.4216909009672
95.3758664614442
95.4486856107594
95.4524579857349
95.3828592980673
95.2777590886385
95.3059930855223
95.4362849371453
95.4355043630371
95.4808900397261
95.565569692297
95.5453594141023
95.5497190686258
95.5194673566708
95.4226155495872
95.3072933049994
95.3076729401442
95.4643100783599
95.6095169636032
95.6645489163056
95.5938744489454
95.5312809771743
95.5411713146898
95.4957152308475
95.5711470360722
95.6051395858965
95.5683930638019
95.5133336930337
95.5020291551433
95.4317138711367
95.4811029633596
95.5575746864609
95.6216540495072
95.5408472538125
95.407326847139
95.4839180690043
95.6102988735277
95.5610962458967
95.5826952546639
95.549550446529
95.4889890818005
95.5461500490926
95.6344052430002
95.4961202361554
95.3125846316848
95.3468278836133
95.4606038255493
95.4878341016466
95.5368474677922
95.5374176735763
95.6341809444403
95.744896352387
95.7369789094342
95.5258715840191
95.544678796015
95.6465504332281
95.7354112821929
95.7652201326965
95.6910815352606
95.6025413126901
95.550005717648
95.4996854856584
95.6430833181598
95.6996127098223
95.7250950077614
95.6936930140997
95.5536131646946
95.5755035649791
95.7233311641164
95.7568964169701
95.6899187613611
95.6503996453755
95.7473354673241
95.6962033781606
95.6716812323688
95.7225001587083
95.7019953297497
95.6507399955839
95.6585151936922
95.7428282581672
95.7995187379188
95.5782375969386
95.5422859100836
95.5015608917619
95.4225296900538
95.4665990484905
95.5538992428991
95.5088298002027
95.5720208011666
95.672022157612
95.707737906857
95.6572830275333
95.5804301580453
95.4596149100632
95.3260075303491
95.3212721911675
95.4197087780882
95.3862092444481
95.3846751410313
95.3578325851501
95.3449622896829
95.2709444299195
95.2121535870398
95.1954248971632
95.1085728333242
95.0196348272693
95.0008951864668
94.9162509924888
94.8201188951798
94.8032169338699
94.910824455999
94.9167147820508
94.8218097727419
94.7243420873787
94.6538412859369
94.6049976214628
94.7244685309174
94.7113918212288
94.5234562402956
94.4150126797951
94.4796327341888
94.4190491042194
94.3298381364694
94.2456113381479
94.1861672903319
94.1963223717252
94.1406126135658
93.9255826682378
93.970491249801
94.002930772724
94.0053906802263
93.8673367490207
93.8338419740756
93.825785859136
93.8001321378422
93.7019791953372
93.7059536943638
93.6059587887852
93.4837030039727
93.4835743444965
93.5496776363815
93.4487177734106
93.3913618015443
93.3456505595117
93.2088322294438
93.0341938094002
93.0048086877611
93.0965059439156
93.1566316376943
93.1007059080197
93.0488544994842
92.9378452631397
92.8187996057262
92.6749984513735
92.5467399287001
92.48683540498
92.4301418507618
92.3635594986596
92.3823794302122
92.3393495319945
92.3601418479825
92.502964158197
92.4601432715112
92.1659111421181
92.046611737658
92.0439089607147
91.9905211065815
91.9414203407726
92.0290109907794
91.9602286404695
91.7952718760802
91.7099332639075
91.6753014642289
91.5950078148199
91.5918720627687
91.57971195374
91.5071897804533
91.3673930443777
91.3739056692391
91.211461317418
91.0763179077811
91.1197462324051
91.2272476043855
91.1799787057432
91.0532718496456
90.9843388099799
90.9907300776839
90.8312684757183
90.8049959511256
90.7624862526495
90.7442214979449
90.5618827977041
90.3816289624261
90.4119777531936
90.4321945527455
90.3113190996135
90.4158818235735
90.4544758439071
90.2565029790044
90.0714936471895
90.1917677346322
90.0856022898501
89.9681806787288
89.9234242693488
89.8423502073634
89.8606732765072
89.9043348250656
89.8611697443183
89.8445045892165
89.6525749596486
89.6261605533105
89.6485773004015
89.5927578990745
89.4217833842729
89.3130337084745
89.2981713750615
89.2284010734673
89.0646178259174
89.1899028247594
89.2183808923658
89.1703854408778
89.0528509228127
89.0662980481526
89.0221091163853
88.989688499072
88.9182493377271
88.8819225191708
88.9363546256933
88.8589414197936
88.7464769387877
88.6913143866085
88.5341322809358
88.4974909915259
88.4391073992567
88.404899322974
88.5147025994652
88.4936326578539
88.3717246292826
88.3803087935457
88.3628630617349
88.2653620707465
88.2011353620333
88.2607356903952
88.3526371787274
88.324510518892
88.1357293588349
88.0679876048911
88.0120542240233
87.9666828749518
87.9760701584584
88.0265549392522
88.0202969579512
88.038741150616
87.9740946190207
87.972870679504
87.9333652042295
87.8401825540476
87.7663277021142
87.8136837845539
87.8269436972391
87.8175896337115
87.7870972472315
87.7980452358972
87.6835243092329
87.6108634991379
87.5594433713204
87.5877490405694
87.6585527940114
87.8019695593718
87.835631532873
87.7516071604919
87.6796169131177
87.7001128332128
87.6422779764252
87.6065097130076
87.5449739935985
87.5342154674999
87.5603235937045
87.581674886846
87.5304533256903
87.4646744681123
87.4649142556939
87.5176192768486
87.6024431837356
87.6535375514741
87.5385311166716
87.5191835987633
87.5069197771864
87.4583002374732
87.4764892628142
87.5636781425813
87.5609840069513
87.5263230111499
87.4608372680382
87.4317275208452
87.4377777251467
87.5010608017758
87.5346944833569
87.5375055334522
87.5397927766109
87.528290301622
87.4911925077974
87.4677001699854
87.338596552489
87.3159050620389
87.4031919115386
87.4141334599255
87.3792880937464
87.3794519320885
87.3025417721432
87.3878158153562
87.4084028007745
87.3287217460952
87.2825631183932
87.4039239258035
87.5064998741655
87.4965957235344
87.4697492952773
87.5325608252007
87.516074134398
87.4944083446721
87.4840200390079
87.4374572212466
87.4704562491994
87.5444606001867
87.4798411187483
87.408428912804
87.3136688482568
87.3470443839296
87.4383747767652
87.510966861925
87.5369221825234
87.537548177788
87.5388044997958
87.5791879591872
87.5682288656432
87.5632245023341
87.6119964164826
87.6805438566709
87.6702256552698
87.7213227432542
87.6811878132898
87.6046998310903
87.5748319994622
87.617771207945
87.6481822372217
87.6838110255063
87.7825196232168
87.89691623653
87.8616063549973
87.8418006756659
87.8579443940094
87.917267215497
87.9303246167778
87.9598422965695
87.934681518434
87.9503980357051
87.9330370808777
87.9948658280737
88.1312029374778
88.1506996811743
88.1015185187629
88.1683272897027
88.2245448968795
88.1438494244828
88.1886489580737
88.3442478553255
88.4368289889079
88.3360408688009
88.2600264936793
88.3407350529604
88.4041110839522
88.494966470202
88.46146217896
88.4839750395887
88.5261436365475
88.5461238109486
88.4996149640598
88.5120516501811
88.6009835693523
88.6130566127216
88.6602348669939
88.8149324649432
88.8558660859755
88.8684914320834
88.852763681153
88.8083878801015
88.7813628934751
88.8353382257646
88.9003944039832
88.9670138867664
88.9417023867789
88.9439964153149
88.9290564422352
88.9768808739301
89.036456514317
89.0687635363328
89.1270548583877
89.1668246859514
89.1534637548508
89.22634125257
89.2390718648504
89.2671130898467
89.2783906312471
89.3893320528097
89.398966295129
89.3392741872349
89.2945987471382
89.3745953585435
89.3799253460921
89.4129049990638
89.4645110708901
89.4829216850979
89.4932130774633
89.5191463334338
89.4588619036813
89.4831387778551
89.5442145579114
89.5655050027807
89.604644964711
89.6815160330815
89.7178752383884
89.7387276179976
89.6841323616501
89.736009649064
89.8319135223105
89.8654926205793
89.8557552759298
89.894915966255
89.8744972417456
89.9365105399252
90.0188795059168
90.0350473354612
90.0194831768915
90.0018764941359
90.0164503780553
90.0913949058855
90.0839497669744
90.1128548413722
90.1254716857299
90.1329481061315
90.186778057789
90.2378954287112
90.1881819310311
90.1902294940487
90.2324744458694
90.2302392463541
90.1757332181049
90.2587076284655
90.2630431699838
90.2042038466607
90.1954761240112
90.1936838418159
90.1790620006136
90.203001625758
90.1533356556663
90.0915271997838
90.143179936355
90.2207517758347
90.1774299234502
90.0757742566146
90.0042586088073
89.9997212487573
89.9839891570241
90.0353697121803
90.0400197089482
89.9722870483549
89.8929189429507
89.9450292660803
89.9596911086943
89.9435923103881
89.9225525048032
89.9538940039252
89.9453468414918
89.8859980255772
89.850018744577
89.8823841463534
89.8877266825306
89.8340029883758
89.7888825807133
89.7858726362436
89.7392985361075
89.6972685832372
89.7169784397038
89.7774515044422
89.7964723019496
89.7968936182005
89.8236431052664
89.8793518095356
89.8839270114216
89.8950372950518
89.9159668469909
89.9859115246271
89.9907121659497
90.0075509597478
90.0129951253827
90.0733302588131
90.1368456744539
90.1799993393038
90.2020619817764
90.1890932776218
90.2060849490221
90.2913405567352
90.3861540606754
90.3745628942796
90.3578522407406
90.4274219345058
90.432722533846
90.3957227640257
90.397989964762
90.4632211047765
90.4985004385293
90.4920345439311
90.4712344590591
90.5069842925361
90.5422507759566
90.5599458869506
90.6024669836407
90.6769625547125
90.6700231164671
90.6425776400037
90.656783796185
90.7586370363396
90.7794573372469
90.7687057469599
90.7786098782277
90.8436724766858
90.8689699895479
90.8885755410784
90.9358005963995
90.9547257997903
91.008411987109
91.0771772848857
91.1229160539445
91.1793252767557
91.2397885234313
91.2268825155981
91.2114584366188
91.2031789415663
91.2375032298492
91.2854177449219
91.2734590284953
91.296753498085
91.3035279454495
91.3532930408237
91.4127710084795
91.4295132355511
91.4415296172259
91.437256660281
91.4781477173619
91.5526805587148
91.5517113051754
91.5537668835079
91.5578784477321
91.5533935248972
91.5508395430314
91.5993480756833
91.6770858329511
91.7065506207933
91.7031932151649
91.722635135966
91.7263544510083
91.7412510299424
91.7444181939045
91.7339641363377
91.7640231125376
91.8102379930611
91.825521661469
91.8591787760243
91.861090674628
91.8666560905355
91.8638481973606
91.9209798840393
91.986370251482
91.9944820009464
91.9648671537546
91.9587640031557
91.9849131758236
91.9563900418871
91.9151418607311
91.9682480098794
92.0518214458453
92.1146646997353
92.1140819949616
92.0893171608932
92.0525901047029
92.0354292314264
92.0906021573383
92.142979560185
92.1522743722668
92.1385819681161
92.1380825272619
92.158126427187
92.1600268159156
92.2326090927551
92.2921649972023
92.2595426627183
92.1969163256805
92.2099365423653
92.2339476263976
92.2646505746376
92.3252375043894
92.3635440183658
92.3383747447377
92.3446325480479
92.3946551629076
92.3807727239108
92.3478833617217
92.3681505388452
92.4357448803232
92.4674529472878
92.4487596313718
92.4276516026317
92.4286189516161
92.4450706568603
92.4536667805624
92.4879356470333
92.5146132687046
92.5260837011776
92.5486885967664
92.5661476901423
92.5514092454267
92.5580342281896
92.546634085903
92.5543338039396
92.5824407743735
92.5900302407616
92.6220200991804
92.600397862906
92.5625722626636
92.5877177936489
92.6096497137011
92.5962515456954
92.6115261875437
92.6149657477556
92.6462846981941
92.6637699246173
92.6227775755748
92.6594437387711
92.7002894168955
92.7170173731302
92.711993448834
92.7550919772726
92.7662539025873
92.766780018431
92.8022065597525
92.8308125422101
92.8323895475099
92.8621078127405
92.9221256456122
92.9094793217084
92.9427502508772
92.9885761052383
92.9736760469195
93.0346017435279
93.0708215836575
93.1254262042974
93.1026473722913
93.0523446844558
93.1008381411429
93.1800413907837
93.1837424700961
93.1270635916139
93.135628189226
93.2297705025843
93.2465862948963
93.3200376331735
93.3119623866823
93.2606444428052
93.3426659469913
93.3469157986288
93.2775889002034
93.3183484661297
93.3912393032435
93.3911360073105
93.4616665118444
93.5218941696905
93.4144510609247
93.4588492549849
93.5737337935525
93.4744991215717
93.3719463127468
93.3984530912644
93.5178914183724
93.6105379165456
93.6188705358425
93.5997180428042
93.5474761752216
93.5795180105396
93.5738321482044
93.5938699377825
93.6257766277712
93.633986555843
93.6782241001439
93.6106101724655
93.5814332974052
93.6669541048384
93.7447933512258
93.7798786180203
93.723581044702
93.7109503306772
93.7624768626528
93.8057860238494
93.8118699983682
93.8460946804539
93.8537740790746
93.7678727484318
93.7543922146474
93.8105069376674
93.8051455503199
93.7359447848388
93.8142129351662
93.8996555998699
93.8963467094381
93.8502828437292
93.7791991291328
93.7964274957117
93.8656911413045
93.834082992504
93.84844411085
93.880486989194
93.7817195626526
93.8297432924611
93.8821210352306
93.8691140054132
93.9415876532973
94.0074844153289
93.9619354038316
93.8487431419102
93.8477888229991
93.9350600103394
93.9443071496267
93.9586394737999
93.9885031668814
93.9196708755994
93.8595176645715
93.9405379103499
93.969554787475
93.990286043683
93.9956807524289
93.9180721686058
93.9236442506526
93.9997212814544
93.9703006690655
93.9381463863691
93.9855894272337
94.0098105041951
93.9905971466792
93.9880285129491
93.9972276096357
94.0816667122247
94.1515612156796
94.1997738578631
94.1633273120381
94.0300114743569
94.0154545446173
93.9841845878698
93.9709837013104
94.0519962023133
94.0995184670284
94.0595856581964
94.0117874315761
94.0496122034253
94.0782419498931
94.1489439598072
94.1981193014779
94.1599454321532
94.1274598320993
94.1296965979057
94.0931861823752
94.0430104012653
94.0338630867497
94.005448724431
94.0116164865241
94.06019388941
94.0654863916762
94.0463715704091
94.0847862285926
94.0702214031417
94.0197137819184
94.0295661071873
93.9801061277304
93.9637634861107
93.9920924078556
93.9923020306842
94.0770380614087
94.1179091691733
94.013959934269
94.0215578893279
94.2082444296413
94.4061351374302
94.4098063353649
94.3151125296541
94.2516070314874
94.272696611702
94.3088707171907
94.2394877237787
94.1573296880938
94.0346258394578
93.9549695606412
94.0281834718608
94.1393234032126
94.1776815749514
94.2282998440812
94.2189108370935
94.1377750294002
94.1091164726956
94.1528549405674
94.1754634589169
94.1357929321654
94.0527072984553
93.9903458931225
93.9685476048355
94.0721221500332
94.1788475549427
94.1565459355038
94.1497255785607
94.1798090234896
94.1691307690942
94.1741952245717
94.1379143110192
94.2013157929232
94.2434020687537
94.2623489289574
94.2715072240641
94.2870761020467
94.2669814965288
94.1749545808202
94.1663732196806
94.2790243930565
94.25590169759
94.2903880489467
94.341371567083
94.4131048382196
94.4826482841122
94.5101385628216
94.5367289090445
94.7230109123305
94.8609643046171
94.8955865040674
94.9293141838474
94.9896856303034
94.9121018670174
94.8353581602806
94.9018294144677
94.9882853426124
95.0177190673963
95.1228611007318
95.2582707488295
95.1174267680595
94.9518043626061
95.095041395152
95.3147924302251
95.3701475927624
95.3301295538015
95.4308540066537
95.5177301112689
95.4001376566016
95.2977554824171
95.3270170956776
95.4774948705917
95.6189077964413
95.5781323290902
95.6752700419759
95.8186550816625
95.734577596907
95.6014343594901
95.5994167631643
95.700394935862
95.9650047405072
96.1634473509861
96.1523754187034
95.8382859883184
95.963547629947
96.1359548528972
96.1157114013053
96.2768799993445
96.083803424182
95.9282383008274
95.969452159276
95.9732333598838
96.1863012372292
96.4575144318028
96.7727263175274
96.9224391022027
96.7035318820961
96.3935512243991
96.486329989484
96.5438410402982
96.656521578719
96.9200015510933
96.9504011801284
96.8523834397446
97.0909125028936
97.4318064248875
97.4127341495635
97.2147026309487
97.4131915255313
97.525861869766
97.5322865749153
97.9237293124989
98.2600283130065
97.5348190119309
97.1146174285753
97.238062195025
96.9031956472775
96.6279710181978
96.9744564100082
97.0574165484574
96.6354303365609
96.5133616055068
96.4681460810226
96.2082276862635
96.1222898452587
96.0340781971207
95.8062254931503
95.6134614885311
95.5988182203226
95.6714017232778
95.706264161516
95.6177382745537
95.557044276681
95.4824507570391
95.5791038955492
95.6774222161592
95.7008331238801
95.7588991524044
95.7653976744347
95.725040501318
95.7202579365368
95.790406823652
95.8501262892903
95.6910352704493
95.6458791362342
95.6780764301541
95.7349973527257
95.828788391622
95.8181014743884
95.6722464206101
95.6805946510908
95.8363837941567
95.9472069486379
96.1120827357999
96.2177477843046
96.0218451792493
95.9917073032507
96.0600018306973
96.1711481656764
96.1295387163414
96.1688501527812
96.2612740446772
96.2811804201571
96.2760755121584
96.4585865893433
96.6033129118417
96.7492920954804
96.9100123403276
96.8543457220877
96.765580134022
96.9614251540452
97.1451466312385
97.4326805896122
97.6795538531286
97.6592092836088
97.8429040257998
97.8665074356779
97.6696660250679
97.8604968286114
97.825398677649
98.0071815793109
98.0885782630108
97.8657450452859
97.7457127085661
97.7289577943858
97.7238982846913
97.7577206542521
97.6854412406872
97.3479496683849
97.3745830376107
97.5059403466489
97.1917836409658
97.4172233618874
97.7016343590616
97.5412503106372
97.3484242714693
97.1977753205445
97.3055605195022
97.414478268591
97.255198465044
97.2718831883932
97.4930525965032
97.6481610219253
97.3922536132938
97.2993013835614
97.4589208291625
97.8790654877771
98.2051924516419
98.0830559045037
97.6499971107871
97.5024528983533
97.58175506609
97.7469532605853
97.7605147929647
97.5176784228585
97.0153444140294
96.870689043124
96.8591164577707
96.9869681642542
97.0590610105235
96.8628592459836
96.7246670263987
96.9097282345453
96.9147016404971
96.9070102447652
96.9511737814906
96.8713667971372
96.6555143740346
96.4683036060599
96.4406854341906
96.473226683997
96.2642420707474
96.1682613950059
96.2815855213586
96.4385841545663
96.3198423871468
96.143276105663
96.1076453655794
96.1366624809969
96.1346124688411
96.1552392332765
96.113846310338
96.1385299176807
96.1482525147334
96.0912357765732
96.158121478587
96.1345976254877
95.9993190733303
95.9983725488525
96.0298580644118
96.0682911756304
96.1360378324823
96.1305300378947
96.0633597522076
96.100138053054
96.0895942577298
96.0459449876322
96.0184259711183
95.9383963584884
95.8953176871549
95.9629710243563
96.1080054195194
96.1559773715724
96.0558597358368
96.0389049083627
95.9556030964833
95.9698237552923
96.0382798788984
96.0550814649684
96.0497813276657
96.0547672298224
96.0339720885162
96.0418972659552
96.0110861213821
96.0520839292667
96.0499299197328
95.9977523514136
95.923130550154
95.9419577076626
96.0764370309663
96.1162832615617
96.009126825377
95.9773932620418
96.0313630262458
96.0943663004027
96.0537397811976
96.0413543081527
96.0814436358934
96.0643564936431
96.0792596881967
96.1517299377165
96.1711217419007
96.163517588906
96.0986218058751
96.0671844522174
96.0635254287284
96.0783856042043
96.0554980399303
96.0357558955186
96.0326342702587
95.9999385064521
95.9580718337085
95.9644753861675
95.9607525893382
95.9639185488195
95.9248046645608
95.860257983296
95.8314523016963
95.7935484763806
95.7185875155291
95.6881311465047
95.66193877511
95.5631746823776
95.4881229005238
95.4498492254902
95.3564924836551
95.2459897517878
95.2018911165631
95.1611013780066
95.0723111664564
95.0686795938277
94.989673240673
94.8326236268455
94.761388647105
94.7345583208577
94.6291214109451
94.5977518168288
94.5657107701755
94.4911131508539
94.409384652194
94.3753493076532
94.3267341064038
94.2814609609932
94.2109304422882
94.1591444637188
94.1583876339919
94.0655398273393
93.8476825361996
93.8117713350764
93.7731240565355
93.6699586958518
93.5781659695084
93.4171459280997
93.2230107267766
93.1024509438328
92.9001497165735
92.6956782745728
92.5594211537778
92.4323927006929
92.3056038265845
92.1231233333445
91.8746175724395
91.6587548655082
91.4531933264988
91.2471310920773
90.9802072765409
90.8472412321319
90.6605392996454
90.398143012572
90.2730553311421
90.0619555896888
89.8161988149762
89.608513082042
89.2627899117117
88.8189918872122
88.6376511345176
88.5952627217732
88.4134025442717
88.1098282725623
87.7652192673892
87.5353455785587
87.2396215334378
86.9158612849729
86.732260908423
86.5272450031052
86.1803010679207
85.8715139499283
85.699461904733
85.5127284689912
85.2064197708825
84.715467747816
84.300745366553
84.4354797383128
84.3077959001524
83.9764279163675
83.7551933359713
83.6086982788147
83.3433951224377
83.0614727121203
82.6598868886855
82.2213821439939
82.1305586181522
82.1248993809906
81.8726120848969
81.5367408229231
81.2059688950617
80.9159273422954
80.6765622309883
80.5258318075544
80.2659976650975
79.8974625425884
79.6762679697929
79.5521071250371
79.2924989949209
78.9959106263863
78.7175910357517
78.4672192882557
78.1881851486722
77.9425564629966
77.7424688105788
77.5415209125096
77.2661205071662
77.0318880811036
76.8379180825979
76.64798489619
76.4730088496648
76.3689187571458
76.2113336144373
76.0061233508794
75.8498684760926
75.7728706287488
75.5478877087181
75.3067909353804
75.4492578896201
75.5716820165821
75.3650042516318
75.2882012563741
75.3963044547398
75.4223609432701
75.4360794946464
75.2394116933794
74.7299180388615
75.267762078426
76.0678504449593
76.3144145579045
76.4395936722712
76.5373303626369
76.7625268189638
77.0049258622527
77.1428082336793
77.2629258992638
77.3341727494861
78.0995353005885
79.0895350217312
79.3150248354679
79.3677402589477
79.8492183337708
80.1872031451539
80.3236634486306
80.5483022014563
80.8389253054092
80.9111247199904
81.294743220158
81.7742290785173
81.9673360417709
82.3047341903488
82.5338791467253
82.6569980437355
82.5997975679487
82.3727948763089
83.0951341964473
83.9407941202806
84.1167430727473
84.0693667391543
84.0317971761328
84.2427871602039
84.6661409287416
84.7919136125773
84.6935354130747
84.8709391259793
85.1690035631777
85.3929474573938
85.4671383111212
85.4770427331563
85.528761351966
85.5103046978858
85.4365441657044
85.2898339228154
85.2335065819433
85.4302037224025
85.3653721006516
85.0428046817986
84.7654461280594
84.7404102884424
84.5878827024494
84.1569388787917
83.7621790256823
83.9414145747721
84.0048423807803
83.7819462105934
83.496461408269
83.2572787051325
83.1534248333005
83.0234234799729
82.8649410658422
82.6791644733428
82.3710701417916
82.0824962273246
82.1111885277841
82.017492523874
81.7015683795033
81.4316206461874
81.2156362994233
80.9278065242915
80.6340516750206
80.3182081673052
79.8668518888283
79.6075742191004
79.5089173699163
79.2155261855795
78.8413351580909
78.4944658594423
78.201763519297
77.9076652141055
77.6382792257711
77.486723716313
77.2944236617029
77.0489178575765
76.9171285044949
76.7868277592773
76.7413380920597
76.7734564427031
76.6861501942307
76.5399783975837
76.5404838116243
76.6391578400963
76.6527756898054
76.6371633958048
76.6827312550215
76.7301712185296
76.7261237899775
76.8613098057906
77.0823263003647
77.1897883644332
77.3119819622637
77.4655232833126
77.5343284804354
77.6820629969397
77.9621221116387
78.1813933342112
78.3216143448203
78.4858601670884
78.6713090058417
78.8452844703789
79.0328691480635
79.230610256227
79.4379815746722
79.6122145072318
79.737171759658
79.8771511433138
80.0965837736918
80.3116452647208
80.4838041022839
80.5942537259047
80.697402724662
80.8163886365544
80.9253303900216
81.0286504546287
81.1113114547552
81.1605392044603
81.2102798400687
81.2984385414262
81.3798057907364
81.4265634942428
81.5072229775382
81.6081743947503
81.6937256810201
81.7654748129382
81.8206570787146
81.8783470245001
81.9715014511368
82.0820322085419
82.1704425024243
82.2489253778476
82.3370357170555
82.4243370869504
82.5013584591008
82.5859871440017
82.6808707512153
82.7660293248889
82.8268495950722
82.8731517097549
82.9009440441819
82.9092296606142
82.9445143756339
82.9861930233463
83.0256292969833
83.0483213154218
83.0677160884979
83.0634354853936
83.0737065891587
83.0973313777597
83.1227004721968
83.1472136955221
83.1658403754566
83.2064663444579
83.26657361632
83.2969460257329
83.3172091905849
83.3306059037471
83.3451792392608
83.364147375656
83.3872088913662
83.4148309493994
83.4160209669616
83.4121133806457
83.4276960120543
83.4586281281874
83.4918923940007
83.5016108501046
83.4918848097876
83.5121287821244
83.5611385270833
83.5976711369826
83.6309463326777
83.6771686392971
83.7386400085898
83.801636948768
83.862852904125
83.9237320861599
84.0074764716748
84.0586479499873
84.1222186926681
84.2020326420329
84.2601234450174
84.334739369866
84.4216775286559
84.4800117909643
84.5392253484238
84.6093938988218
84.6622591160347
84.6967249140998
84.7409972241908
84.7691517775835
84.7830142276742
84.7786963338524
84.7691025563575
84.7459414919572
84.7081924025493
84.6586600945346
84.6105123098121
84.5764606638424
84.53018739724
84.4728369552704
84.4329919183609
84.3870103681711
84.3030746416378
84.2104479085443
84.1518562228216
84.0891542223954
84.0077325286653
83.9379906644937
83.8461738119487
83.7539388433143
83.6899941669065
83.6093511510011
83.51233370801
83.3729252218971
83.2265684833138
83.1099805323007
82.997674284843
82.8775082844191
82.7653664714247
82.6680142469746
82.5475145231723
82.428704851327
82.3286418678191
82.2117875732531
82.1168984478507
82.0374676215838
81.9658714656345
81.8811464507731
81.7641420995015
81.6291444334092
81.4925195600978
81.3604415396669
81.2275520527301
81.0814289645421
80.8998708794365
80.7101807884917
80.5550495611122
80.382465638641
80.2096388234331
80.0597156440406
79.9045107918207
79.7323203209292
79.5758921950731
79.4125366502979
79.2472611461751
79.1112647395842
78.9418981183614
78.7654567124192
78.6193295071166
78.4878722050726
78.3390666304169
78.1737221163418
78.0267808102302
77.8941488161975
77.736996363806
77.5575023497842
77.3969229735168
77.2265997800551
77.0879403779557
76.9737217770235
76.8460681247153
76.7194020373584
76.600756279385
76.4817658928434
76.4054766506838
76.3517956695976
76.3271666678964
76.292403697051
76.2746138264129
76.2868215854535
76.2938809663568
76.3100580312726
76.3541102611835
76.4220025878778
76.4959001210033
76.5776222215584
76.6820066798168
76.7972090922453
76.9239396027877
77.0873522353363
77.2638674234866
77.4206008026657
77.6252233203463
77.8458570158029
78.0434575405692
78.1965026349014
78.3690848596376
78.5854089252622
78.7872799721129
78.9758404363481
79.1572350525372
79.320377356536
79.4899798475183
79.6398025992277
79.7838212842915
79.9005300114723
80.0323416912505
80.1944568246126
80.3237800344206
80.4495311213603
80.606084220088
80.7396434986404
80.868739828194
81.034500348432
81.1958118900803
81.3470537257222
81.4815119399297
81.6085185716315
81.7814247271936
81.9314532214237
82.0808492820965
82.1872456941045
82.2848502652159
82.4261527847878
82.5877690603748
82.7207851014491
82.8188625789815
82.9195592045641
83.05209476221
83.1774271595961
83.2773666991682
83.348116335441
83.4495601546633
83.5974001482296
83.7322824259833
83.7837664509906
83.8183656955373
83.8797177968568
83.9818026900788
84.0412761436017
84.112288728006
84.1650824152049
84.1850131002828
84.2568550937247
84.3424889061478
84.3910268090803
84.479958844605
84.5938231105873
84.6391919274339
84.6600036466139
84.7085990161136
84.7561033150461
84.8114853405219
84.8646575026589
84.9077170262136
84.9361420128879
84.9264196486728
84.9513398676147
85.003671286514
85.0476543973781
85.061967480049
85.0185136384079
85.0044980350235
84.9839584354367
84.9582675947704
84.9364577622078
84.910638002978
84.8981960234645
84.8854569102213
84.8447031191135
84.8196967630868
84.8346203483683
84.8681374533301
84.8943416390938
84.8701668132614
84.8314084435845
84.8397906689744
84.8518706047412
84.8462773951029
84.8120016443193
84.7025945833968
84.5958705192789
84.5335389944047
84.4628453331263
84.3434126056485
84.222262170649
84.1333582488493
84.043028577735
83.9716690413278
83.9410452698524
83.9146012526927
83.7950581011126
83.7027966983217
83.6251852286959
83.576281516766
83.5038246025814
83.4076402879748
83.276430333355
83.1266958239086
82.9929768249415
82.8990470589292
82.8022686398328
82.7345210625081
82.6974486176558
82.6372975774237
82.5648750695756
82.4878632789469
82.4028929167216
82.3369522090745
82.2705035418561
82.21890197471
82.1631985348076
82.1278454387887
82.0708035251996
82.0264081090451
82.0133024618468
82.0196663283572
81.9905277423051
81.9708226143953
81.9311691355677
81.8916104490168
81.8351344281173
81.792390282998
81.776035076246
81.7412185058977
81.6565672844502
81.6164847712281
81.5713280437387
81.5700432571963
81.5669609640708
81.5304431212014
81.4751339313016
81.4612595971555
81.424941552129
81.3599521747812
81.2846237604699
81.2445784160912
81.1896056167838
81.1704239376707
81.1256871281321
81.0610219797175
80.9956503356921
80.8917943679395
80.7725612673029
80.7234578432381
80.6629971033107
80.5704927315792
80.4580325366426
80.3822668055138
80.3156288306319
80.211042986347
80.0794127224547
80.0134390484882
79.9235829100628
79.785067906994
79.6798903652239
79.636948266043
79.5473705544502
79.4302158335657
79.3277817618343
79.2728592581431
79.1802536316765
79.0491723262276
78.957085976025
78.8810266549634
78.7743739302472
78.7492978754021
78.6900196710478
78.5545803663865
78.4589267609342
78.407521041368
78.2993477531411
78.3086065495119
78.2680662234607
78.05352517544
77.7708202800127
78.0054110622869
78.0298488202806
77.7856795599138
77.6593259005375
77.5278562302497
77.3873020421012
77.3051769324635
77.2285327003337
77.1671338741776
77.0644234859095
