1798
3999.43349933624
650.420452594757
1
128
4
93.1610633741937
93.2356751688084
93.3346963451971
93.3108178144189
93.1891139476952
93.2665899762171
93.326060796886
93.3218112915665
93.3656377670031
93.3622771641733
93.2504879257725
93.2513579179472
93.2426974969904
93.211981113624
93.234518542547
93.2963651169679
93.2461281844706
93.2870621227029
93.3372004282053
93.3688326545725
93.3558130508499
93.3558719113967
93.3546037747386
93.3505916971674
93.3162815709661
93.3367490759607
93.3940348759811
93.4169738430312
93.3796766980462
93.341265722019
93.2262847715323
93.2545054854633
93.3312414443711
93.4792941124544
93.4682088878232
93.4128161797717
93.3392993716784
93.4344171081377
93.5710062373867
93.5266022090982
93.3836413839801
93.4416254375204
93.4060831218023
93.4020467032935
93.4661212874632
93.5252112445293
93.5457299421348
93.550557994304
93.4963575201762
93.4774153115222
93.301959448796
93.2658704501187
93.4201380793082
93.5732077523403
93.6274284608303
93.6080119972665
93.5015711114258
93.4733005630879
93.5046079554831
93.5302182546278
93.4634994203227
93.5188570660945
93.5198756010906
93.5386968046887
93.6318998105387
93.7421787733932
93.685733042103
93.5531045238103
93.4748680408071
93.5027465893974
93.4926734779893
93.56208985562
93.5411732213599
93.6454707931869
93.7844923396572
93.7378381733594
93.6058180703805
93.5330976787431
93.4590884764727
93.5085825449323
93.7388883110584
93.887342599676
93.856429892023
93.733013503421
93.5171169171382
93.4421914065547
93.5756515217374
93.7736237094483
93.7306267459097
93.7006944862056
93.6775266611484
93.7701107750786
93.8778626608285
93.7991984717348
93.6134705301124
93.5826080431423
93.6483376116762
93.7220721086905
93.7247175032816
93.8552551510113
93.8659064418131
93.8467286455927
93.7985381107732
93.7054842528959
93.6017674752878
93.6186821090169
93.6895313035982
93.7792114428238
93.7930045682777
93.8433374981446
93.91620097724
93.9365646036939
93.9510066001541
93.9853798286098
93.8655077687498
93.8293819969414
93.7952844734256
93.798527963541
93.8622753961311
93.8698496531722
93.8652190799842
93.952292334496
93.879292050241
93.977495224208
94.0019359866242
93.9115149650608
93.8681432990152
93.9991058372026
93.9503436544136
93.877686949258
93.878025706479
93.8524116031175
93.8657293335554
93.9203282584325
93.9425996250194
93.9869701627531
93.841539467311
93.8637354982261
93.9262269932391
94.0557471072381
94.0571759684696
94.0230677441726
93.8082816118103
93.8619055666824
94.0630023805342
94.1395619940349
94.1044822435386
94.1930640013339
94.1156669548815
93.8873096558552
93.9186727497222
94.1304635905307
94.1673083847308
94.1470446215538
94.0002166818331
93.9276585819496
94.0478113164763
94.2401099277316
94.277851260922
94.1766441293217
94.0723514053494
94.11570784222
94.0947606320019
94.2035763893492
94.2028514623697
93.9996750340786
93.8778020796862
94.0201837106616
94.0762895122273
94.1745412431167
94.0567676855875
94.0112664749312
94.0310445821532
93.9986172611513
93.8174359417658
93.7296954877693
93.7225888987685
93.7250593977448
93.6829419087216
93.7417237552798
93.7239104414258
93.7110191585079
93.7225795754659
93.6523733764272
93.4875718911257
93.4086799594771
93.2606617111035
93.2238975650691
93.0078479234692
92.9289189898208
92.9956649382635
93.0409008696256
92.9130973435475
92.8598289062688
92.8566146998642
92.8129224240501
92.6550552465496
92.5017033092149
92.2267046421433
92.1133843103883
92.1361069968836
92.1903805072383
92.1190133289643
91.982782930949
91.6838730909153
91.6322160511517
91.6767962506932
91.6704023186464
91.5682509296858
91.3632309871583
91.1244813070645
91.0492530494748
90.9293548634922
90.8931900357606
90.8001436867361
90.7339146177612
90.6226542972013
90.489502658366
90.395118809142
90.3877521473642
90.1828285879046
90.0464619147921
89.9286130456843
89.8928398723567
89.7873026092221
89.7983770060196
89.7245410901707
89.5262970031624
89.3043859988681
89.2573956289484
89.2192550412121
89.1540867155909
88.8874385798608
88.7585933105005
88.8325682287483
88.8041993535393
88.5867146688732
88.4536888803777
88.2793216539216
88.1567192669919
88.0191925824896
88.0113122993771
87.935327727205
87.855299302902
87.7461881528074
87.6002529647831
87.4368823147915
87.3825725001701
87.2119937566299
87.1421962472306
87.1546818282187
87.1088455092318
86.8794669148359
86.8291587726168
86.7129413570465
86.5526350171636
86.4721802523872
86.3625071569832
86.2345490483815
86.2541223365349
86.152084650595
86.0497781053773
85.9606751978739
85.7567634715667
85.6244738166358
85.5896146655319
85.4313220489496
85.3565932979719
85.308932101895
85.2795035916075
85.1049161914899
84.965666983707
84.8303003127259
84.7440169189393
84.6434964370593
84.5528965215284
84.4378576453572
84.3672152279217
84.1746201094226
84.1212220708073
84.0981457575728
84.0337646544152
83.846607806676
83.7683946641225
83.6831189189066
83.5588785680635
83.4244650753754
83.4717624339479
83.3953806348726
83.3310337133643
83.217811283116
83.0905057369422
82.9558190454783
82.8999307620792
82.7737924389499
82.7516852976441
82.6819115936121
82.544141165393
82.3488757328832
82.2270645288988
82.2450401497752
82.3385965659432
82.2695986792612
82.0906021941067
81.8525832717989
81.8055103975499
81.8430064480608
81.8049084784005
81.5944182718954
81.5444948952807
81.4764773617751
81.4251112505059
81.3997771200645
81.4086418546949
81.2596754354388
81.1514366021797
81.0520951812727
80.977156942457
80.8794731964146
80.7949001188024
80.6872546866488
80.702428835712
80.635315960686
80.5393119467808
80.4631895521734
80.4658399403766
80.3629683987142
80.2951135377087
80.259054154502
80.3051864800433
80.2202343700524
80.201015793643
80.0523875309652
79.9367305987551
79.8922141400253
79.9275683396136
79.9085413245038
79.8295869798136
79.7747116612337
79.7963265985089
79.6685099446127
79.6179480937574
79.5562171554903
79.5640603326401
79.507665524175
79.4828137385733
79.3997279052575
79.4356206100506
79.4476390256421
79.4225993425885
79.3585025549118
79.4253959012345
79.3415004997348
79.2984723771627
79.2491020143125
79.295982701823
79.2639245233008
79.2169984215699
79.2453943461738
79.3186378649594
79.2453102008214
79.2322288584478
79.1695489455005
79.1538985453071
79.1299679576773
79.0464975751908
78.9002911517388
78.9196683002767
78.9589803791342
79.0122255409964
79.0328587885619
79.1244252039125
79.1748187397978
79.0840211740845
78.963152290312
78.9919197484823
78.9867018081893
78.9571977300028
78.9309446434037
79.0599335466225
79.0125231321189
78.9205921220378
78.8654460761637
78.906116170218
78.8523274770369
78.8483023515645
78.8120252700695
78.8584438709492
78.8659244428057
78.8881473745062
78.9051141811394
78.9288340442967
78.8397540241695
78.8707449469462
78.9052870438196
78.8850432313719
78.8339805439138
78.9084596826809
78.8854950219798
78.8081324109015
78.7609012152177
78.800112414767
78.8694852025355
78.9383953195421
78.8024188491422
78.7920258072769
78.8375742128885
78.8162033880904
78.7768917832789
78.9521147953286
78.9926330451765
78.9661806643371
78.8680361574748
78.7624687331086
78.806148562598
78.9245712633612
78.9008365976857
78.9147473817456
78.9420179029915
79.0175145686725
79.0572311037315
79.0587732089592
79.0128929166414
79.033373961305
79.0400329391014
79.0836967003666
79.1154857487376
79.20861245229
79.1789517604604
79.1442648201149
79.1210476352589
79.1871788161713
79.2336352866875
79.2835561472739
79.340294160308
79.4094691090133
79.3555501318665
79.40199586019
79.4513729564245
79.4527160328335
79.4715056348428
79.6234224861206
79.6288273812929
79.6847170921515
79.7351408069948
79.7456309373283
79.7479294434571
79.8400910078171
79.8830892656869
79.8884854311758
79.8531599118484
79.9698799258736
80.1091401514253
80.2448329473109
80.3239830767056
80.4015389936014
80.3758734369002
80.4018859303873
80.3639132735485
80.4024545212623
80.5078525134168
80.6127894181089
80.6439941687076
80.73323927375
80.6934616978033
80.6832598191249
80.7870864030253
80.8735536556878
80.8610691024524
80.9549271071544
81.0688608038033
81.1762743442417
81.208898374924
81.2730569915108
81.3634399747958
81.3994576106037
81.3086214749912
81.3615544738825
81.4469452655352
81.4925855686848
81.4725372706145
81.4889193435427
81.5549440002264
81.6506191889207
81.6597057541552
81.6937466436578
81.7196073919711
81.8089468091343
81.8690549098328
81.9862143059975
82.0159876936372
82.016195499174
82.020291458551
82.1023056147225
82.1921065812367
82.2976749436497
82.3374667211457
82.2828371431286
82.2245928016695
82.3321575163458
82.4056457145957
82.5066059568134
82.5015945033111
82.4902243772691
82.4838118861563
82.5885333602052
82.7081414491152
82.7719167747867
82.7759862944136
82.8179554880925
82.8550516520413
82.949343858753
82.9964783641416
83.0673511837254
83.1095411350778
83.1703593713369
83.2093349259248
83.3265458125523
83.368363977091
83.3897540946148
83.4352829076066
83.4502634173722
83.4249826034809
83.5030777479025
83.5264595498723
83.5568256397633
83.6804073997141
83.8770806136224
83.8511700750835
83.8444594017358
83.8449688913517
83.8403076028812
83.862289687795
83.8851768718806
83.8687082040968
83.8663590457682
83.890929770789
83.9566974546695
83.965279894314
83.9468153881034
83.9140881223234
83.9820284425201
83.9510498807436
83.8708048939577
83.8613610500192
83.8891628486679
83.8620289397084
83.8618523929448
83.8593441300565
83.8092651257791
83.7589326520341
83.7647860563722
83.7152379107142
83.6748325570569
83.5728297806364
83.5402441118301
83.5808814832856
83.630257335199
83.5860056879029
83.5456847469635
83.5246069276928
83.5676612886184
83.5562107885458
83.5040837415811
83.4952431613069
83.5324299142868
83.4953408800187
83.4483434236091
83.4180299457588
83.3864125474574
83.3787171374156
83.3912472846328
83.3375133930691
83.4223708810629
83.4244894097718
83.3841603729339
83.4157797947461
83.4676699078063
83.5117426094232
83.6196858735051
83.6604391256046
83.7253957063284
83.8213097813853
83.9457920272495
83.949899069161
84.007448083891
84.1048226028838
84.141009222305
84.1513650599832
84.283834481821
84.3662476446363
84.4104710549911
84.4118913183544
84.485601918654
84.5554352961533
84.5774980672281
84.5559054891588
84.5975491067088
84.7082285804558
84.7997939564074
84.7336562200139
84.6945849668251
84.7841488395575
84.8326232889687
84.8257781909784
84.9091815195005
84.9660460519632
84.967039737788
84.9443481982585
84.9882027325225
85.0930633054147
85.2223285636196
85.3044827789832
85.3784661643334
85.3763266434368
85.3803331626374
85.4211926345547
85.5109077536511
85.6115112157252
85.6940561483825
85.716892315784
85.7362281916613
85.8153043143597
85.9207041414099
85.9736021979203
86.0372262906034
86.0506529033846
86.0602575844586
86.1294235318126
86.2114899417007
86.2809507583471
86.3486225104169
86.4149431141761
86.4580799546097
86.4829930596089
86.4751134120477
86.4557535605194
86.4966713498539
86.5825455238286
86.7175348758898
86.741556229339
86.7330105052592
86.7494788488835
86.7991669249132
86.8817639386697
86.9040609842534
86.8851295696277
86.9289892699657
86.9820366627037
87.0640548109117
87.0944541234627
87.1419986457735
87.1522407050657
87.1677607674951
87.1852711371677
87.1981266064469
87.2323523099835
87.3424132380734
87.3716149179311
87.3878364789739
87.4135421377631
87.4223986685462
87.4165924687023
87.4525345145165
87.4440162075839
87.4908636706192
87.5525671296132
87.5559803619276
87.54656021699
87.5971806697608
87.6219420950502
87.6573748950567
87.7281159324865
87.7739796111167
87.7787201586363
87.7822453295372
87.7789574228079
87.8317691034244
87.9026826241711
87.8953459752086
87.8459913155369
87.8787730602584
87.9208392617567
87.983917557715
88.0593532114835
88.0954031023607
88.0816142948416
88.0958527440919
88.0926397855535
88.0920544070931
88.1357050177611
88.1939693284001
88.1937715701333
88.2375459782415
88.2893503466348
88.2868601275261
88.2944042906318
88.3328327263187
88.3255451708219
88.3367839288239
88.3606457121971
88.393761138908
88.4114446862851
88.4092445064348
88.4469000942839
88.5049438226549
88.4863558544158
88.4997855709093
88.5922409371123
88.6475656625577
88.6240685744317
88.6438158853356
88.6884654042248
88.7242284994796
88.698376141493
88.7393620404203
88.793416287728
88.7364501692922
88.7160256536544
88.7536504793928
88.773811769048
88.7628589707396
88.7139148618763
88.7382983278635
88.8047169179096
88.8584995007748
88.842549960408
88.816595718475
88.8560785141604
88.895755080918
88.9143545012693
88.96366036326
89.040731311224
89.1779236512734
89.2278827529849
89.2035978016062
89.2161616018325
89.2544622899615
89.2594473560209
89.315818482081
89.3498722684553
89.4191387874476
89.513951380302
89.5979070155321
89.5648148612162
89.4869923957947
89.5059145380573
89.6069660947577
89.6638599231834
89.6671599905202
89.6679150407796
89.7021391351352
89.7350723075316
89.7672283646619
89.755308672235
89.7925097228484
89.8926032218372
89.9330658815533
89.8904986764845
89.9641054221729
90.0602666017144
90.1124312102573
90.1420866656754
90.1280568694454
90.1463265832947
90.270373976897
90.2905292984796
90.1802636673774
90.2275959315979
90.3466895935606
90.3541584025476
90.2783923034675
90.3341483575388
90.3986880614983
90.3979153618007
90.4130503236553
90.4029807160408
90.3918988017435
90.405504426947
90.4042007182269
90.4468393869768
90.5160517419921
90.5293423309045
90.4999546120147
90.5591314727137
90.6415860738325
90.5879235149067
90.6422305950419
90.7545868158811
90.7520015510736
90.7611226314386
90.7841481729028
90.7475089733933
90.6796369255325
90.7164954958846
90.8035452292815
90.8172203782665
90.8400308729559
90.8269826008012
90.8291548587168
90.8125347674568
90.7808774964157
90.8001664344514
90.9538894499908
90.9734617714484
90.9157124126125
90.8767833233993
90.8496124145959
90.9000390621576
90.9850272184621
90.9663224363689
90.9206567136048
90.8797115621587
90.8707210006656
90.9522021031487
91.104194180309
91.0903896849574
91.0363991335584
91.0180654364303
91.0779970186427
91.1830473136176
91.176210617933
91.0466835918972
91.1026128153995
91.2108780935936
91.1486170750476
91.0432671254463
91.0477355615225
91.0820081079993
91.15071892415
91.2100956476707
91.1972187010476
91.1431970920748
91.1481908038482
91.2615014283388
91.2769306367693
91.2831290626209
91.3558256841426
91.2654868364389
91.1565366949087
91.260201819348
91.4183107182516
91.4073860233906
91.2665349885959
91.2393696304248
91.3028656650023
91.3678338799258
91.3677152373959
91.358857087919
91.4363017815046
91.4213777509132
91.3742958233017
91.3838500954141
91.3789635295985
91.398078091348
91.4865209662186
91.5090596607876
91.445585457902
91.4223361636234
91.4534156214849
91.4386974299592
91.4272134427217
91.4639941301927
91.4404812664932
91.3697781813088
91.3289369773102
91.3793999810774
91.415561398452
91.4266810209775
91.4332091981749
91.4190649663488
91.3542849648618
91.3465599052345
91.4115292503645
91.5181242589448
91.6154313010509
91.6370547197389
91.5492678844479
91.5046759096044
91.6394666453882
91.7109646744052
91.6474776372987
91.6258313149819
91.6942862249111
91.7529060748881
91.7088974765967
91.5409572551102
91.3930863056091
91.3397090292493
91.3485186815196
91.4380326706838
91.4700745800534
91.4842231469353
91.4792305740802
91.5235739377907
91.5436468022197
91.5639350693734
91.541177453093
91.3308063770763
91.1479919712141
91.1993823715494
91.247433029512
91.3161458458436
91.4402551716089
91.4553627702277
91.4628059929647
91.5413372130353
91.529219489497
91.5093436615971
91.6079525995103
91.6056513335559
91.5566602675814
91.5377779333027
91.5665242439143
91.6729117319208
91.680236551784
91.6681560762686
91.653698252298
91.5741974652121
91.6293593607791
91.8384706146821
91.9031898427447
91.9211427224959
91.9589081892322
92.0372249449946
92.1349149069358
92.1469831616537
92.2196581494863
92.3053380761523
92.2204995373362
92.4016503924478
92.7936641287956
92.7100759469819
92.5643849602306
92.6303573150072
92.5547983491079
92.6141365811492
92.7433863483861
92.9556506093403
93.1187310044837
93.1776396494832
93.1879301140338
93.3894706815488
93.439153562298
93.286531224671
93.2168303084766
93.2316432137125
93.2565121520137
93.5489650731162
93.881865604704
93.7189664016564
93.5505528602229
93.595936182588
93.538919188286
93.6914837309722
94.0117596463558
93.8412446406401
93.6971481203349
93.8701345481452
94.1045575851572
94.0047594038082
93.9117370204816
94.3832491939928
94.4036415007521
94.375345246877
94.5236089630795
94.4765794554185
94.7248039951996
94.8497066986498
94.7437478932866
94.788588219463
94.8298479950582
94.8205099054759
94.9146662090156
95.0052352160141
95.188303174731
95.3346774203352
95.0670816354957
94.9920624026161
95.5041391557529
95.8295295447789
95.7254887729883
95.7230760370983
95.89688874617
96.1715332611536
96.0649806488576
96.0702391262173
96.6897705212604
96.9318949276333
96.8607867568498
96.4433437053911
95.9223258669749
95.9783390970228
95.5893203557702
95.3714742616252
95.3996234710409
95.2879130354262
95.0188354210759
94.8461756113827
94.8261555512719
94.8592109383911
94.6980007549596
94.5339084050748
94.3647932550709
94.0823892486313
93.9997070010283
94.0593819530932
93.9684069025517
93.854505958757
93.6895616247292
93.6729209204651
93.6933926663045
93.7156711658461
93.830663986667
93.8997992815116
93.8046508176088
93.643449896614
93.6749236339923
93.7031371599147
93.6519909878855
93.8959379429366
94.0723388170038
94.1037186531917
94.1134418004541
93.9150488482317
93.8164548910327
93.7688275280837
93.6891418399167
93.7551877451225
93.8831304442077
94.0009692857396
94.1473365987162
94.369595753695
94.5773176349324
94.5853349665868
94.4355541397642
94.3742378123907
94.4568654241134
94.6433595128519
94.660947641756
94.470524568126
94.5974789981306
94.805682465075
94.8009944544335
94.947654098502
94.8289386808959
94.9549864272305
95.6437963555715
96.0697753179337
95.9478229398225
95.8676824174856
96.2006230201656
96.6486797297336
96.9206092425641
96.8011733898853
96.8611808142618
96.910268124248
96.7803672746697
96.8771830086705
97.3792700958316
97.4314369766032
96.9157730308982
96.6550715165512
96.6054291086764
96.4944001662462
96.7064908254438
97.0442285089555
97.0797709183384
97.0006220065853
96.9458532944655
96.7083774294182
96.2446651426469
95.9118930576687
95.7437072301154
95.8821174608994
96.0463966687439
96.1457662371708
96.334749479223
96.2285436479129
96.0561519499508
96.1489454342102
95.9573755110631
96.0770923888953
96.5222457592421
96.6153809026164
96.999810196603
97.225897628684
97.1359730053114
96.9065251679499
96.5207641573046
96.6236957609516
96.5848278443193
96.4401631864545
96.6855859953578
96.6513271338216
96.0379659271143
95.6302276170149
95.5422987305248
95.4087672903542
95.4173885181921
95.6119404597007
95.5785995145703
95.5331925301348
95.5394362891575
95.5790724760818
95.3967503312894
95.1021058698995
95.0311133352059
95.0323865178858
95.076183486176
95.1487890130105
95.2345010987799
95.1382498302471
94.9306607143403
94.8969275170178
94.8322760813624
94.774237041111
94.7495431539824
94.8213728755343
94.8226131355367
94.6757956105069
94.5179937896692
94.5621440889144
94.649035430468
94.6938669761433
94.6425470461061
94.612258618321
94.5723281339859
94.598267734713
94.6683464926095
94.6056261817364
94.5307255128128
94.4903844651388
94.4924989915821
94.5348324323255
94.5510964650126
94.5858047952527
94.527457018306
94.5395675488268
94.5865835218888
94.5606836836307
94.5743553353281
94.666335287043
94.6150759163603
94.5255549271488
94.4929309074311
94.489218656761
94.4698038022478
94.4502657539919
94.4177719764492
94.4608156206502
94.4782136493988
94.5186309325254
94.5466233536298
94.5378883811328
94.5298968226172
94.6001216390734
94.6082642963614
94.5878247170353
94.5922813184829
94.6133593304793
94.6003673999793
94.6264578251096
94.575991060411
94.568480343458
94.6236298256053
94.6364651634276
94.638605316993
94.6434639336525
94.6382445932465
94.6143507714888
94.6456216578048
94.667246137245
94.6128137134461
94.5556980987616
94.5732555728184
94.5735176678655
94.4970366578468
94.4472216704129
94.4560518336234
94.4780797777511
94.4348159294353
94.381419269389
94.3264187894165
94.2712725822931
94.1922157683222
94.0838367759209
93.9827263284217
93.9531250625943
93.8771125884702
93.7282755381661
93.5905009418314
93.5087388272191
93.3912349169266
93.204157821477
93.106696824158
93.0604627220213
92.9067136664056
92.8052967868467
92.6752823805628
92.5019599184999
92.3950808309516
92.30259075108
92.180504559907
92.1082467113832
91.9841602709037
91.9035146310184
91.8572404195702
91.8197016598907
91.7471549538012
91.6334376234371
91.5300676382035
91.4459560760512
91.3106060562634
91.1342509177254
90.9540995680315
90.9106422945245
90.7854354713672
90.6261564922004
90.4468345659675
90.1955707490496
89.9004633828444
89.6452125216275
89.3866921183374
89.1461781782668
88.9419010952133
88.7583027675238
88.4647753476256
88.1441265608614
87.7920268363437
87.4548257334336
87.1230349687732
86.8132263642879
86.4214161741309
86.1288099373585
85.8432409154499
85.5935255988969
85.2955809720168
84.9119717908227
84.4834059750863
84.075731130475
83.6017289714737
83.2062310924414
82.9606862697666
82.6949299550298
82.2918942088851
81.7743825088037
81.2992672896474
80.9195317810398
80.4774135372765
80.0962641858211
79.7818084929482
79.4156769074325
78.9711560765825
78.5635287305555
78.1650529903365
77.7744912903101
77.2831787078996
76.6931446625001
76.3918071984463
76.3760166030026
75.9746860701504
75.5788553843009
75.3134792949626
74.9645139461313
74.5577292825625
74.143081287981
73.6345448487362
73.253220128768
73.1272383253198
72.9007913598514
72.4909374102212
72.0702455133836
71.6938695664902
71.2936753374701
70.954409062171
70.7171748344972
70.30602303248
69.881511892469
69.657328450671
69.3906658258069
68.9795036415171
68.5806397228309
68.2075126060661
67.8594135689847
67.4870205954854
67.1664164000456
66.8243717339941
66.4867733780126
66.1412962195689
65.8422486824453
65.5644481208849
65.3059183498715
65.0182189975505
64.7666399586755
64.4940013211426
64.2536986472302
64.0330625375674
63.8163088224455
63.4260688953756
63.2493828828698
63.4290276311462
63.3454873988981
63.0295678795737
63.0492408580086
63.0739622282754
63.0147205629772
62.9338658506725
62.5275283008018
62.0247673257392
63.1163409634843
63.7443332948446
63.9412744899701
64.0407556434113
64.1692996469224
64.5024686440203
64.6482794858089
64.7736884500033
65.0708689431408
65.432351164737
66.8400085071603
67.9118260987623
67.9624079522603
68.1689639343241
68.9495024705279
69.3583880979878
69.5933861263425
70.0127030384217
70.44087999437
70.6107204956258
71.4620897867236
72.0698371150207
72.4056934186237
72.9322818324182
73.1478901379659
73.2843800395016
73.2168673215374
73.1423616449052
74.6094685613304
75.5845333561943
75.6161624052422
75.5024599269021
75.547470046328
75.9884748509861
76.5970422738663
76.6727393260964
76.5617821106229
76.900566641679
77.4311441849147
77.7500761958956
77.7811974009505
77.7649167742442
77.7961488397125
77.7289108172152
77.6573590831353
77.4947355896166
77.5451874070425
77.7653851863819
77.5601804568328
77.0931960833762
76.7356234452568
76.6288208765424
76.3108165329271
75.7294437522345
75.3548588782474
75.6596510076058
75.5984057582339
75.2612381003422
74.8550181230234
74.5643622283385
74.3917376451783
74.1623645452558
73.9073339716707
73.6462345044019
73.2192533983887
72.9288399491917
72.9461750612352
72.6796983324542
72.2457950113344
71.9181380011552
71.5731408660374
71.1088464477877
70.656120537125
70.1825555436371
69.6495887764158
69.3627455887696
69.077583194463
68.6423058438147
68.1310395434884
67.6511955936183
67.2275625508907
66.7943561045088
66.4277674749005
66.1868904628837
65.8646994810358
65.5595494624524
65.4049227568759
65.2395734141334
65.2273506127794
65.2045513794346
65.0191125714776
64.8200597189702
64.8763696230164
64.993931255884
64.9816881162674
64.9675932678561
65.0013377924871
65.045210375163
65.1155516919778
65.41604525582
65.6688870772033
65.7996361351215
66.0208292444771
66.2021488920208
66.3053443900144
66.6459464621376
67.1037862362255
67.3626699341462
67.5314428289048
67.7653793143944
68.0385692820454
68.2921308047913
68.582816091267
68.8864601795754
69.1662864808979
69.4192856252111
69.5685542377444
69.7864165949964
70.2097748711801
70.5550761538531
70.7557111926426
70.8994736287922
71.0622546722374
71.2207794030251
71.381652738619
71.5248445076091
71.6525764261004
71.7470765126194
71.8309201167616
71.943468798908
72.0521125212634
72.1504815306292
72.2853987056413
72.3888147558081
72.4913182892067
72.6042615567915
72.7362636126722
72.8766722343755
73.0031218586719
73.1414797399951
73.2916924039764
73.4219916891892
73.5482163894571
73.6860185299742
73.825920062846
73.9405008919702
74.0601941698052
74.163215150957
74.2393777699479
74.3148043602535
74.384100911994
74.4709909283002
74.5257656619865
74.5440286649731
74.5696101953911
74.6002200673071
74.6458550985874
74.6740844589967
74.7034710391461
74.7339612802943
74.7924115783509
74.8612563987244
74.912923808848
74.972010718918
75.0167338327842
75.0435428196382
75.0672546241722
75.0885062092245
75.1162258651344
75.1457990072045
75.161225363396
75.1630119392448
75.1912413669505
75.2274399328677
75.2225937100004
75.2305836740755
75.2644722241498
75.2876774965967
75.3016758704194
75.3518216143589
75.4156825237708
75.463126822754
75.518091523602
75.5838335609697
75.6544436818952
75.7221794783071
75.8163795706669
75.9462669037446
76.0512140768208
76.1272194318497
76.2192465906164
76.3320669376162
76.4508851658239
76.5530769181445
76.6544588226592
76.7632959099705
76.8599090609095
76.9532464192409
77.0355842965289
77.0954989190199
77.15007150061
77.2041115424523
77.2223294914361
77.2063125802365
77.1908029040901
77.1543091344095
77.1012433597049
77.0446530679345
76.9982499237725
76.9376136541546
76.8657106289921
76.7930144542063
76.7224187650581
76.6380502653458
76.5619339284371
76.4721074640321
76.3631247594802
76.249152418818
76.1382291067527
76.0081646030159
75.8878924974512
75.7706458506702
75.6513969570611
75.5113452595281
75.3744372092518
75.2164229772
75.0725570268083
74.9248785619881
74.7389167591212
74.5682564744825
74.3908392353862
74.209764942955
74.0495860015476
73.8700572080789
73.7338569118521
73.6168157336984
73.48883281483
73.3785013985828
73.2551308189019
73.1174164428477
72.9828029541813
72.8165540743126
72.6335146068843
72.4515673554282
72.2522601533295
71.9980013918358
71.7635366035054
71.5158453942173
71.2584260087759
71.0250586512287
70.8168980574813
70.588535212031
70.3488110741085
70.1083833164177
69.8889786554289
69.6830888340212
69.4651167109435
69.2350795285566
69.0175248535254
68.8078093274798
68.5811624900693
68.3648819540728
68.1643299432662
67.9530530833069
67.761181765665
67.5743203156544
67.3668870028794
67.1565732611584
66.9551428591447
66.7398426192125
66.5464418324434
66.3928597403092
66.2097248046518
66.0433046531295
65.9184144950309
65.7686894250919
65.648160718195
65.5796180518675
65.5025534750163
65.4418564789495
65.4472041035899
65.4742592734286
65.5002251213339
65.5374625203901
65.5985083542835
65.6805807591652
65.7920616393925
65.9138595748164
66.0592089361182
66.2544823003191
66.4730687550785
66.7030283954586
66.9529319650365
67.2160512453329
67.4936119072009
67.75566331216
68.0431920126266
68.3700068421525
68.6920647863889
68.9687618723179
69.2402488301451
69.504459311011
69.7866121354589
70.0604540578573
70.3149983758976
70.5788571967447
70.786238195344
70.9521482898822
71.1442894928151
71.2950024300828
71.4707448999558
71.6777782781305
71.8540017816525
72.0484830150294
72.2888805390423
72.5390029449493
72.7752205949886
72.976428086409
73.2236195157502
73.4374722572451
73.6129742544605
73.8320690452492
74.035232648609
74.190703434677
74.3863838988932
74.5995298896634
74.7861825832017
74.9646596922475
75.1478823361086
75.3003905912983
75.469414164181
75.654130960403
75.8118686865476
75.9594974709469
76.1097288257052
76.2427987678782
76.3739254025593
76.5216672868708
76.6376465065411
76.7105656112606
76.7789732552649
76.8683546468025
76.9984060604745
77.1034667721172
77.1545623205206
77.2166264103555
77.3125943683164
77.3805227772496
77.4865656340777
77.5897335466987
77.6793232178006
77.7571243404673
77.8367433346123
77.9149903951959
77.979418861801
78.0056183587235
78.02142989415
78.0741349996776
78.1180434106453
78.1209208445426
78.1320673670623
78.156968578205
78.1882607687304
78.1786760628689
78.121460199867
78.1013369078246
78.1165045635938
78.0931711521337
78.0208478690373
77.9265107288001
77.8742993264081
77.8783996573461
77.8709620713764
77.8497819473467
77.8512826336041
77.8725379494867
77.8775089077068
77.8930984271267
77.870526013849
77.8029741154093
77.7617191036091
77.6930617194355
77.5875517988891
77.4638960681429
77.3432878878979
77.1785524502523
77.0682058575463
76.9591985621873
76.8148234279793
76.6872445124613
76.5644864590533
76.4360293674398
76.3509568354663
76.2300653222717
76.0825726748037
75.9851218171664
75.8716177639036
75.7062937571321
75.5635686577062
75.4081544005903
75.2299737615425
75.0564056646068
74.8898049303895
74.7757890225277
74.6958048558552
74.5426573058322
74.4270566420924
74.3620942626437
74.2877997121397
74.1665401781943
74.0470782576887
73.9252502342774
73.8323848598631
73.7540019343765
73.6913123593196
73.6358455988503
73.5823469097895
73.5195876723098
73.4357547087875
73.3829781728169
73.3610708618254
73.303441037865
73.2205357947601
73.1443751835757
73.0830916279035
72.9906586383789
72.9397529470597
72.9199237385875
72.8700969070098
72.7957854314074
72.7090584797764
72.6126478243423
72.5515375542316
72.4593604346287
72.3900823622551
72.3394730187181
72.2887309657956
72.2190364658912
72.1058386973911
72.0133718386425
71.940430709346
71.8595488838603
71.8057002019638
71.6851773826995
71.5110800147741
71.3441096022791
71.2349659530488
71.1443882645677
71.0548330546911
70.9324292836283
70.7959274856757
70.6314535727329
70.5153986979448
70.362423230358
70.2221560350971
70.0818710404465
69.9350270116983
69.7430884019221
69.5536140307622
69.4158015583994
69.3103448971019
69.1696284070425
69.0839433546684
68.997619596262
68.859215058206
68.7089541322377
68.6159070721532
68.5204876873413
68.4537074836581
68.3282595731093
68.1835611058198
68.0395310613271
67.9200300069852
67.7818251189275
67.7232252748724
67.5942994626264
67.41687038705
67.1663581168042
67.3037482127631
67.2509322803113
67.0264926967077
66.882959516563
66.749749928412
66.6358660123929
66.5327523058927
66.3911187328123
66.2625264211246
66.0980867037787
