1798
3999.43349933624
650.420452594757
1
128
4
96.4803488676179
96.4662591633463
96.4844382189705
96.4294105235375
96.4922220542591
96.5158948367431
96.4748863115246
96.4403011040551
96.4959073269691
96.4856095541724
96.47332743624
96.3710682491815
96.4206098189257
96.4378044867814
96.4103341549429
96.4188995356878
96.4251785646082
96.3347635694953
96.3441860173669
96.3383849022517
96.5299803906957
96.6754142024472
96.6441899484304
96.5157800225523
96.4624646014887
96.3935684202599
96.3460777439951
96.2690913725701
96.293208000026
96.3967413460419
96.4654646708771
96.4393229204232
96.4352876804154
96.3862766178365
96.4953612021514
96.5065358556084
96.4827242845604
96.4077258349209
96.4148319020931
96.4410235957645
96.4349163240322
96.444709589684
96.4782959884836
96.3422308680714
96.3395002023334
96.3796675246142
96.4881511626184
96.5164534739753
96.552463642273
96.5367614376875
96.4310766971825
96.2098627582415
96.1273571873364
96.1638345752855
96.2737269354923
96.3125801047008
96.4627270564503
96.5163650191986
96.4406207204964
96.414415443835
96.4151875997698
96.3231767705099
96.3505738900852
96.3580582051785
96.3436441748198
96.3192706117825
96.3828381998453
96.3177594634054
96.3837602972656
96.4670199328864
96.417313089715
96.3050454575006
96.2976715509391
96.302002704039
96.3840851606152
96.3982763844481
96.4089656102654
96.483773412636
96.4391515230515
96.1622900062726
96.2881989490529
96.4748649424893
96.5232034614411
96.4099303844941
96.354463749432
96.2911802103109
96.3024288968497
96.3370912896912
96.3577543863048
96.3231652823922
96.4569404732917
96.5096284762221
96.5832258407938
96.5515297090174
96.5848082169205
96.4878640710346
96.3218602029666
96.3992871835938
96.5344526484585
96.3891956134116
96.4092364344678
96.5075834835686
96.5641703736446
96.478864758125
96.527842507213
96.5339628216066
96.4142691618725
96.3632649407528
96.4697749705727
96.5740470961983
96.6670508020565
96.6985854756776
96.6026490912452
96.4850457486088
96.5477104735644
96.4980730799219
96.5365955495502
96.6857217710156
96.7131729533006
96.5298076162937
96.5157225132542
96.6135253100482
96.6624580994797
96.5829279980244
96.617939177193
96.5236738467435
96.4421902408976
96.5918048737603
96.4808144518113
96.3437014655848
96.4114385296716
96.4355198315339
96.5585882433875
96.351126504822
96.2400126008206
96.1951473957827
96.2744180626453
96.3004574300763
96.2985311111538
96.4344820567769
96.4953601141746
96.2820469860096
96.4845912854912
96.8471550543726
97.0819152751585
96.8386079045353
96.4431035656867
96.3412684436833
96.5503578683264
96.7964160866201
96.6373236912261
96.4666543412786
96.5642752998573
96.1532103755628
96.0695410455976
96.2828635691755
96.3573508390125
96.2414383002663
96.5185466515309
96.7696493874479
96.5791960544713
96.5285471372129
96.4129527681886
96.4444356627075
96.6253887001245
96.8093528854556
96.7476204267097
96.8952188968044
96.8484015081453
96.7147588138662
96.6808311367152
96.6889379081333
96.7084503241599
96.7212843934056
96.9039140767074
97.0245124960186
96.7575423075213
96.267144924461
96.276531802513
96.6193509935336
96.8029058713945
96.7987178088176
96.8702764005224
96.7906132888525
96.7657287856176
96.5929978234599
96.4899123351526
96.7984840951524
96.2278436311675
95.4867672628716
95.743155127534
96.0867396208755
96.4821213769206
96.8417555584561
96.7032215540205
96.5777580779375
96.3704676650177
96.2328022221546
96.4300111789864
96.0722606025846
96.0114858881254
96.30395777973
96.5121134460194
96.2910298653881
96.2121701145304
96.204650223457
96.1566719554397
95.9717856498976
95.9087215030912
95.9095338286257
96.1529512170632
96.3635485226154
96.3155226291508
96.0593974168911
95.9084315404665
96.0021104415607
96.072958671852
95.9515786331973
95.8950632994507
95.9523733940892
96.0283872522516
95.7264909550833
95.6236864662739
95.6419492011429
95.6900044667362
95.725641487169
95.8179920783963
95.8488432929168
95.824487296488
95.6358398394859
95.6517132275158
95.5860788437269
95.4036058791234
95.3486487187021
95.4586291250448
95.6148313158654
95.5124195683678
95.428071856408
95.5166496363341
95.5472582464438
95.4690270705837
95.3402957237388
95.3604532936509
95.2276648524258
95.0040182180719
95.0679986732878
95.1706052228346
95.0898407425834
95.0972886501423
95.1678089446867
95.0692975814008
94.9533893566827
94.9577995080166
94.9273612061849
94.9165598284275
94.8702969524264
94.8496095431946
94.7710070379084
94.722627960903
94.6625245765068
94.7046336223431
94.8170301941709
94.776032043595
94.6842528126142
94.7322973575312
94.6604235804555
94.5298221199124
94.490435062191
94.5052666862831
94.5275844115646
94.580129136388
94.491072350398
94.4040339308775
94.3726998798279
94.3424246715561
94.2460598873304
94.2171278628009
94.2344503457142
94.2238519426045
94.2269031021633
94.3192856308939
94.2477043214665
94.2267027850426
94.1430830713925
94.1566049654687
94.1840064186307
94.1414072021253
94.0583047158049
93.9283771334077
93.8282355535537
93.8207309851389
93.8322628324565
93.9002033909205
93.8390945329455
93.7931914642333
93.736482667559
93.7176828898908
93.5960008064707
93.4682603176484
93.4756533448536
93.6158467667452
93.6249059910002
93.5765356778368
93.4667792644096
93.4564744590852
93.4643451098564
93.4348102291814
93.3718619982642
93.3175338324807
93.2970886093991
93.2802654757133
93.1745342221493
93.1525370061236
93.1816328397184
93.2306774284734
93.1433803693125
93.0030634168098
92.9955931473609
93.0003347648168
92.8861251701047
92.7805940201546
92.6848035555371
92.7791553233532
92.8943554258779
92.7457840424541
92.6130952927475
92.5738606797687
92.5611439286254
92.5932472846876
92.5300540398909
92.5251483919461
92.3919730733902
92.348063943913
92.3795981663458
92.3487558920006
92.3699010266481
92.4215863468541
92.3618636126138
92.2239595059762
92.1136425436654
92.1482473139291
92.2284334180665
92.1766182660351
92.069405433749
92.0984435222806
92.0743180760162
92.0645932748036
92.089358269471
92.0087219547369
91.9533268413272
92.0120431037238
91.906086718934
91.8096382316866
91.8131407144916
91.8441422874285
91.8239578519024
91.792605235866
91.7020487990168
91.6487728834253
91.7266278300169
91.7883136630812
91.726815563987
91.6510968592157
91.4891038265708
91.4916295317239
91.578896567217
91.5818239894409
91.5455900325929
91.4888982021559
91.4642628603651
91.4856329693635
91.4360378263829
91.4149550901876
91.4179294153679
91.5340101728793
91.6194548906603
91.6290054224888
91.5865964110706
91.6329503104919
91.638123221579
91.6157973348612
91.6772887054053
91.7335412183582
91.7108285497301
91.7308792933819
91.77032130417
91.8292365491251
91.8938249711284
91.8304655507414
91.8170478241341
91.9386265631079
91.9908507017145
92.0236251567177
92.0402546141482
92.1272654937625
92.2033466179142
92.2475835747543
92.2135193665133
92.2086414747773
92.1938751299632
92.2497029912314
92.2941907869965
92.2870915343494
92.259804394979
92.2408348919051
92.2805680708506
92.3636521510684
92.348194778058
92.3612089580256
92.4500709842717
92.5165371790876
92.5389093194957
92.611235554147
92.6215365245139
92.5600665312974
92.540861504796
92.7094906913471
92.8240522548284
92.8290082263724
92.7398474927142
92.7361503123907
92.8023987648938
92.8785703602021
92.9747968868717
92.961442919385
92.9107239669656
92.9814656960358
92.9465613003648
92.9511543268993
92.9614569150046
93.0200386070125
93.0948113409877
93.1009224908594
93.2138283479332
93.2846536404085
93.2092025657973
93.2319504306069
93.2385926722048
93.2516486782247
93.2937054956833
93.3015042108073
93.2529822255368
93.2945273662526
93.3875332040315
93.4273020617963
93.4955062088001
93.4781891691019
93.3652704076025
93.4589601898535
93.5529270055047
93.5698028754949
93.6687968500958
93.6206368437881
93.6270861622949
93.7555834396398
93.7610305031238
93.7356691952642
93.717956769453
93.7677743851267
93.8048939123994
93.780525476383
93.7646863439179
93.7693508078424
93.8072100865343
93.9076037039282
93.9651267682801
93.9869884499068
93.9929181869063
94.0008867104536
93.9479086638719
93.9359260672467
94.0447665196506
94.1225751279244
94.0992369721696
94.0774481510659
94.1120359816202
94.1623056001106
94.1956872949081
94.2601096302566
94.2225634693549
94.2018885912299
94.1764834063219
94.2562926160909
94.3068234324813
94.2385024869759
94.2706286801849
94.3601985802146
94.3864268677474
94.3778152514279
94.4001271151175
94.3993568793033
94.4646775761436
94.5426566112839
94.5822484753475
94.6159053381038
94.5442107908463
94.5702567118816
94.6517765798169
94.6107770999004
94.5331078471003
94.5579733628054
94.6094133148422
94.6606631312168
94.7101938092668
94.7454271765209
94.7570706360774
94.771496938019
94.7462145791728
94.8063668703385
94.8685379074162
94.8033018402274
94.7420675851654
94.7589707636251
94.7994676450056
94.8514348515962
94.8294419141796
94.8346669743957
94.9021974198603
94.8906655581678
94.9103603129356
94.9424023372873
94.9143098151618
94.9891497979056
95.0645364081348
94.9610304214467
94.9124729169372
94.9196493245903
94.9550273903164
95.088444009435
95.1496610881329
95.1068082966351
95.0972601644573
95.1195511217691
95.1311921603574
95.0778922799471
95.056923916572
95.107936684049
95.1957521509842
95.1833874965706
95.17114307718
95.166402738366
95.1284851382698
95.08664984915
95.1218244627032
95.1793899197726
95.1985392366618
95.1815577237517
95.2040146646548
95.2553908150292
95.3577630577817
95.330305380002
95.2469089964811
95.236913019497
95.2222412584036
95.2233386954757
95.2269528808138
95.2560243160385
95.3212877508916
95.3470631259603
95.3167426974403
95.2673381747667
95.330146763897
95.4067445325368
95.3751227305798
95.3416450889988
95.3423175423579
95.2966429430334
95.3409693179429
95.417450756629
95.4466203761526
95.4647666578167
95.4700914190387
95.4689434132146
95.5187748921879
95.4921104078898
95.4986722635198
95.5475469602624
95.5742022971994
95.5428976290409
95.5555844775064
95.5673978695761
95.5529276604888
95.5568562993997
95.5781432092153
95.6463032149688
95.6589232980658
95.6119633472485
95.6338162799266
95.6736364096814
95.6770384999961
95.6648225652208
95.7110474538402
95.6859051677146
95.647104996681
95.6990000031567
95.7232806105425
95.7246332528811
95.6979859614057
95.666241006897
95.7076956278917
95.768057964651
95.7628313233302
95.6911080527148
95.711631148627
95.8047201740234
95.814388244927
95.7575663027046
95.7640596014912
95.7811151424629
95.7909260084154
95.8308733178611
95.8614378270065
95.8638261547974
95.8697453085681
95.8361963856973
95.8505411270221
95.8680170696191
95.8582057241207
95.8427653706291
95.8727358190668
95.8574301039906
95.8534290877654
95.9186900922516
95.9854456868702
95.9908772097454
95.9572197392134
95.8970402479408
95.9425945373413
95.9913721251724
96.0042327122231
95.948339562358
95.8927119849949
95.9154693905248
95.9603606508518
95.9465409678624
95.9160090106694
95.932810149732
96.0039379914836
96.0108022861564
95.9325707549835
95.8885505467943
95.9024976047259
95.9271857662894
95.934975266923
95.9203858195639
95.9408584067772
95.9419974471958
95.9294972270317
95.9013856064263
95.9007059027868
95.900133569578
95.8828914545374
95.8058064936396
95.7655925132853
95.7621644251081
95.7971873855876
95.8172168050531
95.8158565824549
95.7974403326346
95.8176576816822
95.8471739404862
95.8517727289694
95.8523283861373
95.8424293040153
95.8377921176259
95.8262742820553
95.8526179286589
95.9068864748818
95.8566356942577
95.8079707121678
95.7886863180457
95.8390304585487
95.888697031335
95.8785233603266
95.8176626123138
95.7576289101411
95.7433337530733
95.7588639307445
95.7268670873094
95.6917721923063
95.6725338104727
95.6810898983918
95.7644688509217
95.9073234440223
95.915159539377
95.9324870827237
95.951362998746
95.9724624304478
96.0268354500575
96.0890003132076
96.1075071429286
96.1077034773152
96.1150800216838
96.1524963553575
96.1517596118934
96.1513043707447
96.2046003427759
96.2363163815455
96.2358732759716
96.2612615266323
96.2663083771438
96.2509145365886
96.2485190136237
96.2809731317865
96.311503544745
96.293000627115
96.2669247074401
96.3068392162214
96.3508404197486
96.3441890516798
96.3070143944603
96.3427842208996
96.3885652394509
96.3971270839964
96.3855945842931
96.3912682570191
96.3837990350295
96.3561207666578
96.3629223915257
96.4035232909619
96.3954956169125
96.3758784864556
96.3449757807829
96.3836583590313
96.373627841539
96.3972411217597
96.4405063356023
96.4217393702103
96.3913279630229
96.4172617752803
96.4304483460151
96.4159012813889
96.426877948917
96.469120725924
96.5144806862073
96.563518337917
96.5306264598491
96.5415167367335
96.5938050773396
96.6533906414152
96.6803676899891
96.6063450370812
96.5944089718864
96.6639905996473
96.6993049710543
96.6524071197514
96.615018595316
96.6784267912633
96.6818851793462
96.724491938205
96.8097145802029
96.8217523186891
96.7752209826585
96.7914579906463
96.739227416405
96.7647571026956
96.7822812272925
96.7565541643034
96.7970440209935
96.8478770066369
96.7792217134987
96.7969976054503
96.9418225450105
96.9805738024635
96.9152133628465
96.9234266505498
96.9076751426276
96.8319777379368
96.8286840151253
96.9143934354392
96.9947911749758
97.0726298463099
97.0636568260585
97.0487879057542
96.9812570437618
96.983977164734
97.0124819500828
97.0334086284576
97.100879767166
97.1084568759087
96.9841784852038
96.9228816650508
96.981360475085
97.1321948333654
97.1705109589212
97.1237852033009
97.0143425614203
96.9647886184614
96.9786112720638
97.088883774653
97.1614827001389
97.1593155645145
97.1478268630036
97.1242352153057
97.1391401339153
97.1073753357492
97.0963227837243
97.2248558195526
97.199079973955
97.1196032106344
97.0863485379336
97.0719591913465
97.0609266481617
97.1392978649599
97.1520698345292
97.0904004265962
97.0477650557169
96.9827242122588
96.8647834248851
96.8954000540609
96.9517459425329
96.97649530578
97.0079936336733
96.9528165271443
96.9186431684362
96.9516046488644
96.8643790662684
96.8416438317239
96.80229729857
96.8200176271838
96.9397113384573
97.0690401319976
97.0597096435254
96.9367635317144
96.8411164532628
96.8713805745228
96.9567035077325
96.9973086988023
96.9595600292344
96.9853060918671
96.9990194617097
96.94209135284
96.8583301194328
96.8459439860427
96.8566469355101
96.8346344328321
96.8371385593196
96.9224524505218
96.9145001303016
96.8532998829125
96.7756667488683
96.7146969356874
96.6623121655145
96.6826635668856
96.6950966595937
96.6350434713396
96.5944534936633
96.5653063655702
96.450237849303
96.4576980828808
96.5361096661106
96.6281617140989
96.5823435013331
96.4900366050951
96.4825995812174
96.4021592352214
96.1301013334363
95.9482068312731
95.8319526742576
95.5785417198339
95.3638494582513
95.3037336285034
95.3447307912983
95.4535077959803
95.5604667398126
95.7156626630404
95.8529335626964
95.9799652339286
96.1609655461695
96.421577267427
96.618765705216
96.6524938253101
96.6466328620695
96.7615363929467
96.9065687045568
97.0948049093885
97.0975717264898
97.0935392908662
97.257862368885
97.3122274728208
97.330560104116
97.3595828800067
97.2617592804059
97.1337687996676
97.0446021979956
97.0038703649344
96.9988254308303
97.0637958979274
97.1292415700577
97.1646905555801
97.166534563366
97.1798316150971
97.1214963003304
97.1125090575052
97.1937557904074
97.2561414809719
97.197456792316
97.0970080042118
97.0314638349179
97.0152161327762
96.9766790905897
96.9754310611079
97.0651515395771
97.120855553179
97.108948178126
97.1555200812759
97.151403405792
97.1286736978842
97.1151230430731
97.0936169586957
97.0951095909826
97.2089013556859
97.2596624391482
97.1857901157039
97.1578134898982
97.2810936016097
97.3549325046315
97.3637729472558
97.3780459924015
97.3942636678129
97.4061652132586
97.485638141935
97.6212954488309
97.6732207994273
97.615425020473
97.7362996311567
97.8614325496697
97.7985667236372
97.7280718245056
97.806425124594
97.8252942847878
97.8263490181671
97.908347775353
98.05359406435
98.1339121931481
98.2404453623175
98.3546424984329
98.3711690120636
98.3238395339852
98.2413318203185
98.1360978864364
98.0922425753924
98.2280186316901
98.2954158665889
98.1310886436658
98.2420572880889
98.3016269501772
98.3661983439435
98.5270530843803
98.47592822723
98.295510109352
98.54925072876
98.7594284470247
98.7797865858487
98.7203001551162
98.7710309414579
98.9952003576928
99.1603475758415
99.0642517023224
98.8366502068591
98.7313602977934
99.0185598601954
99.123079332072
99.173058938258
99.2048678699752
99.207664546485
99.2025392673555
99.1811347146297
99.2760870248121
99.5880008797004
99.5643117436784
99.3809862761662
99.2239924331352
99.431286543686
99.6265902557087
99.5695242357664
99.5010014026136
99.5715573601081
99.571922276078
100.041884424408
100.144054246147
99.8937696963562
99.4377869080573
99.375208278776
99.7274993553418
100.250759576982
100.634654493107
100.59726215804
100.33832728857
100.535627092814
100.388975683914
100.015364351868
99.5867308807456
99.116742841279
98.9308551956545
99.0769683836217
98.9783195631736
98.8104850637252
98.8283140938362
98.9262601650755
98.8069793726402
98.6817136208217
98.4610872184174
98.1227327224787
98.1022023878313
98.2298774781111
98.2433768923134
98.1885381310964
98.0107630816902
97.8385208977752
97.8240388818889
97.8806218101751
97.8831939215842
97.9588699592287
97.932323579014
97.9431182549637
97.8707031292226
97.7038999861203
97.6525754536513
97.768991744166
97.8634051220723
98.0050804113948
97.9922373471211
97.9145534331875
97.8932198909583
97.9756455798383
98.1041029616527
98.0569663543265
97.9239815571459
98.0379662356229
98.0884768357024
98.0326383317517
97.8797550522639
97.8604734737665
97.9247033293555
98.0595400800462
98.033297930821
97.8931412250046
98.076874291415
98.2198500649034
98.0343969528272
98.1231284330997
98.1744784925891
98.2670802855016
98.4660819756956
98.5680847250218
98.654375822817
98.8300562627781
98.8787177283417
98.9049884125182
98.7217713236948
98.7771814761767
99.2429323429843
99.4739954297525
99.4592805086875
99.5800487008657
99.5507229668933
99.5644060880764
99.4965631270156
99.523968430532
99.2407941223971
98.9746375327074
99.1707153547196
99.5675149388833
99.718708188799
99.7506318305693
99.4774245487686
99.6904521296721
99.8674757300536
99.5833071145657
99.1679191346614
99.0114615719584
99.1722587126174
99.2333686653075
99.260655702147
99.4249212404496
99.4275898738751
99.4361990634234
99.2415588179007
99.2566481325396
99.3227870318707
99.1870184840029
99.0373224860297
99.1641929209491
99.3329693291949
99.4828409464866
99.5443753791026
99.5320246680223
99.2244363428902
99.0444441689478
99.0420678715583
99.1348528918068
99.197333929054
99.3541045032352
99.2409916965285
99.0836409282494
98.9096294557874
98.7372548811202
98.8540013233733
98.9596075901531
98.7700487880875
98.7781516576906
98.7901818809651
98.74869842837
98.7397420786301
98.6825095768252
98.6764752264598
98.6628011634839
98.3819915621358
98.2427706678193
98.3483518145739
98.4163290587719
98.3066245461577
98.2378019287746
98.1904567748432
98.1643523789866
98.1619828172165
98.0492208444776
97.9780766964111
98.1502857064932
98.1933838846195
98.1693462633781
98.1120535515222
98.0654275238706
98.063730403971
98.1019489139974
98.1691726896977
98.1911800323266
98.025847609569
97.97332270832
98.0945499108795
98.1432134506922
97.9773262031553
97.9408133483881
97.9852522624698
97.9289066916116
97.9382412327796
98.0516684481155
98.0225441590115
97.9126953084085
97.8871637330245
97.909560615195
97.9759006785785
97.9707394818445
97.757825622354
97.7106702321565
97.8264499227253
97.956087723551
98.0162132276394
98.0268362689554
97.9631482550057
97.9475619632588
97.9110589883873
97.8533117649306
97.834736072736
97.8903189896768
97.8174652644906
97.6810678078962
97.808139133121
97.8765728614371
97.8695825731873
97.8784935315577
97.8434000010364
97.8468237694488
97.8187804104382
97.795793148061
97.8780772268796
97.8346825108148
97.834466342323
97.8673207700547
97.8775834826549
97.8726388518371
97.8385428721949
97.8138433310136
97.7807299335325
97.7702663787845
97.8044249191176
97.8329389956031
97.8540523032416
97.820733442972
97.7232747957023
97.6907474737127
97.6846678956695
97.7005854181071
97.6324748476135
97.5470448037385
97.6995433202263
97.7777979528538
97.7569357439343
97.7161727060738
97.7278335365067
97.6352620242357
97.6384455893805
97.6155900129303
97.6074529447585
97.5068941209969
97.4235794136691
97.4017089828325
96.92530332645
95.685596686609
94.349654236239
94.5530720674881
95.6665284525224
96.4363853902526
96.8136323667424
97.1387659151959
97.1908708685067
97.1351524062177
97.1606562311969
97.2261536952705
97.2494822241083
97.2327434398894
97.2230735552881
97.1573810648478
97.2394782963417
97.2047028795522
96.9156218850943
97.0746091794338
97.1334892806511
97.2090415126472
97.2230903184033
97.1872358524281
97.1052207795111
97.0868514640538
96.8704210867094
96.6564622904098
96.6620485640056
96.7421595296051
96.8072924927223
96.7351173494265
96.6103777276855
96.4330621464411
96.3635604811894
96.4270006818751
95.9915639719359
96.0899254778068
96.025499314252
95.9177697289208
96.0218442481328
95.895700284253
95.7419346784212
95.6375535124391
95.3178404010876
94.9699289002605
95.170440741633
95.1384477349262
95.1194564789239
94.8357129225682
94.6816447487979
94.6829381953769
94.5258409797046
94.4189536075523
94.4892539049699
94.4431881372557
94.2414783050866
94.1856606534883
94.1980748194914
94.1028799767774
94.0288041625109
93.5764271604687
93.5816204374084
93.821841207499
93.6535996328304
93.4766147173215
93.5382211566619
93.5711416001608
93.5229237322818
93.4693206783161
93.2563692928113
93.1155573519999
93.3563741869579
93.4436894365836
93.4254414908782
93.366727056319
93.3661195226885
93.2623727312951
93.326402284565
93.4874967790255
93.469464017039
93.3278426742775
93.4993839199606
93.6134224157478
93.5885051250217
93.5721780081891
93.5827672580352
93.6213384871969
93.6460567660289
93.6811196883154
93.6981500798662
93.731108773845
93.7261653875721
93.7689911199715
93.8363803386846
93.8753205613345
93.8696327199314
93.9133687447426
93.889845058554
93.8791457876766
93.8814512990103
93.9489127088517
93.7703355470653
93.6665484879174
93.8691167022309
93.8867797553464
93.6965861311594
93.7146590247154
93.735018709809
93.6949489950997
93.7145978545588
93.3383740457446
92.9730933124705
93.3524093940671
93.5084128106753
93.551460484292
93.5438735738915
93.4246906317924
93.4515580383782
93.2801045352577
93.1399478095924
92.9596215401564
92.8275515297083
93.0046080220502
93.2210967998424
93.0569892186902
92.9703927913929
92.9935866104129
92.8828477469578
92.750118369074
92.6430204780521
92.5600981850189
92.2517275454022
92.3144325115208
92.2643900170116
92.2022841448224
92.2272457910276
92.0893644187712
91.948842982102
91.6908233682203
91.4638025460988
91.6847052153678
91.8215009185214
91.7298071255302
91.5669313540129
91.4295292704856
91.4211159452808
91.4665128594904
91.2685519637251
91.0773172643161
91.0937914533084
91.1236114849819
91.1230802885106
91.0230908890098
90.9276927125069
90.8238856705388
90.5849766853296
90.4016477326992
90.1413510881918
90.1722670369681
90.2954815048286
90.2322607317228
90.0878077364009
90.0705525335378
90.0867649863808
89.8899319913211
89.4829262187542
89.1565048335084
89.0998638010057
88.5838853018375
87.8435584705521
86.8327342778804
85.8130069785033
84.8904470479228
84.0265249093937
83.1630461398839
82.3671408118323
81.2496247120119
80.1310208444532
79.3512035218114
79.0038281802611
79.1116979883005
78.971992830174
78.4355167585163
77.6533748181719
76.9407702569484
76.1770880809612
75.3083606604412
74.7644417813217
74.1864098800158
73.5327175521846
72.8216019104933
72.1088487314861
71.3641293402114
70.5762318637684
69.7848547882287
69.0501755923594
68.1576372537097
67.2602955055586
66.4253545523978
65.4793801940132
64.560618907344
63.5820020053238
62.4298908630517
61.1187629815648
59.8675701012318
58.6171499474823
57.3573916464341
56.1899453054615
55.1624236656239
54.4400679027315
54.2077123321826
54.4496633367749
54.848901158671
55.351920784991
55.8879880943573
56.4035583155838
56.9480484722884
57.5888191860512
58.1789227671803
58.7126882499919
59.222027659116
59.7523614690781
60.2657016775857
60.7674139012208
61.2663899178944
61.7961397979012
62.3145022044244
62.8049786051757
63.2648144042902
63.8206486205128
64.3842741376555
64.8713238831297
65.3115420333104
65.7862460456322
66.2584848727052
66.7238634694633
67.2060326511823
67.6939836280873
68.1327611961027
68.5585415382203
69.0128557297268
69.4746724945598
69.8959420639199
70.3024852913813
70.7050063022384
71.1149597367763
71.502331130556
71.8633809458585
72.214615772957
72.573492733156
72.8967255318435
73.2296347790469
73.5627650312491
73.8964457027538
74.2286404521261
74.5502381974399
74.8498263825667
75.1501356830686
75.4333176172815
75.7232213226463
76.0116055522139
76.2969298354802
76.5819507460799
76.8564945019961
77.1025019453877
77.3500737569621
77.6004778429905
77.8439234678285
78.0807833097299
78.315233177367
78.5327652518391
78.7470791488056
78.9384646005521
79.1283849334632
79.314509375451
79.4909542540524
79.657803088601
79.8468895579385
80.0308910569865
80.1896028817917
80.359836739882
80.527161338688
80.6786072796434
80.8521710649676
80.9939682561694
81.1159165964553
81.24921606003
81.3702327069761
81.4643823357025
81.5532308585567
81.5987006188624
81.6146679099476
81.6055771611331
81.558683231088
81.4596865151231
81.2954962506786
81.0437589207322
80.733451661073
80.3324597849114
79.8273406673903
79.2162620454867
78.5212192546587
77.7761704145895
77.0405447237013
76.3652308408331
75.8147151885887
75.4493533110775
75.3533524001166
75.5231143698604
75.9494276376229
76.5696888203589
77.2573912167283
77.8676475603229
78.3459099662157
78.6406488528806
78.7309677866214
78.6335226275246
78.4021373338779
78.0550354114473
77.6031886361503
77.0590213552852
76.4392195612455
75.7337537781198
75.0058512704497
74.3024752786907
73.6404721209477
73.01369654423
72.4334438568932
71.8817281350306
71.3320525293768
70.7743853300227
70.1907655582071
69.567086698331
68.9518410088072
68.3138849902097
67.6837188422163
67.1707240196795
66.9130594327847
66.9260032828823
67.1119895024626
67.1896127183666
66.9155579878174
66.2841732258535
65.5795521777508
65.2029498919012
65.3725182993644
65.911594695352
66.5682720374676
67.1540827341063
67.6070263687276
67.887815725952
67.9710709949261
67.8682992794285
67.6512472355479
67.3241924796842
66.9221267007878
66.4845432359167
66.0712272138693
65.7489990455125
65.5953731298954
65.6150101484817
65.8652516243601
66.3598171222072
67.040730860585
67.8282475303532
68.7046073196411
69.6238798722805
70.5558735328152
71.465331131201
72.3855642876615
73.2907350485979
74.1722587613608
75.0181123801005
75.8188371355309
76.5612211770548
77.2629125878318
77.9087818866278
78.5075803307861
79.0928905424602
79.6718035909518
80.196944808186
80.6736887828647
81.0680500531778
81.3626293771241
81.6829262643949
82.1852196383741
82.6868722108112
83.1045866615297
83.4429043623612
83.7514440076374
84.0580514586261
84.344940476511
84.6293903441789
84.9071023926958
85.1251684115036
85.332804786448
85.5392679649017
85.7139609380164
85.8954210859628
86.1005074599993
86.27165921804
86.4178944650955
86.5602829751421
86.6944214693049
86.825628346436
86.9672935744416
87.0790811801592
87.1434017488408
87.1489809846391
87.1467844884207
87.1918728527131
87.3244333463725
87.4873519703507
87.6643116303422
87.8133763364499
87.9233481531207
88.0399519933612
88.1748894137983
88.2546308565538
88.2295883488996
88.1418727540772
88.212464644225
88.4363959324714
88.6222602203995
88.7607439986023
88.913560790077
89.0628221159911
89.1962194618518
89.3185244687525
89.4231398102631
89.498316754845
89.5848352346496
89.6691940155727
89.7306042897644
89.7877193070151
89.8816777863605
89.9591771208895
90.001781132245
90.0455150214491
90.1049566659681
90.1463548732642
90.1876570657254
90.2426292948229
90.3374507086576
90.3943805991827
90.4138663094437
90.4540602359311
90.4936287976616
90.5241856035133
90.5916383944248
90.6664162017389
90.6912065677191
90.6920404328873
90.7286306927893
90.7717121297547
90.8227360331794
90.8276383390633
90.8320346298213
90.8695111021616
90.9107461568019
90.943874513751
90.9717681484403
90.995316426423
91.0240492495437
91.0627448983339
91.1016899146223
91.0854244937729
91.0749210075708
91.0705722109874
91.0905033658708
91.0475109967769
91.0213750655626
91.0099709353269
90.9136511534837
90.8317019532846
90.7208103591922
90.5650966924199
90.4289951835734
90.2631392804071
90.1211732077423
89.9405710777929
89.7358521809316
89.6341362154783
89.6017405280728
89.5452133349764
89.4952134270239
89.4808778179078
89.5151266404344
89.5723872474281
89.6813406546045
89.8524219683881
89.9873690417651
90.0373178431659
90.1112353707173
90.2507664073577
90.3256249133855
90.2763610524774
90.1780178858778
90.0408279326118
89.8276207414118
89.4678914629696
88.6357986638136
86.0033554483614
80.0524490352814
72.8539613485022
70.1965673418966
73.8571300488354
79.5260544806604
83.6540857451035
85.9756290013832
87.2099719198796
87.7910792638993
87.9993950458377
88.3400140350383
88.749137286007
88.9649497935906
88.9980205641185
89.0036056027466
89.0525015668513
89.0822339364297
89.0061359814035
88.9230914707322
88.9038076963188
88.8693850721938
88.8073500442571
88.7471356790304
88.6223046023161
88.5070492037461
88.411562762229
88.3164321963945
88.2019335779141
88.0700063824387
87.9195606352947
87.7484819437472
87.5186066095101
87.2725847321955
87.0501961049456
86.8058958134172
86.5362085772276
86.289751233707
86.1080884617838
85.9849887414957
85.8694751854997
85.8315200129376
85.8246833400657
85.857190184076
85.9304313808418
86.0350224789554
86.1333107699634
86.2359347411931
86.3891391229432
86.5194637498163
86.594846687485
86.6685139733947
86.7531137344994
86.8286589742651
86.8771455841854
86.9911158038443
87.1017907660499
87.1394904525973
87.1197914526381
87.1796011281576
87.1867701804007
87.0921224439962
87.0759876947608
87.1697284324003
87.1955062424272
87.1684165737165
87.1582032748652
87.1873837027644
87.1857279948952
87.1986530146754
87.1982978548691
87.1708351669195
87.1774616469627
87.2122530439487
87.2010917009925
87.1643868974843
87.1675806624923
87.2094889897132
87.2176754270358
87.212644840371
87.2077574657139
87.2495687474524
87.2287859988706
87.230475649679
87.2183779393264
87.1574035728036
86.8939067839
86.622196341809
86.1947987480823
85.0720006575844
83.3204498112687
81.0552950325276
79.258485207739
79.3158661955293
81.0543365209534
82.8430280829572
83.6730406466587
