1798
3999.43349933624
650.420452594757
1
128
4
95.8983187074696
95.9280206607475
96.0349633835088
96.0879846571688
96.0875858169735
96.0973502347254
96.0404083708975
96.0452046966977
96.1611260010685
96.1096002747888
96.0129665117428
96.0695963469146
96.1077914306441
95.9913153189994
96.041649196848
96.0706617430688
96.0483849120206
96.0146881343439
96.0469135997095
96.1032271060072
96.0758600590118
96.0147987013997
96.0404860738774
96.0437253218661
96.0805892301162
95.9946392562212
96.0552482235495
96.1380222245178
96.1335814227831
96.1510109534003
96.0733581236727
95.9839828009169
96.0445896475118
95.9744060094186
96.016330962058
96.2140856692227
96.1446527269318
95.9959353419207
96.0256692678085
95.9675222650086
95.9899487451899
96.1356601178939
96.2143744518343
96.141451445374
96.0328666997977
96.0174103964995
96.1375978387342
96.1138118323599
96.0111771665498
95.9008173412055
95.9336335798245
95.8994379497762
95.8985503741961
96.0421068992413
96.2503430996979
96.2756866627755
96.1778413579028
96.1000263760953
96.062230096362
96.0168842070686
96.1081676143696
96.175476903733
96.0989436644783
96.0306949865129
96.098930070303
96.089836370679
96.0769889250713
96.0347138563508
95.9889265992835
95.9325308202224
95.9205447606669
95.9898135782345
96.2083125300267
96.433900586608
96.3529082908632
96.1295334527749
95.9017624420267
95.8542818575034
96.0652635454549
96.3739934110283
96.5494217779881
96.3991738412253
96.0435339681186
95.9281694241028
95.8760847987733
95.8927656215869
95.8931530952092
96.1323144278971
96.3158186243701
96.0463752681166
96.0572531284198
96.3092134706649
96.3446378265594
96.0529939411633
96.0248325739817
96.0865892130984
96.0471822726294
96.0688416146351
95.9976266366695
96.0352860774012
96.4840976290136
96.5873919625777
96.4818690459681
96.3077834929245
96.0560207730418
96.2743214163855
96.3901816556892
96.4111147893645
96.2211091697867
96.0665794046373
95.9908461230322
95.988992700612
96.1182757522844
96.3899203270901
96.4178041151781
96.2870792451334
96.2639831922588
96.5378624654752
96.6912304288924
96.3530955661008
96.1836489066598
96.202227738696
96.2403083053727
96.3036314042999
96.1710124315703
96.1984236640527
96.5125809674491
96.695906690843
96.6206137288184
96.2430823454172
96.1261781450344
96.0803476419224
96.1788897946755
96.1266256457492
96.4122127711175
96.5848793406457
96.3568992622219
96.0687938592554
96.091505801463
96.1836268968188
96.2065006036252
95.995686214679
95.9749224424441
96.2929740370977
96.4174146340335
96.2629993626233
96.1884908360936
96.0837562674437
96.129983955909
96.1727447642145
96.3149780156785
96.2900784724674
96.1748200576668
96.0740220660137
96.1899550196432
96.3375693449606
96.4614645855877
96.4348366934124
96.3059756625296
96.2822008473827
96.4199946175328
96.4215698285661
96.2412390493841
96.0990070794667
96.2349895704091
96.3002555443116
96.3116913374592
96.431979728113
96.579624838151
96.5472367545032
96.4409383194494
96.314446192168
96.1693718025319
96.0478403476127
96.0698892508257
96.1065578014597
96.2541805503788
96.3633164129475
96.4902638414754
96.4372523298655
96.3690543192713
96.2801853703881
96.1783469430837
96.2111448458289
96.2476128078386
96.1977258684287
96.1305431582769
96.1575219818371
96.1554747318159
96.1465523078498
96.2479837971124
96.2537091930549
96.1638673538137
96.1476409872144
96.1807797850979
96.0490348351934
95.9948891490719
96.0070193641291
96.0113806004296
96.0769855202902
96.0931217981286
95.9813479891863
95.8675696147071
95.8294214356268
95.7490339983798
95.680323609485
95.7264791996867
95.7752342494835
95.6955531740476
95.6418482645564
95.7694981016266
95.6234003935136
95.4176041152129
95.3799221220989
95.4817766007796
95.4916978878607
95.4317570154405
95.3243269627738
95.2943652687845
95.2558118335471
95.2582449438207
95.3077972490076
95.2894775085897
95.27040604455
95.1907487401337
95.0826775623782
95.0648929889678
95.0053818158198
94.9462717280394
94.9363018434975
94.9751545887848
94.8963813160662
94.7553545154661
94.7749350943697
94.9101393917264
94.9624636482149
94.8166985954455
94.7398831337606
94.7846608904436
94.7125413712923
94.5729809785068
94.4666689322515
94.5043257055133
94.5647469594629
94.5197220003872
94.3867997582921
94.3528010283483
94.3473703511641
94.295575548354
94.2195316285256
94.2050964083226
94.1938753953394
94.1755729142886
94.0764358561897
94.0197161593876
94.0841373793875
94.1411878291194
94.0247628179287
93.8962937180332
93.8338627401137
93.8390495774582
93.865789783408
93.7748672396786
93.7000126178377
93.7312526968064
93.6282347252851
93.6325842206002
93.6453575979068
93.5933492589243
93.5800787850391
93.6155720895858
93.5474550129138
93.5329504113623
93.532975236676
93.4034930546678
93.3316400923134
93.3484608135033
93.3320061814798
93.2577517215574
93.2303494503726
93.2145145174955
93.1748410337502
93.1295904071457
93.0753335901555
93.0465128029041
93.0269021936047
93.0191679732051
92.9355865700596
92.8749543995306
92.9057970073232
93.0136967165512
92.8524827600101
92.7901697000049
92.8279669820468
92.762660789853
92.6126295770338
92.6575037905529
92.6998955368213
92.5487248676308
92.4018921071958
92.4293963900441
92.510764115356
92.448537348481
92.315270387099
92.3287054975642
92.3161776179108
92.3062874108225
92.3307547408527
92.2425606537217
92.0620193200984
91.9884543624685
91.9668941790275
92.0097537899726
91.9512295763169
91.9385011877846
91.8888902682424
91.8058014245859
91.8439242901176
91.8857194443282
91.738178623549
91.5727735965809
91.5679043250359
91.6430163095064
91.5623007216728
91.4137309329584
91.3597718915259
91.3901455923711
91.4265824069087
91.5163603592374
91.4480580807732
91.3352371524775
91.2700101222633
91.2339002929517
91.1777909402569
91.1144136914182
91.0021338519015
90.9047621870309
90.8823735796641
90.9276154254201
90.8575786808514
90.7898439900869
90.8308134292093
90.8674280005828
90.9042163132137
90.9172182415503
90.7930458786473
90.6960246053252
90.6890830616411
90.7118250345895
90.6831980022785
90.5793402379806
90.5177898486119
90.5669642606429
90.5247726682152
90.4098228844832
90.4403363414543
90.4695368967294
90.3979760150746
90.3807510619778
90.3705568875088
90.2850275725649
90.2870067632261
90.2718708679432
90.2456210323369
90.2593986929752
90.256179997101
90.2056959829209
90.1133109370995
90.2074496044798
90.1768537837824
90.0263030506954
90.0265316906968
90.162380283631
90.2079320131611
90.1773195593568
90.1573991632905
90.2098331220492
90.1706924561933
90.218131305819
90.2751007191778
90.2955127962855
90.2992035118235
90.3306261988429
90.4262569283895
90.4885680276908
90.4916173006897
90.5184034892787
90.5458244589793
90.5903953811285
90.6518398649445
90.679080654338
90.6934016540509
90.6824221203512
90.7165242053093
90.7516706439709
90.724127441171
90.7708168933786
90.8105990444442
90.9031357661521
90.9821418998463
90.9524652617911
91.0017518760053
91.0734844227122
91.0923489112569
91.0954077894366
91.1753126182093
91.2357749456525
91.2330192061232
91.1925842257519
91.2581747491655
91.3283169166601
91.2948059949804
91.3527387011593
91.3830109823131
91.3677332731472
91.4086946745802
91.5188027484642
91.6088791099503
91.6035942141335
91.5885942023467
91.6696643371611
91.6849735490342
91.646553689128
91.6765857295665
91.7304092511053
91.7378760764877
91.7387430393541
91.7818706136542
91.8639791731952
91.9517557374718
92.0034525520167
92.0197910141844
92.0561809338004
92.0327234580338
92.0770832016522
92.0576718065926
92.0617144404246
92.1150485438669
92.2328725578371
92.2780847054849
92.2557213624225
92.2710036901249
92.3432002477069
92.3681458224288
92.3525170961094
92.4454373638547
92.6141988568463
92.5848542522299
92.537131330928
92.5689769977598
92.6034173197671
92.6312316776369
92.6652913288213
92.6650540905087
92.6309357563458
92.7441945255811
92.811540571424
92.7849776068434
92.8478207329546
92.8845436571736
92.8842038697831
92.9002472478113
92.8883846711557
92.9504797047023
93.0883735689021
93.1088685857912
93.0301836793761
93.0159968322114
93.1149344036611
93.1845681076319
93.2187134581697
93.2847532920535
93.2455319785685
93.276267427278
93.3443249085039
93.3574374156512
93.375495663787
93.3814581053546
93.3971298171009
93.4643708627935
93.4816191281423
93.4581923821484
93.5091361188582
93.5332266880809
93.508241883187
93.5229030769715
93.5706007679897
93.5349756692594
93.5736368013077
93.6314022350918
93.6747869904203
93.7058109757484
93.6605176855249
93.6819071846992
93.6890044667716
93.7133914469612
93.8095512908814
93.8441657631847
93.9060770253643
93.9223384013728
93.889978315598
93.9416673146589
94.0117648752171
93.9975424343207
93.9135300502668
93.9042752233384
93.9593781557071
94.00402503961
94.0978236451228
94.1494571201192
94.0899154116902
94.0354316989843
94.0969726308096
94.202931453425
94.2370701615468
94.2160863801253
94.2221545020757
94.2503197460649
94.2449968657881
94.2838772441219
94.3250290593702
94.2034814584697
94.2217867024929
94.4020352290392
94.4376457097321
94.4081414380818
94.3657017059021
94.310168009369
94.4055796562354
94.5268373270743
94.5673125641673
94.4868659369408
94.4141108847049
94.4780838460664
94.5398374003722
94.5090366355805
94.4849683199076
94.5552036532
94.5639103233547
94.553307243759
94.6115412681919
94.7008693747858
94.7228433067353
94.6695343310624
94.6537187523029
94.6363414468634
94.609206706936
94.6612088172419
94.698939340215
94.7192499040968
94.7881911217686
94.7872877843594
94.7106303927772
94.6784367554548
94.7215709215419
94.7701428560951
94.7615535304759
94.7066888613177
94.7201875790317
94.8119061029589
94.8536470234402
94.8636042664291
94.9148047633764
94.9393866449966
94.8798572729534
94.8433641126101
94.9203406887578
94.9350581625252
94.8840204261557
94.8608063104772
94.8855663858198
94.9455426688031
94.9201809881333
94.9455956609489
95.1016266246222
95.1409519051133
95.0717096903545
95.1014571464969
95.1434611229152
95.1919328547638
95.183521370029
95.128324493887
95.1490179900676
95.1766092512466
95.1662188546436
95.1223711435356
95.1271191364569
95.1926822977253
95.2069833857802
95.1882119783702
95.2067029198129
95.2265418771114
95.1984630799419
95.2053728401377
95.2018486271172
95.2414629871251
95.3060437351243
95.2832968873342
95.2346032230576
95.2470429893918
95.2914237110695
95.2548123331737
95.1856518804415
95.2153193454655
95.2878014746046
95.3326158178923
95.3443871665778
95.3544494093727
95.4054842356326
95.4340420017873
95.3982968478313
95.4146620280469
95.468161909663
95.4396827095222
95.4047644109878
95.4593609675012
95.4711820075659
95.4900968599734
95.4787397024042
95.4159806288672
95.4380008386322
95.4612365462279
95.4543601570919
95.5174902369131
95.4982084015343
95.5028661560781
95.542144978175
95.5212674595107
95.5208615949714
95.5070224956476
95.5313076194653
95.5991373546426
95.5857122807955
95.5557060827748
95.5109778429799
95.5250624799074
95.5477237125941
95.5354663817323
95.5503625575196
95.6050846726467
95.5957901777196
95.5628057139967
95.5512586011218
95.4976584124388
95.4458984999757
95.4961295898551
95.5240970432734
95.5282163936098
95.5095901226817
95.4946663326258
95.4547413867757
95.3984094906825
95.4097264862537
95.3943817528091
95.3458383042488
95.3359194811705
95.362169489811
95.4149234483554
95.4390853461209
95.4863992720687
95.503246606929
95.4705082381536
95.4359828083419
95.4445781929696
95.4892694838092
95.4791497473979
95.4353358598255
95.4456406370427
95.4761386823065
95.4709057932012
95.4239972281893
95.4616547690699
95.5070471270851
95.5009782663299
95.4773374558072
95.4185988636603
95.3466408168533
95.3624148328937
95.396795573893
95.3730033111189
95.3280968969908
95.297923650772
95.3537244494816
95.4611597523349
95.5295860089849
95.5803918101187
95.6308434429152
95.6528736012106
95.6662008168287
95.7279638457321
95.7408966526727
95.7487947404733
95.801042294024
95.8295277666733
95.8139169878072
95.8001957428263
95.837556790825
95.8686458394732
95.8479143824071
95.8418617653089
95.8975332758896
95.945511492226
95.950963071823
95.9691149623718
95.9816739138805
95.9915914256484
95.9763162584568
95.9760718793106
96.0063289022913
96.0354818910867
96.0090727925758
95.9914741442798
96.0406543192927
96.0587251627367
96.0405303227475
96.0577088139983
96.0670978725013
96.0523391060973
96.0406818543791
96.036718232644
96.0338980215353
96.0237166222928
95.9961180509996
96.0165845915491
96.034918115422
96.0747547138396
96.147521622681
96.1421513953614
96.0784188174826
96.0550917219406
96.0691513070215
96.1495196972125
96.2157758088794
96.1862306635496
96.1457804167563
96.1829188263473
96.241571917996
96.2491172485175
96.2206523516723
96.2396294009817
96.2876475263071
96.3000703063195
96.2852866677877
96.3235853426081
96.36384891237
96.4347084496222
96.4576640403853
96.3445072824441
96.2611513557459
96.3527337835661
96.4207249900058
96.4510802231658
96.5038117609803
96.5029987482246
96.4806251614844
96.5416559504793
96.5522316162198
96.5367553075113
96.5057447415436
96.4899698725668
96.5052300520075
96.578427904783
96.5816801802954
96.6485881741293
96.7303876318794
96.7117890353674
96.6212939503556
96.6066764304257
96.6792845244427
96.6842701897014
96.6084118899911
96.6216321412482
96.6009642071818
96.5940280042191
96.6313363573299
96.6605572672798
96.6104999702684
96.6094175841755
96.7230680070663
96.7521827106606
96.6804995477714
96.6984644108333
96.8167480598711
96.8659329973221
96.8403485700434
96.7470691801629
96.6860675634232
96.8035144434825
96.868642464726
96.8317041621587
96.787017500674
96.804474344077
96.8370779410422
96.8204448955234
96.745866558479
96.7323296039877
96.7993464567625
96.8480124181082
96.8355814968619
96.8341589830798
96.8319399387547
96.8209622058479
96.811216103869
96.8353250084251
96.8413951925061
96.8011274175724
96.7069689283102
96.6834699886987
96.7314501229019
96.6641470950308
96.5391006742227
96.5097687272428
96.4957386096381
96.5562497148108
96.6623481255136
96.6439744879421
96.550376290056
96.5451664535407
96.5381669996211
96.5346734786069
96.6103532657068
96.6648107025535
96.5961024830011
96.5525282856098
96.5851667528896
96.6607993702324
96.7104441173977
96.7182632519253
96.6695885303647
96.5902694399947
96.5462957470939
96.5655048840382
96.5572816859612
96.5720635012934
96.6195018716172
96.638440493276
96.6511345381812
96.6527706065565
96.5617542036905
96.4558651208954
96.4079136735593
96.4368427143869
96.4592504813338
96.3746073056706
96.2017767056313
96.1272133222809
96.1860796095472
96.216787809662
96.2125020170436
96.2360098680124
96.2492980475537
96.271036561372
96.3112608848121
96.2366390204193
96.0592007176473
95.9684685951307
95.8810691648373
95.7044761338863
95.4907206905415
95.2271088484618
94.9010973055478
94.7698152421505
94.8589130739005
94.9835827012279
95.1728995196579
95.3647242272613
95.5180131968669
95.7180505295389
95.9135820371088
96.0319917934882
96.1490443103499
96.2212378798462
96.2840040361101
96.3893387209791
96.4854442680034
96.6460396891587
96.7670749639741
96.7803211386181
96.7859940369345
96.8601477002122
96.9310090392187
96.906149471151
96.9175806667473
96.9487589639184
96.8623895935728
96.7110015310129
96.5308163709434
96.4818373194055
96.5622905163318
96.6205063783309
96.705899778295
96.7101602272944
96.7148527483472
96.8192755853838
96.878993054806
96.830646009163
96.7806459632079
96.8215434348667
96.7392695702755
96.6292711017651
96.6424418415213
96.7103117087946
96.7649554834424
96.7833527446674
96.8117102417637
96.888432608307
96.9165728091149
96.888529258906
96.8260184496428
96.8191872700061
96.8284210660407
96.8426127229213
96.8697638177437
96.8928621208532
96.9096199513929
96.8728447147346
96.8209700053796
96.9112672132505
96.9401080979478
96.9710681349886
97.158775643234
97.2715493332505
97.278478629425
97.3548316980665
97.2516283398032
97.1675279525519
97.3028986746651
97.4134086496114
97.4825914062931
97.5890500405661
97.6105660534827
97.613530018492
97.6931058325874
97.7807298199591
97.7005343924414
97.6883762551294
97.7728804492214
97.7514894416257
97.7698671054299
97.9583920615285
97.9580355388897
97.8626463256272
98.022838543997
98.2019780087225
98.1518283947108
98.1368746616772
98.1770088486093
98.0822183653758
98.048357525902
98.107756544278
98.1988820846981
98.3670325740296
98.3571349320919
98.4577917970071
98.6258436462928
98.6671146035448
98.8055647953803
98.8864683424741
98.6839551317608
98.5744386172882
98.7829338355927
99.1028695781509
98.9732692169194
98.8165169449555
98.98556475202
99.010029319866
98.865367823945
98.9084626824818
98.9540448533653
99.0655275291699
99.2405149366749
99.433766561867
99.510225964907
99.7492369542326
99.811027422357
99.676489098513
99.5898929572922
99.7081036676154
99.7577488519449
99.5878135208883
99.6149476122675
99.6823008963753
99.3794754337827
99.1503069139478
99.2636481400299
99.6112796989783
99.8749547629917
100.31189678091
100.590187643204
100.210376784048
99.4800829376483
99.2484254867158
99.5692890551604
99.6231742759921
99.2742830669959
99.2235307414116
99.1344620996423
98.7823985504057
98.6073019482533
98.5992119256026
98.6365581300232
98.5462045910864
98.3539413360925
98.1861966069587
98.0434332538225
98.058144963186
98.1431694813465
98.1360842248749
97.8873920040976
97.7690268246062
97.8407807828235
97.8096709173974
97.719952158882
97.7454259187931
97.7655595925653
97.8110541770982
97.890427719484
97.8629294642892
97.87070904109
97.8509008045772
97.7339109980479
97.7896374584345
97.8167227629333
97.7128469480257
97.6650316372259
97.8338030778424
97.9263740239334
97.7584044281511
97.6013337215365
97.5953562581683
97.7237275421485
97.925146559437
97.9435267770449
97.8516160230232
97.7006121374311
97.7715200932739
97.8983826628252
97.8636361207711
97.9226858372171
98.0951811876501
98.1429160887546
98.0358931254568
97.9972135040932
98.1150745450632
98.2460996001858
98.2993425200948
98.3357435087211
98.5677234171231
98.7857386236946
98.7964566760974
98.8348279819845
98.9414717614567
98.8168837816354
99.1452616110858
99.7172854743561
99.4450187642711
99.0616362769978
99.4865774552909
99.7952655379586
99.6214472273811
99.3776733575357
99.3299215906119
99.4782120849571
99.6032391227335
99.6564383155871
99.6017208073443
99.331138483348
99.3713520803256
99.5569157296145
99.6793436731917
99.6061484048566
99.3100147883425
99.1522529129478
99.1070435139045
98.8910348051209
98.7822649336474
98.9856316449009
99.1181678674371
98.9063001280591
98.9104980080191
99.084500598265
99.2236925790356
99.2610258014262
99.2703977371588
99.4201088617209
99.6674324074689
99.7961547353195
99.6985169838965
99.4376331620365
99.4630386428961
99.4793265798523
99.0558359878232
98.7146184437285
99.0760118976727
99.4562430652832
99.3755836181333
99.1199497198039
99.0236035584744
98.8679013986174
98.6194106482777
98.578606889265
98.5878942872212
98.4646488966856
98.5227223025416
98.6794141622321
98.5055028456891
98.3364168560706
98.5725178495489
98.6436323933881
98.4520057675388
98.2566869777246
98.3385444731575
98.3646863353961
98.1791779076706
98.0831156701312
98.1084075972071
98.1322879723546
98.0516130702347
97.9945038592306
98.0438783801002
97.9780273773818
97.9204874155714
98.0230060500919
98.1186086043347
98.0995602079352
98.0890170857167
98.0929675456282
98.0266082582266
97.9955968652485
98.0436095243739
98.0148157791957
98.0192531177395
97.9699730676309
97.8960299530743
97.9343543651098
97.954988743651
97.882949069105
97.8131320895029
97.8058803021428
97.8482692959575
97.8657038474302
97.8129858605928
97.734043204805
97.7554521048185
97.8505226368132
97.9318249830636
97.9168048866742
97.8616281858587
97.792175786708
97.7937214465893
97.866781470284
97.8953361345591
97.8196770290385
97.7203916034924
97.6808777266427
97.7683588633402
97.8360292362429
97.8190940423131
97.8592875610445
97.9094009965964
97.8419562018567
97.7551411993227
97.7233568178286
97.6956705045197
97.7183767467389
97.7663855198491
97.7615035964672
97.7507697013798
97.7874540535296
97.8395366759772
97.8559594308795
97.7954854600495
97.7564090955199
97.7544353733691
97.7509305152737
97.7547450572466
97.7541228731617
97.7459885836655
97.6812772979748
97.6149179103491
97.650999452573
97.6740572929692
97.631915697591
97.5893358427967
97.5562681532603
97.6298236791193
97.7258029022139
97.6757895129211
97.5850815858276
97.5451623102074
97.5586796456753
97.5612168266953
97.5071914276081
97.3986732595182
97.410387073799
97.4570487519985
97.4707331971551
97.3937723294703
96.8745186931754
95.484445328328
94.046195451002
94.2959384057405
95.4608146612262
96.2478221704383
96.71747206801
96.9591333628415
97.0235695345113
97.1233109188371
97.2570352684277
97.3035768636457
97.2757643925234
97.2296123435448
97.1888582211342
97.1592245079924
97.1352388123714
97.0889942486795
97.1393155677833
97.2171301660544
97.1418431564587
97.0637445312005
96.9795297266233
96.8939453147696
96.7815057022709
96.730573612761
96.6927165822464
96.7117835145037
96.7608733593366
96.7510512437592
96.6409860372042
96.5043654577359
96.3845254648263
96.2539608922327
96.1233414051728
96.0519613367261
96.0014923192319
96.0663635011659
96.030248205871
95.9748754980708
95.8207172679501
95.5782654879243
95.3244435338909
95.1607284787256
95.0943108774842
95.0732216529937
95.0164032795729
94.8340437192962
94.6583959545978
94.4459233971327
94.3524706159264
94.2870716245912
94.1948502968598
94.122745194983
94.0678992426723
93.9852731734695
93.8646409267331
93.7363447207086
93.6409242435742
93.4861770299842
93.2914742567045
93.2828710961479
93.4642368225316
93.4220652203961
93.2884261684374
93.2202053666081
93.1541489442222
93.0490851158287
92.909330093375
92.76447224442
92.7356024308169
92.8799317985039
92.9608382386197
92.899350444532
92.8193109689851
92.7879825845249
92.8058334358503
92.8277049758125
92.8962659067246
92.8883315770738
92.8628059768559
92.9368451559819
93.0358561481849
93.0291788171966
93.0108732142935
93.0251846645457
93.0713190929994
93.0970237845395
93.1309023460892
93.1650108774874
93.1703912372723
93.1741887754005
93.1804539214813
93.2222602184928
93.2684118392933
93.2911256608223
93.323012743713
93.3590171440046
93.3351991979804
93.325184818198
93.3218864702963
93.2707697732776
93.2265705022759
93.3613300158614
93.421120133424
93.3647611330503
93.34684620204
93.3367075853085
93.2371281594034
93.1459982766188
93.0132773671234
92.8168708103708
92.9631798693267
93.2266894837179
93.2642024150493
93.1983488837159
93.0764217426621
92.9810134452458
92.8921763809702
92.7342236666296
92.6756225694267
92.6797587184872
92.7990688272516
92.8656714429924
92.7845712574692
92.6332818907813
92.5814380883991
92.5045117241948
92.3770729336979
92.2519134263927
92.1557631818813
92.0715581639736
92.0445542406914
92.0838090036324
91.9778582475806
91.8688329967252
91.7258221705891
91.5429777275713
91.3794538311921
91.2625733275461
91.366755981536
91.4344391540671
91.3088107355171
91.1458492979156
90.990157280416
90.9048024053094
90.9050859517528
90.813644463364
90.6416812826897
90.5979348068593
90.6284218689794
90.5924952359264
90.4878890147965
90.3655896573635
90.2375533006467
90.0651565884164
89.8809619669586
89.7534500203367
89.6826056210302
89.704551261599
89.6384378199697
89.5158704157938
89.3972556562589
89.3713274617038
89.2857849662808
89.0614127591633
88.8484806899834
88.7536606974758
88.4998577108936
87.8812498090167
87.0472566749527
86.0293158628114
85.0215648082094
84.0820714712111
83.1804748865483
82.296881733875
81.4799138859939
80.5694991196525
79.5344929767818
78.533013201617
78.0801532431161
78.2374364113225
78.1309663927556
77.5425719597723
76.8073988366568
76.0682647294286
75.3357402205388
74.6832582466082
74.0799926499782
73.3737025349058
72.6295209836414
71.8608172581282
71.1100957550419
70.3548556860549
69.6139460112147
68.832030788881
68.0329320997344
67.2003936252884
66.3816026554659
65.535069976823
64.6626132683013
63.7063656217468
62.6662601220442
61.5639507174834
60.4018413832627
59.1832540675505
57.9145177387938
56.6484042296915
55.4648330479365
54.3965249931243
53.6050606784875
53.2764875758646
53.3610707051316
53.6346377607023
54.0659729766509
54.502879366492
54.9621617154565
55.5389938394967
56.1691696145294
56.6840691517763
57.1614100710679
57.6440003186448
58.1489534240053
58.6347243284551
59.1390577132845
59.6360223188774
60.1357986130839
60.6443589977751
61.1416308830877
61.6629278563695
62.2569003349789
62.7802286527097
63.2399567899579
63.6938300918856
64.1777142616779
64.6279850137554
65.0915414563701
65.5725988655313
66.0655720907023
66.5463427530939
67.007968311398
67.4667785973524
67.9103908908202
68.3311193340378
68.7666013562238
69.1699399402635
69.5769334476365
69.9724442415616
70.3347531447878
70.6976165719684
71.0783288302171
71.4384187673942
71.7751732142895
72.0924311423007
72.4313088995238
72.777675172096
73.1270214703
73.4464806573397
73.7275327925644
74.006540035288
74.3241670734585
74.6292186031654
74.925207557296
75.2017732223494
75.4679407174111
75.7364249259333
76.0173255527178
76.2824252523317
76.5150107809059
76.7479860903931
76.9976678989961
77.2240650803139
77.4410972747151
77.6409162829142
77.8486729959557
78.0501190787133
78.2245522035113
78.3945399485325
78.5718318809841
78.7505936010261
78.9450132513929
79.1375989337611
79.3325567252316
79.4984170799381
79.6611546841555
79.8240915806775
79.975874528302
80.1090449787712
80.2417713791662
80.3583821980666
80.4417460928074
80.4979775666178
80.5474248738471
80.5576964302322
80.5423672677581
80.4717302512358
80.3347503575044
80.1079888189272
79.8029763885632
79.4172978327743
78.9093583483714
78.2779290750795
77.5633356504831
76.7998213244317
76.0302837265795
75.3083814800035
74.6927402277594
74.2441764637413
74.0713457941991
74.189470497456
74.612534846635
75.2600690888938
75.972297099582
76.6196457040045
77.1497070556253
77.5022854381981
77.6513147795321
77.6100452742502
77.4245851079257
77.0940476945642
76.6655453147177
76.1146869233
75.4628185810423
74.7411375541901
73.9921826088371
73.2549685324955
72.5729729150116
71.9346119013348
71.3370486829961
70.7565897139652
70.1626364874201
69.5713439820636
68.9810392045885
68.3510257792348
67.6945936510266
67.0266560417988
66.3931762377647
65.8283925652066
65.4717764933084
65.4118114283553
65.5713739355246
65.6540828108168
65.3971216810856
64.7542812046454
64.0027164137626
63.5652315451628
63.6642672229612
64.1545569068147
64.7979532078671
65.4079360228927
65.8899339286835
66.1942265048475
66.350767185709
66.3147021687292
66.1158995522151
65.8117668902312
65.4109057556719
64.9423658930575
64.5047164286372
64.1260188256386
63.891852055076
63.8698543352546
64.1049903255746
64.5379577013085
65.1298474466062
65.8987313221361
66.8176614041947
67.7370353077171
68.6685200170902
69.6146193847315
70.5610596984621
71.5041608604309
72.4501706571715
73.358284970966
74.2196674062272
75.0038219653564
75.7459372822965
76.4491664475207
77.0948636771023
77.6876785403861
78.262344634416
78.8142333608912
79.3673828158246
79.849302456072
80.129406988834
80.4228786027558
80.9643645800004
81.501203866666
81.9432036033914
82.3221477533764
82.6635431958013
82.9648822666813
83.2832605846368
83.5910755077884
83.843575634999
84.0770756332024
84.3212627547836
84.5369286436786
84.7568139133903
84.9530666241985
85.1308230218835
85.3038775971009
85.483134386574
85.6638273401512
85.8121164066541
85.945940400548
86.0962974850337
86.2200327300177
86.2744641417299
86.2820839306941
86.2956619750659
86.3454733384819
86.4938309683146
86.6783991625543
86.8056520656061
86.9159412710954
87.06145510979
87.2006373356198
87.3158645713567
87.4221079327043
87.4455508692878
87.3849984304019
87.4207855329348
87.6211896900762
87.8724890751103
88.0585511893597
88.2143841741566
88.3709242584383
88.5018053406275
88.5820733085895
88.6763691248706
88.772484214848
88.8507726440505
88.9481719155521
89.0637030624461
89.1459790769941
89.2403148300239
89.3164675506711
89.3821319367707
89.4286753753554
89.4742085195397
89.5207723685113
89.564834241164
89.6242938347672
89.7157876311811
89.7613515217911
89.7853017876453
89.816982801804
89.8536190426884
89.9085074138402
89.9889070785513
90.0358712495092
90.067359005696
90.0841141570389
90.114655700233
90.1671819907774
90.211835620752
90.2357156790545
90.2734768500278
90.331939675275
90.3584744788987
90.336731550404
90.3643382153697
90.3766046507361
90.3958471220726
90.4428306697825
90.4427738342877
90.4435507681215
90.4851229079294
90.5225426683564
90.4961610774463
90.4626849135213
90.4368219787127
90.3913328067058
90.3374853911099
90.2439403059758
90.1083974296895
89.9369445456227
89.7689736983407
89.6173532366323
89.4736582583021
89.2673495625296
89.054355177235
88.9455981612468
88.8633488305753
88.7993675873733
88.7575620627949
88.7027518372593
88.7306407124561
88.8270191530614
88.9559168438327
89.0775489886785
89.1670947189922
89.2709783017154
89.3933721236797
89.4796220839727
89.5203697466566
89.5088851838485
89.4727492700613
89.3431753009421
89.0966660800098
88.7058433646995
87.8314348802613
85.2012222663114
79.2154139467524
71.7868947309401
68.9082627089598
72.5959435413707
78.4097257805742
82.6898832961723
85.1693901012497
86.4802902227342
87.0395502266706
87.2196432572404
87.589506574678
88.0005662270194
88.1807241734524
88.2239169861538
88.2640448997421
88.2538171375812
88.2287873908572
88.1990050739341
88.1405671388695
88.0466978559668
87.977873703974
87.9413070265429
87.8962703480361
87.8237042284123
87.6807691653843
87.5647630280803
87.4674641036661
87.3279124727445
87.1731014998522
86.9560900476642
86.7381706446669
86.5334850594507
86.3136328256681
86.0797588280924
85.81814295563
85.5605189562535
85.3310065313599
85.0850017435903
84.8801276252669
84.7548579800412
84.7167070919918
84.7117793654221
84.7068509863917
84.7333616946396
84.8255176285326
84.9309310136243
85.1100897262435
85.2541232154116
85.3467321368105
85.4164843129015
85.5072338161134
85.5602296648613
85.6437877407523
85.7785043572169
85.8581211864388
85.9212978620354
85.9740601115923
85.9959910680687
85.9953380482825
85.9367388678503
85.8694120654457
85.8832673927239
85.973553585476
86.0139935481832
86.0128615616015
86.0048830313597
85.9862260871918
85.9282767149692
85.9106994361985
85.9112345650754
85.9322485867306
85.983199740346
86.0453967703767
85.9787047218381
85.8964696270218
85.9677410223329
86.0037869016483
85.9859325751634
86.0411071218664
86.0736106439842
86.0850993462933
86.0553506860537
86.005694168987
85.9154586974833
85.8018388290354
85.5953401701066
85.5604828461748
85.217668520207
84.2137340129152
82.4013928750213
79.9225852117115
77.932542302193
77.8312716482652
79.5303281992942
81.3817747672424
82.3557059747298
