1798
3999.43349933624
650.420452594757
1
128
4
93.3820016679219
93.3604807358106
93.267560398774
93.2426870864959
93.3707745891197
93.5129453137304
93.4764439179512
93.5058069246127
93.4319675158488
93.3863854565746
93.462372877007
93.529684850047
93.4346365477183
93.3152385108879
93.3101773268388
93.3649150189009
93.3432786557511
93.4208692065238
93.4670753576152
93.4646548279626
93.4000777347047
93.3593276705727
93.3984173311479
93.526712675469
93.5344925308451
93.4853862663848
93.3685501297096
93.3890041157479
93.3950237048226
93.3385607080041
93.3556099360482
93.4907739250912
93.504756796395
93.4356726983114
93.3808600068722
93.445838928065
93.4466109223081
93.5063260824391
93.5373293420302
93.4938711814257
93.4545744141783
93.4844043090684
93.5227708732756
93.4532750119723
93.3245651421617
93.3595668722374
93.4203140594068
93.4887039775838
93.5307114904968
93.5359469410721
93.6216945223369
93.5551603002528
93.3320886361776
93.3582044145228
93.4328285159662
93.4974326887889
93.5668554790647
93.6662111833845
93.6388617008081
93.5905729633543
93.4921726431312
93.4366495639195
93.4139788789501
93.4619309391604
93.5273977498633
93.6275510378368
93.5552471835813
93.4814319490294
93.5111190398111
93.5949834605282
93.6136801014414
93.6608459736922
93.5970049784624
93.5443500689118
93.5772186527299
93.6379346886077
93.6590295543132
93.6125793992454
93.5575374729516
93.5402171082464
93.5653418070377
93.7393767748074
93.8082667080764
93.7059673566263
93.6170647671447
93.6055157021421
93.4933260422222
93.4947763149686
93.5314513895847
93.6500983964746
93.6699849714272
93.6146731050135
93.6572705725886
93.691546727594
93.6565979822915
93.7610090378252
93.7510352772874
93.7402497128312
93.7936058200739
93.7462228289988
93.6492349645061
93.6750125060137
93.7534398535097
93.7839895634507
93.7469298692363
93.8414835786521
93.8009675035926
93.7147709537941
93.7421083107509
93.7823743198237
93.7791616181143
93.8812558905303
93.9526442625341
93.8856604221725
93.8126223623502
93.7995951691969
93.7793914597949
93.8281912814227
93.8349077807722
93.8336318943367
93.7935706100657
93.8002655899898
93.8223393932902
93.7715319107994
93.7695195561
93.884340741509
93.8571468835753
93.768126545672
93.7420454996905
93.7277708714577
93.7748260917597
93.9137578272011
93.8743186718249
93.8216046441419
93.8134860819939
93.8759402139119
93.8317226545351
93.8279442377586
93.9059647734285
94.0174335023086
94.0530737650731
94.0480950653818
93.8326896191652
93.7913993217254
93.920147131355
94.0052460518495
94.0921934834097
94.0841251643589
94.027954074709
94.054985636841
94.0026460424103
94.0384189022607
94.037313150347
93.9975261705602
93.8790335010385
93.8626013789542
94.0326956704163
94.1340278925473
94.1051782081933
94.1587103242378
93.9569989766901
93.857320533068
94.0571244621348
94.2286253567162
94.3247397422245
94.2855362592045
94.0514744466901
93.8571274233483
93.9547654642917
94.1309038798502
94.0773055568144
94.081590953301
94.0947654578784
94.1519261842692
93.8676801748023
93.8551744558808
94.0671233700957
94.086003018424
94.0395726839765
94.072194360566
94.0751807540145
94.1637771277418
94.0665851027861
94.0004103305751
93.8989012120613
93.8382332340673
93.7794511958594
93.5648670006943
93.4746484531611
93.582774120568
93.6768497995693
93.7162797568488
93.7340642187563
93.9115262680633
93.8142532588491
93.6352470697693
93.5386049226774
93.4766140854391
93.3428167575783
93.15269760147
93.1041879462329
93.3385735556488
93.5123386163029
93.3131111981352
93.053098008032
93.1256866478108
93.1390672871506
93.0981838168324
93.1635441929868
93.1834302789722
92.7669433299986
92.6905223069552
92.9423893309482
92.9824913732334
92.8682421170606
92.8108174107036
92.7295952624525
92.677199251045
92.5187686715926
92.6030566177885
92.6247248467912
92.4327697238577
92.2672795964861
92.2958381392915
92.2800065578263
92.1623146814815
92.061175791413
92.1770693361
92.1292071919066
92.0793816354921
92.1019974518499
92.066462547944
91.9242565103675
91.833866692675
91.7338272284665
91.7153179871593
91.6744412704869
91.6972072277804
91.6939574380876
91.6364086368172
91.641423096804
91.6087429316722
91.4437584424278
91.3268545105552
91.2365020150349
91.2679975051399
91.2235846901197
91.113819498235
91.1199945758847
91.1246247552866
91.0383269312189
90.9475206195381
90.8645125381591
90.8180699553787
90.6716922705826
90.6395075287456
90.5095376549098
90.4547324429798
90.4380390433486
90.4985815461108
90.4825609511518
90.4905361747498
90.4962018409042
90.4212686914815
90.2487042954405
90.1529454162105
90.0637704857468
90.0022420915293
89.8791296628418
89.9649432933228
90.0535222418887
89.9609484207237
89.7164175162153
89.6505975294868
89.644489582916
89.6065696550921
89.524404486729
89.6034228103989
89.5752979499108
89.4346895889232
89.2105853924297
89.207663633881
89.2313054472767
89.2010779388615
89.0885827507977
89.1053036063814
89.0439019181627
88.9965054854572
88.8990079785858
88.8088631367995
88.6892565708032
88.5956216553091
88.5851500688318
88.6583042912137
88.6074739719714
88.5454554854567
88.5088712001085
88.559293622132
88.4151579781837
88.3336401963077
88.2236029564103
88.178111978163
88.1014929363843
88.1360755149608
88.0855103095753
88.0161372328862
87.8849878677689
87.8769510890653
87.8546820365525
87.7637023269992
87.7582456028266
87.6901262998104
87.5330012054395
87.5011487195487
87.5322562407192
87.5632058118843
87.5306743576107
87.4364183221195
87.3538722161725
87.3980919145109
87.3459118776083
87.3230975425826
87.243885990545
87.1748751891635
87.0252121508051
86.9580522914885
86.9456728442954
86.9763046603868
86.9681535479172
87.0310980856375
86.9766828838322
86.882036925116
86.8221800618855
86.7654243904291
86.6941606769427
86.6842821030311
86.6579750744827
86.6821738876075
86.6643867152761
86.6538658872652
86.6020067860944
86.5289094883282
86.4930124128713
86.5171909436244
86.4125505909924
86.4713487000886
86.5459027651916
86.5060170241933
86.3692771665906
86.2990449353967
86.234234529143
86.247896195928
86.2827711963347
86.3603334525415
86.3100221464678
86.2914939955442
86.27641674324
86.2379211912482
86.1570105031895
86.1270690814354
86.2027853012693
86.2756778614562
86.2155514155091
86.1720328588075
86.0110710602153
85.9504901916104
86.0040094945409
86.0804090205483
86.0678110123713
86.0650292164234
86.0209986247667
86.117197910321
86.1488712849462
86.0419476161577
86.0156091333384
86.0670008950145
85.9876371933355
85.9962779390939
86.0807286604866
86.1252542519676
86.0532308453724
86.0127413271448
85.978183665035
85.9897468844245
85.9408059496107
85.9417426774487
85.9278797389326
85.9089249421669
85.8677978231673
85.9678751278391
85.9203280953066
85.8829695464648
85.8577316703349
85.9092360764463
85.890764539922
85.8375775965096
85.8038918381408
85.8478598303902
85.8906905828404
85.8941107188256
85.8848782618623
85.9632389296917
85.9600137688254
85.980125587031
85.9206880071356
85.9796171538466
85.9675588978806
85.8936986829779
85.8328423960062
85.8963687602516
85.9032009416394
85.9062859077956
85.9092498362224
85.9733115104162
85.940645174132
85.9078659200109
85.9135464198108
85.9315275271518
85.9308748791298
85.9492264020208
85.9160572661118
85.9168730052494
86.0146963209503
86.0675489702303
85.9758107928433
85.9557853683077
85.9900756333893
85.97005539682
86.0050376130219
86.1301754110703
86.1428265702134
86.2103969488478
86.1992275601883
86.1070457206777
86.1350641594398
86.2064845776483
86.2015955766729
86.1932558924158
86.1981356670885
86.2332161274399
86.1982041788216
86.2218152876361
86.2422899176773
86.2516447301868
86.2814248136652
86.3500776265676
86.4249725768786
86.4381234321401
86.4637104773452
86.642497346997
86.6264942925913
86.4929491742687
86.4906683449772
86.6540878765641
86.7754167103177
86.7847810759851
86.6940020388317
86.6782071897277
86.7045252000499
86.8282960088804
86.8968542114648
86.9815256926797
86.9637297406733
86.9319629760353
86.9280759304924
86.9415771563229
86.9940223564912
87.0298538334168
86.9803853787624
86.9867306780516
87.0828262985145
87.2583058344183
87.2687101146434
87.3427159517023
87.4033989107829
87.3045311979381
87.2209606135046
87.2660035379675
87.2727708893169
87.2871149749465
87.3476703255748
87.4587566292957
87.403958817199
87.4076444086292
87.4114076751147
87.4329962973399
87.5233833258494
87.5993694810118
87.550315785583
87.5520494120956
87.6229254427161
87.6386818638216
87.6031549781206
87.6315226310038
87.7117439373034
87.8431309886018
87.77809667136
87.7054023220341
87.7473858596547
87.8673647693791
87.8898935321776
87.8817948432428
87.8227580725073
87.8633708837024
87.9434823899153
88.0511929323015
88.0788024260242
88.0795139187308
88.066494557095
88.0552405271365
88.1287762497226
88.191543377924
88.1853869193129
88.1933171342764
88.1540863134538
88.1873879215208
88.2509033873461
88.3117952977142
88.3434790366733
88.3646429242871
88.3528322740465
88.3888789326919
88.4181637699136
88.4670953660685
88.499750221297
88.5382457870219
88.5186485772724
88.5624805368612
88.5942087836936
88.5943534124101
88.585764244903
88.5810005471295
88.5839660452804
88.613376406695
88.6320870254799
88.7065934944563
88.7303888267106
88.7186071895244
88.6670358501872
88.6698991156653
88.6614452078392
88.6605850613584
88.6557564888337
88.6276855447118
88.5485368929053
88.4801254084419
88.4910841164809
88.536373593101
88.5406492311735
88.4865521767691
88.4384826394217
88.4926806183533
88.4425556467572
88.3650454804564
88.3824477207514
88.4546878139601
88.4046695744612
88.3065707402954
88.2470848846191
88.2866304947491
88.2902792084061
88.3060356152084
88.3451980850126
88.3296511687926
88.2900409661827
88.2959995298013
88.2692787538811
88.2943760612554
88.2613720675729
88.2587099223046
88.2438209444011
88.1837252832134
88.1703619916466
88.2235220192914
88.2871033957699
88.3239718717838
88.2780359375798
88.2891955351287
88.2583615936639
88.2882180397152
88.3959582009634
88.42464533393
88.3796604333879
88.3895871659574
88.4481915163328
88.5042596530474
88.5395316369325
88.5294362040541
88.5493197604691
88.6370470260878
88.6910064218302
88.7594367038017
88.7873758602981
88.7302864706758
88.7201192524411
88.7726696595421
88.7321067649251
88.7885576325363
88.8841508856522
88.8423369011628
88.8118166552882
88.8867028703711
88.9104181554247
88.8951406522666
88.8954889530073
88.9662079625956
88.969834358242
88.9690244553328
88.9777793147487
89.0258862387864
89.0836049638347
89.1609430266636
89.2272397300748
89.2345674347121
89.2053218344669
89.2669500078394
89.3027162048011
89.2876106749014
89.3562699506601
89.4547443025495
89.3973326173612
89.3682210806774
89.4803781972271
89.5913441420452
89.60107560211
89.5941809244861
89.6129814997392
89.6415695216778
89.6658470299569
89.7047557129174
89.7145735377855
89.7253721787507
89.727627913066
89.737214965155
89.7705421507382
89.829355749042
89.8723389622246
89.8845164371261
89.8738284839425
89.919942464821
89.9219771766815
89.9474384791269
89.9954119340027
90.0209754455977
90.0548757663281
90.087227297754
90.0749654527395
90.0738652520593
90.1064183075684
90.155144686633
90.1328482219783
90.1186448912284
90.1014135647437
90.1072836252462
90.2042481015705
90.2848007921941
90.2886143265
90.3152944699858
90.3415642583845
90.3413494577064
90.3386733219599
90.3315326480797
90.343701677497
90.4015771722909
90.3901832634715
90.3527783497861
90.3221292725239
90.339535165015
90.3986191765252
90.4093542014325
90.4390595383664
90.5126293823312
90.541747625608
90.5534011345035
90.5855532444493
90.5595942172626
90.5252144644377
90.5574993655892
90.5967921457275
90.5986380547157
90.5890942103423
90.5863072867876
90.5934623045561
90.6190111689206
90.6697415437583
90.7065595966898
90.7428269393076
90.7594864009286
90.7498238937902
90.7314008425326
90.7097486399045
90.7553492331477
90.7932586692672
90.7878051446722
90.8062663531952
90.815724993122
90.7824721415551
90.8308128942094
90.8918102928634
90.9105864905511
90.8862794534873
90.9101850480224
90.93003561134
90.8982539513054
90.9301822137873
90.9513529002189
90.9281761977203
90.9811049289066
91.0005718770498
90.9866346379334
90.9928827573052
91.007831845553
91.0134329242218
91.0337530427227
91.0497469794282
91.0209537329775
91.0561133185062
91.0703763735026
91.0322188054971
91.0462366495298
91.0754622409819
91.0873418701348
91.0757383275616
91.0715504896003
91.1062704590664
91.1331653158918
91.0940100674975
91.0665477039332
91.1322729346958
91.1966504578054
91.1925737146691
91.2007009161348
91.2904959975717
91.3292071039402
91.295224423772
91.3077172237764
91.3429179799989
91.334417699077
91.3736596857604
91.427587216723
91.4846006177693
91.5285396153359
91.4475258034165
91.4268162754322
91.500467963641
91.5260471903427
91.572908062844
91.6214215138562
91.6497612552515
91.6456591885044
91.6268042986567
91.6636486033127
91.7252266410137
91.7355322175075
91.7097738111662
91.7085078129323
91.7650527530663
91.8135190311687
91.8616816245972
91.8743712087007
91.7926746413049
91.8037943124001
91.9198043796604
91.9584125429169
91.9631055417568
91.9976190664311
92.0395482875922
92.0711201298129
92.1062221050686
92.1192977391239
92.1135127339718
92.1181162831342
92.122322872432
92.1094751320498
92.0518334101386
92.0745824071646
92.1741228161374
92.1771093550086
92.1593901954887
92.1784796826517
92.1703473011598
92.2260489511969
92.2930853419553
92.2679586098048
92.3089846216099
92.3179707287802
92.2892186214492
92.2964150945781
92.2597523757686
92.2607761994195
92.3346806393013
92.3240360471601
92.3021046323152
92.3543817886858
92.3689280553519
92.3297613320756
92.3064374533762
92.2919956080752
92.2305648794938
92.2639658887978
92.3258127017134
92.3425788587057
92.4206599718229
92.4656043279839
92.4188260075697
92.44063470739
92.4042634825703
92.3934327342324
92.5017073614005
92.5149440028647
92.481825352108
92.4739054368365
92.4762913225297
92.5010705389908
92.5680590759076
92.5536568260437
92.4524023637163
92.4238587344018
92.4654411569993
92.5135463886739
92.5896409946149
92.6134647108955
92.6155286633737
92.5674949027953
92.578556875801
92.6128195856906
92.5882410577707
92.5627751718317
92.5340828355405
92.5773613166475
92.6310417168101
92.6663993372521
92.6231666784147
92.5740633117242
92.6279307625379
92.6769199087452
92.6110185023752
92.5765016038848
92.6780925878543
92.6999669233187
92.6631728577581
92.6876993912817
92.7757204560677
92.7659354972102
92.7056446710913
92.7378766147101
92.8211160219527
92.7721220324167
92.7058521521208
92.6893736332656
92.7007991493635
92.6960768049847
92.7595242455904
92.7891551232456
92.7871565734295
92.8215680038609
92.7714281776763
92.7471627971304
92.8045363703598
92.7727033096895
92.7355624546546
92.7022167522501
92.6940049720448
92.7303501150187
92.7966893110929
92.8481942348918
92.820973995739
92.7534136999885
92.7094897537309
92.7296756941489
92.7741181446772
92.7571410971298
92.719613161723
92.7003191505832
92.786235434017
92.8600179893601
92.8739313991958
92.9995042502692
93.0593674513726
93.0478479621383
93.0585942144231
92.9878223427841
92.9021090253949
92.9508217602159
93.032121904005
92.9811171567588
92.9534047232234
92.9794874656204
92.9318112342158
92.8604180513727
92.8774348232486
92.8831734480482
92.8351079660879
92.8671575494076
92.9103518754183
92.8298227282897
92.8497963499897
92.8985824496138
92.8002979579462
92.6913336726499
92.7240824307206
92.7660624418491
92.7929269472076
92.842695239445
92.811748226612
92.7852469804963
92.8782672606839
92.9214326441455
92.8972621675497
92.932565929336
92.9761265910015
92.9777141291553
92.9586121623789
92.8811885041141
92.8619311129871
92.9201694568563
92.9560610477945
92.9807149173649
92.9966188639034
92.9840788020082
93.0176949943513
93.1247024874217
93.2288451744111
93.2835207337996
93.3956471564588
93.4077808101342
93.4192185848187
93.5168018670754
93.596003566329
93.5874813520604
93.6034502725439
93.6173768208301
93.6339006668622
93.6563055837074
93.7322902680123
93.655536135687
93.752436417143
93.8671451834234
93.9159020653277
94.0032633165226
94.1737958942861
94.1855167429282
94.2095476886495
94.1093668049455
93.9889190957871
94.033423549189
94.2241461913283
94.2501172435374
94.2524754240822
94.2286152846113
94.2671355137651
94.3621759104828
94.5489094269073
94.5159406769358
94.3919229109047
94.5877118548466
94.7977986942004
94.738554826867
94.4428986794591
94.4618871168377
94.742320789912
94.9295174220785
95.0612614436233
95.0597308126102
94.9356842542649
94.8494263165412
94.8324289846456
95.0254403581457
95.0156140917775
95.0877362630345
95.4862796107205
95.5971497416759
95.614187148092
95.7567006467536
95.876419396835
95.780504187953
95.6977143901532
96.0953585338723
95.9623973849416
95.6383579304926
95.8236647040959
95.9289959830589
96.3404199434917
96.7088778096098
96.4641115597611
96.4358415005043
96.6624008006357
97.1471429534359
97.4027776340833
96.885633983004
96.4404359041269
96.5293634818526
96.3715759522343
96.1039791104305
95.88704449869
95.7525968136994
95.6260381624738
95.5787137482182
95.575833973821
95.4785144275225
95.3677072007935
95.1798626228041
95.1919173075147
95.0602741398823
94.9577266541895
94.8830639159279
94.5940842800389
94.5078339482413
94.5808183853468
94.4784728021407
94.4280903387709
94.4138011211459
94.4204945383295
94.5318645016085
94.6764346271966
94.6714104574818
94.6036922794373
94.5178359617426
94.4591010828907
94.3916918647116
94.4292273519678
94.4492532148153
94.4862910627802
94.6662210520781
94.8088858533993
94.6933867417649
94.6228643719553
94.8181343672425
94.8808326252323
94.7160555269635
94.7045894891208
94.7354720899225
94.8416848706177
94.9339814953706
95.0841035537728
95.2293324440898
95.3031550358802
95.1215925313515
95.0882487803523
95.2382491623957
95.2875324419471
95.1976288069381
95.2439571612031
95.4603429937279
95.5844211919001
95.408499338248
95.3937641525762
95.7078672526829
96.1230152310517
96.0546682239903
96.2772317682392
96.4792851290699
96.4000328609557
96.6989833428413
97.079479849749
97.0823846048822
96.9353430689151
96.8178542122515
97.0382127178327
96.9341153001542
96.9728092674451
97.3910545720684
97.2567378759359
97.0268424208507
96.8016204933663
96.6735819413411
96.7378079182549
96.7301454510617
96.9298957251179
96.8376134865683
96.7011553409787
96.2954973587458
96.0731961720004
96.3423916914566
96.2245376760795
96.1395348460286
96.1484376875726
96.1566251358045
96.5050854062371
96.6967147966446
96.3782624422128
96.1326661799411
96.5692036115818
96.9831999976649
97.0828155519043
97.1608321928973
97.1923924909872
96.8213999466891
96.529192299362
96.9019145490098
96.9929493783818
96.523813762946
96.524508708039
96.3652839602154
96.1961692063186
96.2148812877128
96.0053856678496
95.7637166101445
95.7151726097458
95.8097023337668
95.9537415288605
95.8620159203539
95.79140915503
95.6956466598905
95.5687860142659
95.3960936470397
95.5424439896242
95.7401318156354
95.6465963363661
95.3658307981321
95.3835268965324
95.4863871725488
95.4653129550358
95.3767192007833
95.3353517155142
95.3150794935209
95.2772068718744
95.1888330479768
95.1658954392225
95.1649722528564
95.1003435198321
95.0975632907421
95.1576477392868
95.1358674497684
95.1549759178917
95.1518816036968
95.0854109863471
95.0786296351558
95.0817087616589
95.061255750847
95.0419785466407
95.0098480478021
95.0566308002261
95.1404839302582
95.1256094282177
95.0458152096415
95.0681292905438
94.997394051797
94.9698991791745
95.0782694157293
95.2458639426087
95.2305336772184
95.1520669427048
95.086626770323
95.08755613557
95.0710388498947
95.0422993594225
95.0917826855442
95.1151093679296
95.092046743726
95.0819937046351
95.1134910473611
95.1432707069661
95.0942984125607
95.1175735162744
95.0815200961902
94.9888797430465
95.0090659795021
95.1287407655789
95.1267120705069
95.1062699440726
95.1679414260549
95.2213593238369
95.1768110085102
95.1994080199554
95.202877177989
95.1090230371306
95.1207137098727
95.2205611303047
95.2130107295612
95.1991268144612
95.2421757495736
95.2979892077285
95.2517444362204
95.2402232905255
95.2473905561203
95.2576256757346
95.2176489073849
95.1950610613309
95.1444310992959
95.0976357712626
95.107822559641
95.1304061926267
95.0696258674389
94.9843165902644
94.9862150211132
95.0091283958828
94.9655115536449
94.9175752456208
94.8495204897237
94.7545681937725
94.6684191087557
94.6311010748006
94.6029906204893
94.4774704949549
94.2917592374075
94.2465453803795
94.2053596469802
94.2007533747729
94.1239607970906
94.0256385815501
93.9507605127523
93.8607722669138
93.753012091991
93.7769237441342
93.7287467401479
93.6245040134938
93.5235941793276
93.4710109943909
93.4601481683028
93.4574899840581
93.3485333934398
93.2547529373234
93.2329289318722
93.1657121300067
92.9609098223612
92.8695762334019
92.7422553605839
92.6334725117418
92.5795035836817
92.4724690576961
92.3134852855645
92.2341249971937
92.0359415323613
91.7538060718084
91.504940430366
91.3065867385631
91.1761205591439
91.0508326013411
90.8333525591875
90.5781474137019
90.3604684610217
90.2084199950265
89.8653215321044
89.6153039681934
89.4352518264184
89.2109821821243
89.0839742713395
88.8679461310172
88.6209324673733
88.4240141029656
88.1093226993285
87.6728136117799
87.4509807259337
87.2536845879452
87.0248064261929
86.7486163414781
86.446017058478
86.2126599269575
85.860819684772
85.4945566156068
85.2805196198345
85.0741946979666
84.7446764073791
84.4147255376332
84.2131470642239
84.0589593173001
83.7617206619982
83.2274198314653
82.7703236310018
82.8241543194138
82.6081040383681
82.2221426761919
82.0197840402111
81.8611387259833
81.602743384031
81.3386420694902
80.9515553481249
80.4508109474022
80.226279997661
80.1218407263412
79.8448111758356
79.5459719408869
79.2702468519373
78.9393431106747
78.5817949397702
78.3732767172197
78.0930003184588
77.6976900482305
77.4251568741578
77.2546577059905
76.9592046260851
76.6457524197894
76.3317565535165
76.0472610608455
75.7572123519869
75.4867239138452
75.2388514630898
75.0025028282627
74.7259758036528
74.5003621560295
74.2737059935168
74.0777012143325
73.8948813879702
73.7242278734248
73.5172398715812
73.3421148147459
73.1995571971067
73.0998988043032
72.877341334637
72.6599994358772
72.8160623432676
72.8910399894797
72.6727211706894
72.6118438833271
72.7407645167931
72.8249428381068
72.9380209068399
72.7458184379067
72.2321840576738
72.7982828155601
73.4971598768763
73.766724101397
73.9907137456957
74.1424915500137
74.4190364935949
74.6575699253234
74.8722837972116
75.1041802716322
75.2004575246442
75.9498521416338
76.8882944157241
77.1063943334978
77.2616685576334
77.8174513706512
78.1701354422439
78.3509704785662
78.6299234763651
78.9396195077218
79.04466383567
79.4588783459192
79.8950006298982
80.0896327248605
80.4421858305452
80.6961715539618
80.87955415724
80.8799228926794
80.7187981922362
81.3510598749597
82.0960660683807
82.3121497136772
82.3541816023904
82.381283684194
82.58331273834
83.0008600294126
83.1903319672695
83.1580063428539
83.3091745495066
83.56246262006
83.7858881173566
83.8851539891493
83.9286753795698
84.0106788206486
83.9840776150927
83.8974075781871
83.7389032438993
83.6669322938331
83.8296870273706
83.7467307710267
83.4607894826065
83.1948680593668
83.131710472681
82.9611258798654
82.5610403522774
82.1212897667993
82.1824715036473
82.1863239318202
82.0012792053254
81.7444464432515
81.4897585859995
81.3223115120238
81.1837949703362
81.0337843773443
80.8663580070713
80.5483365620325
80.2203698882459
80.1980892784624
80.0482515221171
79.731572401069
79.4511207278877
79.2302874425162
78.9099685025694
78.5609445270778
78.2093803574436
77.735791186932
77.4437792088
77.2690857338658
76.9661773872885
76.6172602413186
76.2593444384741
75.9281893298268
75.5789309768461
75.2844304750953
75.0972609365224
74.8738892465474
74.6215365918886
74.4816289058844
74.3499265211705
74.3173702436382
74.3329831034241
74.2368038441299
74.0581787286496
74.0546491320234
74.1496260526367
74.1553579739624
74.1499173152823
74.1984030227905
74.2592108990883
74.2752954765624
74.4001760153202
74.6068621663449
74.7306493817465
74.8894823095609
75.0616278343413
75.141167429852
75.3269344051427
75.6254554685947
75.8515628253322
76.0082880012965
76.1818069111433
76.4170940251717
76.6170348835209
76.805173877746
77.0162704439106
77.2246501607672
77.4185417267227
77.5399540386325
77.6882792074656
77.9480001237895
78.1685361214972
78.3489835233537
78.4909005353382
78.6277773096343
78.758517388705
78.8784007926517
79.0029165482092
79.1022626987931
79.1386293835584
79.191630838777
79.298635598292
79.3784992660864
79.4467691641361
79.551185308627
79.6147426326963
79.6851663838444
79.7900335713266
79.8716376722411
79.9623871096367
80.0591181636341
80.1506957517303
80.2619678276438
80.3753899896872
80.4637086203404
80.5668256634335
80.658510551106
80.7159242759682
80.7803350507103
80.8593849073953
80.9357617034721
80.9948177355799
81.0520645277197
81.0913964746485
81.114830901358
81.1394192273456
81.1679811276008
81.1924151659173
81.2022209321254
81.224525717543
81.2516208133384
81.2757441157538
81.3171728715879
81.3466053512918
81.3750094378382
81.4143752626502
81.4569879250115
81.482884352763
81.5163317733899
81.5506993374806
81.5801192015916
81.592395397704
81.6029152061897
81.6049756984991
81.588370003549
81.6066323037614
81.6298350813849
81.6459832972313
81.6702994611332
81.6813506924288
81.6989003442765
81.7168342435237
81.7600344726854
81.8044180897591
81.8376283800203
81.8972689769061
81.9743755517779
82.0437754245785
82.1123892966482
82.1721411689879
82.2312159664606
82.3041931766403
82.3618861182122
82.4281488450666
82.5114596612711
82.6026381813855
82.6813615369041
82.7511033905474
82.8341693287218
82.8974414430558
82.9697222942084
83.0239449394033
83.0662206394525
83.0921504897782
83.1013529478681
83.1036926905411
83.0762427409563
83.0390589379166
83.0033413608342
82.9617581607048
82.9345134530895
82.8788335647638
82.8380738244418
82.8047641325823
82.7465445777319
82.687724603276
82.6216428922342
82.5518469714158
82.4682805266493
82.3813486988152
82.294667540655
82.2109816979099
82.1049673764619
82.0060608555076
81.9344334546673
81.8139666034235
81.6902889985396
81.5873153801287
81.4831642114734
81.3506184455354
81.2182296712581
81.0894617693793
80.9448779376903
80.8141046136824
80.7093974638754
80.6002824648077
80.480739769885
80.3715436645267
80.2843740467009
80.1983820730517
80.1094251798799
80.004784952577
79.8843087295302
79.7474300433948
79.5881197930287
79.4571214037584
79.3207537093783
79.1405902037471
78.9522580719534
78.7770309309528
78.581675886127
78.3832652607096
78.2192210755675
78.0622489757482
77.8932753333536
77.7063837197835
77.5280383002154
77.3637580427709
77.1996066391667
77.0216460912651
76.8630579641548
76.7057623315857
76.516075335116
76.3534999243403
76.2047727577319
76.0131262056892
75.8308224514081
75.6810042955984
75.5244972373853
75.3611755216645
75.1989109493074
75.0206446508949
74.8373665571855
74.6758023592123
74.5535335379534
74.4418338477677
74.3216450491873
74.2109142665766
74.1383615160276
74.066828060861
74.0079981008616
73.9808462356897
73.9809413733352
73.9739295031796
73.9999078821965
74.0533138606099
74.1232783817251
74.1737548683509
74.2420461855085
74.3416688269575
74.4635170333481
74.5967149865185
74.740246247985
74.9095584618012
75.1147285708618
75.3252205915886
75.5366618762112
75.7352151916583
75.9385116964802
76.1645690761582
76.3797159147024
76.5854806228552
76.7832957305598
76.9751563200336
77.1938365163582
77.3958443120706
77.5574320123648
77.7349341559635
77.9189257762421
78.0684531827999
78.2001026546462
78.3484451487448
78.4882577211698
78.5960480300925
78.7421065867532
78.9168616429401
79.1023575047806
79.2867633976282
79.4543847268709
79.5699838141682
79.6952405875394
79.8809677918283
80.0692869880652
80.2416565560311
80.3734524340132
80.4975520116429
80.6392144294864
80.7582474809866
80.9060332995703
81.0724976342987
81.2107341762615
81.3233524902914
81.4520811688079
81.561308229564
81.6743277984382
81.7999336702534
81.935760515205
82.0441121062505
82.1276948241659
82.2228345494971
82.3029727089247
82.3956024073756
82.4840434754547
82.553053864175
82.6136898481892
82.6306186850571
82.7012022260433
82.8104549580748
82.8702424088596
82.9397792555611
83.0143476444743
83.0948637105291
83.1829302482862
83.2469556917342
83.2787190295878
83.3158338030088
83.3616957535239
83.4228342020419
83.4945841886598
83.5164400464427
83.5654453441067
83.6188994232798
83.6434617389238
83.6246489995223
83.6593789139447
83.6725226541288
83.6630263419292
83.6556661078725
83.623048681881
83.5731087352678
83.5594010497379
83.5511175970337
83.4984302891275
83.4763134204996
83.4892191664741
83.5028465469395
83.5544392754644
83.5697087582758
83.5308682877286
83.5078461746313
83.5517579901536
83.5663754150453
83.5439527317987
83.46856653821
83.3559756457143
83.2738977216667
83.2137272908866
83.1392711555535
83.0448866675764
82.9419842981192
82.8426875045308
82.7730608712092
82.7228699975277
82.6521403838917
82.5748035430016
82.4959070438012
82.4201440436887
82.3429322302146
82.2338466104123
82.1350505666179
82.0459302411212
81.9280298255279
81.8010920586305
81.6971606009064
81.6091627698182
81.5702898674821
81.5064671600095
81.3746297957046
81.2948876538828
81.2104295595927
81.1244730654199
81.0613978441063
81.0427164122641
81.0021314823357
80.9494728392461
80.8788310938356
80.8149201429104
80.7429053704319
80.716498800362
80.7206316748162
80.7310557598678
80.6829793724037
80.6428967333919
80.6256148182828
80.6169444448044
80.6002278911237
80.5826399861489
80.5262039945346
80.4773896574499
80.4246549404499
80.4305678962261
80.4236927784556
80.3756298922547
80.3611083891513
80.3470285566628
80.2932562278121
80.2501757022777
80.2206487084816
80.2016137667093
80.1628398597807
80.1329597864704
80.1076855359922
80.0723196328128
80.0017317535287
79.9055756691308
79.7990412363921
79.7594327833771
79.6988631501152
79.5807994424458
79.4689639054063
79.4248057022526
79.3819101707049
79.3230564701307
79.2195951423225
79.0988631785569
78.9767598712774
78.8597412024358
78.7902536442774
78.6997551224216
78.5374468860045
78.4450851571052
78.3591813189621
78.2409904074127
78.102041099102
78.0202807225018
77.9842376610031
77.9316955153172
77.7970193534402
77.7234226485545
77.6751489237503
77.6217432743259
77.548082824146
77.4741560655069
77.3551883516753
77.2656590268749
77.1737154846236
77.0827751746652
77.0154999490869
76.8779902217497
76.6656542952364
76.893172083769
76.8455005535445
76.5426599091124
76.4723670593598
76.4646389410084
76.3894532455972
76.2687729652677
76.1325983639145
76.0296627549088
75.9095168885061
