1798
3999.43349933624
650.420452594757
1
128
4
96.472100914096
96.4192964194274
96.4451004661576
96.3853914095884
96.2957733116873
96.3439189402631
96.4325539821704
96.41819380708
96.4038449034607
96.4786134034746
96.4084355813424
96.2647767335581
96.194062573085
96.2767962117922
96.3441510594372
96.3526979920728
96.3769374525346
96.3808724527909
96.3566765020333
96.426665482877
96.4484263872026
96.388736790616
96.4066360577725
96.4584421273099
96.472068467724
96.3618946989929
96.3117678771339
96.4161057233076
96.4140663487648
96.4195006749954
96.5008144077082
96.5476712765687
96.4330617486525
96.3333647795489
96.3394569888853
96.339260894694
96.3605199472393
96.3527081468405
96.361885957782
96.4846897126478
96.5333986596927
96.4196627607731
96.2661252277675
96.3482029718013
96.4497368213173
96.3752102515892
96.3359307138626
96.4356089359556
96.473168536825
96.5502555133279
96.5554551546446
96.429358366515
96.3522807964966
96.405575155251
96.3781581562439
96.3922966216285
96.416955329546
96.3720762871114
96.3144293025609
96.4086485338442
96.5477077467391
96.4914609155783
96.3946867109965
96.4152968708028
96.4362208078153
96.4181884496137
96.3728283151922
96.3827734293188
96.4469035731613
96.523902199962
96.4808274314424
96.3545561865343
96.4287924239072
96.4875578726782
96.4441232002359
96.5344803867864
96.5744240835858
96.3821491594574
96.2652721119658
96.3474983148576
96.4550847061732
96.5166157997328
96.4823685279087
96.5034392611175
96.4586405568906
96.3827234890069
96.3782721745921
96.4469465766676
96.4526415032593
96.4958484876114
96.5437494037535
96.5012730458924
96.4709809212487
96.4995878605092
96.5244209847964
96.5748298524329
96.4945368524606
96.3976586438518
96.3436822995789
96.3690706952369
96.4104693205059
96.4335139693008
96.4504485506327
96.5377359690949
96.5623807699004
96.5342031130484
96.4959856667084
96.3489065130463
96.2882268234271
96.3652803047491
96.4196258243816
96.3904175855989
96.3728762506342
96.4834753291244
96.5406348802457
96.4904803690967
96.4446321697468
96.4556079089864
96.4777048077863
96.5534042497631
96.5199434255023
96.444234326209
96.4929952344419
96.5765501344997
96.5412049479537
96.4719412225143
96.4562534466587
96.5132227533691
96.4985629473604
96.4984220146734
96.5455633158871
96.6694295706636
96.6106948392435
96.4554854323784
96.4402769744757
96.4194562972273
96.298672606239
96.2572195959577
96.3976849873998
96.5621125472007
96.5542599108544
96.3407264815266
96.284824604158
96.373381786401
96.4689433277386
96.4668876957235
96.5542590879865
96.631671625924
96.5400267573245
96.5715578909042
96.657746156187
96.5661913752584
96.561271715267
96.5966134932563
96.53104830944
96.456285241346
96.5174837630223
96.5774191556143
96.4768909444168
96.4888206792801
96.4959802158225
96.4727338628193
96.5819593020082
96.6450941427736
96.5696923466426
96.4525331283587
96.3545528424203
96.2976374226661
96.3263966459121
96.5115083284106
96.6113510413175
96.6271187017567
96.3966565479388
96.3424555815235
96.3889223923721
96.3311790734453
96.3111930546123
96.3429077371624
96.2620027738667
96.3315787015753
96.5583106280367
96.5108800658311
96.3919768437994
96.3455594418331
96.3825055650817
96.3810589266885
96.1727087106353
96.079791283278
96.0530646427532
96.0179033196828
95.9651578506488
95.9244674611373
95.9221772752804
95.9673748766525
95.9907296946625
95.9701269134565
95.9677916294635
95.986706605463
95.8015977322002
95.609803834899
95.553885352472
95.546970852552
95.5672864559853
95.5869294158511
95.505935245382
95.5015405645513
95.5274655233177
95.4474065741246
95.3980679831469
95.2706036901621
95.1655835239703
95.1435417767412
95.1119747615081
95.1001641252935
94.9653237572636
94.9624749266271
95.0413542088833
95.0386398750078
94.9623385962447
94.9493325585631
94.8636260804518
94.8225444165376
94.8061134348374
94.6688901600068
94.5898991104771
94.6045846636292
94.4996120111529
94.450703204923
94.5054904385746
94.5226908608573
94.4412666798237
94.3855260760887
94.2224846562667
94.1236982376312
94.1306661368382
94.1351476723051
94.1505449942634
94.1052364459482
93.9573574600829
93.9202695877626
93.9229571907785
93.8944333419701
93.8152135461015
93.6558554182789
93.593495385506
93.5324211725683
93.4952806680636
93.626656448513
93.6319781935704
93.5654047268989
93.4943324127686
93.4307598376292
93.381031162838
93.190638009245
93.1452491836052
93.1964214298808
93.1455559259132
93.1394665265079
93.1467143968561
93.0453415004506
92.9512045568917
93.0422527593417
93.1032409919314
93.1027033511292
93.0431072196189
92.791767739604
92.6148864758135
92.6770942534529
92.7021940422639
92.6570350753315
92.645245138041
92.7754090542422
92.6673133215682
92.409235908617
92.3217288041437
92.3706515167123
92.2972456526143
92.3039407221101
92.2572743343399
92.2729985638431
92.2879239031913
92.2392596566296
92.1945365821389
92.0793042755423
92.0131357977421
92.0675369529481
91.9879480614433
91.8260044663148
91.7693062092369
91.8631546695088
91.873479256056
91.8463177308845
91.8109655956091
91.7576108724499
91.637718130679
91.5917651254506
91.5150483411439
91.4281918592966
91.4894131002863
91.5116559748441
91.3944136099648
91.2727185700782
91.1723786132642
91.1448392971854
91.141981961334
91.1885176357038
91.1117733811443
91.0507067789043
90.9930597584896
90.9056090091275
90.8687329475052
90.9142894934898
90.8555883644446
90.7246802500928
90.7348111080505
90.7091512774939
90.6079815038801
90.5587484679906
90.4627624251536
90.4026782132778
90.3856640004516
90.3844047694984
90.3418777839378
90.29599378925
90.2241640767101
90.1573818405133
90.074850537347
90.0442952850691
90.0779222871182
90.1260357862224
90.0976019792659
90.0161804024881
89.8801539321683
89.7503959831219
89.7221008925642
89.7455857855977
89.7521585368069
89.7366562565558
89.6747301262257
89.7030463643257
89.6430464435414
89.5478404478805
89.4873435785207
89.4678374348443
89.4337594008384
89.3886371660159
89.3701355004993
89.3106929567238
89.1485905979758
89.1587480888394
89.3103453825989
89.2983276254643
89.1359374633849
89.1454863826194
89.1917902247654
89.1266257770971
89.0417204764831
89.0652745467584
89.0459480493855
89.0581952270283
89.0283279173147
88.9502253295493
88.9018744055478
88.9693965550544
88.9834250935471
88.9218706190455
88.7836122172674
88.7851642982956
88.8400495017607
88.8027346300205
88.7301392361532
88.7661636735224
88.7670018357581
88.9112835590467
89.02210880984
89.0436268875891
89.0388255407842
89.060383560169
89.028319479526
89.0687018912482
89.10093526904
89.1456926131983
89.2447214026453
89.3175884419647
89.2947042316014
89.2750335451347
89.2614790824583
89.3307508747491
89.4341225439534
89.5375717028746
89.5025875257844
89.4243751173597
89.4027460022548
89.5426103843554
89.6799989472464
89.7029663960029
89.6945477004858
89.6940130251523
89.6995551916504
89.7228667817942
89.7952781174917
89.876248693539
89.8646204241165
89.9493729131723
89.9930602001189
89.9847222244087
89.9978731854835
89.9626245930312
89.9314936837218
89.9962709800385
90.0869479016566
90.1760884188836
90.1460180018248
90.1961439749848
90.3274946633359
90.3869585165742
90.3487265125357
90.4017359463313
90.436710039222
90.3935858213469
90.3918723231074
90.4674334185604
90.5325794977933
90.5932958937526
90.6726682440988
90.7021115300163
90.6338564197233
90.6497110733191
90.6902511337808
90.7148111978636
90.7734113639849
90.9136590037356
90.9195616499271
90.8985370357305
90.922137295968
91.0546114251663
91.0552432397097
91.026897450366
91.1181954849066
91.181400121756
91.2019668620753
91.2421507622977
91.1837662730455
91.1852568760076
91.3302993051246
91.4739988743052
91.457785598347
91.5167886690947
91.5136255038277
91.4963530603641
91.5101614127067
91.5894120522661
91.6568154785684
91.7086859147578
91.7468381076934
91.75249772788
91.7661347809195
91.8734645919895
91.8888148103137
91.9080892629052
91.9188276030246
91.9532616831912
92.031439686892
92.052674044484
92.0408324998032
92.117226141736
92.1769018080856
92.1824283215243
92.0890456920128
92.1062718546889
92.2740477938895
92.3878892119289
92.3588088166584
92.372063341386
92.4189472989119
92.4087623471286
92.3885707594835
92.4617154853805
92.5192928582086
92.5615203308156
92.5556555625936
92.5046225446094
92.5386558980002
92.6250656642387
92.6481678945576
92.6963435216991
92.8001998464368
92.8280489991542
92.7922518602559
92.8074540382654
92.8468381882426
92.898097197468
92.9114809656804
92.8803740990399
92.8712894300935
92.9495539686289
92.9031611655952
92.927798416443
93.0239513992344
93.0694287844416
93.1644900388086
93.218789986368
93.1771500754246
93.2168474761158
93.2436089735438
93.2526231375414
93.313727064089
93.3387597377723
93.3059787651408
93.4160378996852
93.4888763082564
93.456247819973
93.4401061384319
93.487670974105
93.4902446653213
93.48867792593
93.5517284798014
93.705621380787
93.7113914855511
93.6943658794746
93.6841849347992
93.7088398016061
93.7337193367911
93.7900898031516
93.8119002370776
93.8380737536966
93.8274066652854
93.8096452132624
93.8408629836225
93.9252143068398
93.9975917576055
94.0136753476459
94.0194035038829
94.0332650876455
93.967338274645
93.9194450325169
94.0119605707904
94.127461381433
94.1455835342748
94.108445234944
94.0959634043641
94.0873950943609
94.0934139166936
94.2132150016137
94.2219749533052
94.1475983608467
94.1154552671033
94.1464349463598
94.1847445693174
94.2194687488757
94.2384750567337
94.2996120106015
94.2938040181729
94.2543844505084
94.2348535375428
94.2642269651305
94.3364517462715
94.3572093636155
94.3208909925918
94.3772644673082
94.4646563747926
94.4530339091671
94.4451247973234
94.4409645422699
94.4923074725724
94.5862068899919
94.6310261428843
94.5948487651674
94.5297813502476
94.5780344263367
94.6479022633184
94.6468604140149
94.6323675831385
94.6294417508131
94.6296013531481
94.6596004595749
94.6850365065253
94.7047982550789
94.7153621425514
94.7662781918187
94.8040894346348
94.7867067819266
94.7753184946978
94.8148846504213
94.9136199846087
94.99484822609
94.951258562108
94.8543531031836
94.9016817978457
94.9529505429657
94.8936564742814
94.8949042203176
94.9773249426164
95.0517302254936
94.9958040078232
94.9144004292214
94.9476141044159
95.0348472062553
95.0441177643317
95.0352836602003
95.051047381273
95.0206064930178
94.973014791164
95.0321372314129
95.1275947678687
95.1339343652576
95.121961641738
95.0969797097391
95.0752459329271
95.0662171510679
95.1147878388784
95.146367374537
95.1332792045957
95.1773873771851
95.1947688715967
95.1329919584135
95.1510172252653
95.29987428228
95.3800979391499
95.3198006646219
95.2816988320549
95.2934376201689
95.3526006520916
95.463966137696
95.4579565234646
95.404350952733
95.3575072576092
95.3563974274028
95.3424227341902
95.3149305022031
95.3010556602265
95.3647588462049
95.387984561436
95.3762778231561
95.3970091641888
95.391010566762
95.3366974755055
95.3625241249214
95.4454256889451
95.4758778207967
95.4391000951163
95.4275492741738
95.4134186461344
95.3998406746383
95.4245909772251
95.4819760678376
95.4564335175956
95.3214671986049
95.3140463097949
95.4081324915221
95.4023668197486
95.362546558869
95.312702700511
95.2782309575508
95.2978698890858
95.293639238805
95.3022924419377
95.394601999413
95.435193262591
95.391137239398
95.3488513944913
95.3891387332182
95.4191473597054
95.3940151357801
95.3960616706325
95.4089140521648
95.4166087415421
95.4369104457315
95.3670329723784
95.3535649330522
95.4013915514858
95.4527049712601
95.4868101075985
95.4615314039367
95.4293871011082
95.3512173151499
95.2912582684594
95.2823088340415
95.2915420998658
95.2642069528778
95.268150722875
95.3077206983845
95.3459996795196
95.4643486472083
95.5276752474311
95.546891135348
95.616477738375
95.6632335748511
95.6585524599779
95.7045386952203
95.758292410974
95.7665381585928
95.7412937840531
95.7321441421999
95.800767005162
95.8632711254409
95.8568502262238
95.8361666769218
95.8865391289105
95.9128145877592
95.9055233668693
95.9175949873031
95.9421223170366
95.9149663377042
95.8912200203363
95.9156237081583
95.8904133707619
95.9005274128722
95.9586338848161
96.0031559535879
96.020699785865
96.0217854979823
96.0227407147491
96.0303707589696
96.0519838315019
96.0607654152963
96.0283563424922
96.0001309396508
96.0111800451709
96.0347604850767
96.097970781045
96.0898504972434
95.9956951005665
95.9634204243904
95.9545523225238
95.9834469388765
96.0414349283996
96.08263115373
96.05652382508
96.06543500557
96.1331757771353
96.1455276548297
96.1363600010752
96.1383139963987
96.1802854438505
96.2032064302708
96.1734124195107
96.1925773103614
96.2686832990112
96.2981677125457
96.2749611017718
96.2626795690817
96.2725728162887
96.3104623467028
96.3184315473754
96.3144006405496
96.3234032437753
96.3143672814573
96.3241666465486
96.3778220385578
96.4290432142766
96.3286765492206
96.3239860665488
96.4962297038163
96.5124794509676
96.4674589343413
96.4421143699876
96.4873154482268
96.5512937500895
96.5067086228129
96.4352883516548
96.4956437936209
96.5420419879658
96.5384530270177
96.5449464168893
96.5292008075628
96.5658046006819
96.6074898686132
96.5877730870327
96.626449509299
96.6247070306712
96.6037024621763
96.5803938824296
96.619566928741
96.69286879296
96.6673847889572
96.64036668733
96.6325897983687
96.6529217564472
96.6925862232654
96.6467428226989
96.6518994558958
96.6607361229453
96.6612032425085
96.7316849135879
96.7706991655738
96.7917858086422
96.7451313531206
96.6892862959552
96.6473328084757
96.7367079542408
96.6992639142652
96.7024779057874
96.8813839575715
96.9146662084394
96.7951838234121
96.8211243256834
96.8901400138949
96.794670408473
96.7290358203607
96.7558611242077
96.7228295380293
96.7142607791805
96.7452648922374
96.7430228793275
96.7487851794821
96.7497333261659
96.6736233079937
96.6487722457961
96.6930648502819
96.6283478764459
96.5470264799616
96.5855053102847
96.6005228550257
96.5503564449678
96.5306390480841
96.6061932541793
96.6076454199976
96.6306783721444
96.7244280030158
96.6893000558367
96.5433502783052
96.4964546887178
96.5505212314273
96.6304573478618
96.6273166330377
96.6208742062778
96.6087342269069
96.6449480786718
96.6387952579558
96.6089474931911
96.5997948134823
96.6217636851593
96.6034725534014
96.5285582052711
96.4878687950446
96.4958953227101
96.5662864786671
96.5843566723519
96.4652414473662
96.4818711610254
96.4353549578078
96.3098924796286
96.283993745863
96.248998019043
96.2270753341549
96.2040355936539
96.2447159362802
96.2550281529122
96.1939860956442
96.1839267873066
96.1772048076352
96.197109746084
96.1556371425676
96.0916015498985
96.0653667234921
95.8987326314104
95.6488074805709
95.4878645890446
95.1437516490084
94.8752508484072
94.9250724829198
95.0722883794226
95.201027287322
95.3213421659347
95.5145701289422
95.7339905403858
95.9229803922761
96.0241758583309
96.1238083046414
96.2785274131693
96.4011736028163
96.4753891074178
96.5703488159615
96.6181591357237
96.6548516362939
96.7978562411146
96.8384088173106
96.8132926787604
96.8359269232333
96.7536212359838
96.6603281358837
96.6755424030389
96.6870733370859
96.6559745603292
96.6704651650476
96.692305841422
96.6973391870676
96.6541346039106
96.6563839636936
96.6621271189201
96.6667375820479
96.7274979008811
96.7486990012419
96.6934525313815
96.7327277663162
96.8095149687707
96.7909434378066
96.6633480086431
96.5577359788074
96.540767189137
96.5772396111513
96.6816257286863
96.6881350062497
96.6967479897575
96.6915674257999
96.644820505696
96.6571728664271
96.702054895637
96.7669688270443
96.8234194929031
96.8216470306217
96.7679021546982
96.7048800139244
96.7205817102299
96.7736957972566
96.8017524823445
96.8507966891918
96.9661095183502
96.9293390100456
96.8027654064843
96.9615532055176
97.1450181119935
97.0065445321585
96.920351282524
97.1146233356482
97.1853329667742
97.2017206911008
97.3739879811398
97.4786823864739
97.4733414970159
97.4239632934065
97.4355877655509
97.3770752451334
97.4093105631581
97.638961949083
97.8482952905661
97.8823877879452
97.8921965172776
97.8462726545192
97.8864376627591
97.850188605423
97.622768004501
97.5554939196673
97.7499436957025
97.7549202299111
97.8086936431608
97.9889732324379
98.024725124146
98.0289121722788
98.2775282336318
98.406515693945
98.319824899048
98.1281022435767
98.1783367582784
98.2076725716395
98.1886320255744
98.3723496460196
98.5366931502529
98.4949054115772
98.6153161411652
98.6477224661694
98.7494749045498
98.6408704669287
98.5460806898865
98.7019636331101
98.3931265289302
98.3773366238822
98.7595768638414
98.8699365851907
98.8460990849226
98.9227056176339
99.111015572466
99.3321330735217
99.0858251032638
99.090576614006
99.3180609599219
98.872599582693
98.6825152350255
99.0786028565308
99.176856779252
99.0643236767766
99.4706025922034
99.8359763785614
99.7560320909409
99.6443200737715
99.442769511207
99.5083284542694
99.7933404010344
99.7056192429206
99.170231638128
99.1132662565396
99.3304592157203
99.1658357797116
98.9482760607425
98.8242045594493
98.7410851743598
98.4598282146445
98.3209304102561
98.3959419949938
98.6102294124314
98.3873201151228
98.1629430258647
98.171837342768
98.1344813032052
98.1139561281166
97.9055865565737
97.6641500376796
97.7741329982515
97.6611172672794
97.5619362434823
97.5869184302761
97.6692994655897
97.7932659092078
97.7799804441052
97.5766598114149
97.6269664712731
97.6746370625501
97.5211716780289
97.526916235505
97.5702247990311
97.6604593504466
97.7616175340265
97.748547788006
97.7262048662297
97.7606298536874
97.7303598845002
97.6466313132604
97.6306656023076
97.5813662458831
97.6018288552254
97.711250816301
97.8003148803351
97.7488219159006
97.7612143859871
97.7032641427555
97.8597026856666
98.0315881744438
97.7340803777125
97.5339069396207
97.6800579705298
97.799643704074
97.8807125050223
98.0708763262698
98.1629550932635
98.1040564166592
98.3149196953878
98.5570715950899
98.5980842803446
98.4610350064435
98.6029648187649
98.836923836111
99.1038666443139
99.166293005172
98.9535264440824
99.1131890619664
99.4382440302808
99.5961788104038
99.6855435869741
99.5041150080629
99.0781958322722
98.6530254954646
98.4743736806427
98.8064411937719
98.9857550396169
98.9422259481075
99.1242980335191
99.2493916444975
99.4028145141562
99.5095826773055
99.0835006573574
98.5870555802329
98.4284600154636
98.4489057797792
98.6096520742921
98.5858543391556
98.5619582634964
98.7391659011724
98.8550854011524
98.9431889802584
99.0506417882757
99.1107901936422
99.0217330445186
98.7225782732064
98.908962095027
99.1724036200287
99.2448098776527
99.2126608643646
99.2587552639362
99.3174793245254
99.2589417823099
98.9608682785147
98.7482401421083
98.7509054495269
98.7746535660521
98.7872441694982
98.7896968739877
98.5715211695948
98.4622863100041
98.4850776001889
98.3378542771469
98.3534329808439
98.3156214520333
98.1991339946382
98.3184579365704
98.0824344193294
97.9242570711667
98.0801774852453
98.1587843936482
98.2381442814291
98.1586294158941
98.0874844258987
98.165149703007
98.0952716827102
98.0950156030849
97.9367540510068
97.7888972791883
97.9891763889947
98.0991585242717
97.9795326550871
97.8190509608814
97.7979840671279
97.8204339957352
97.8524120609327
97.871973264841
97.8259305106194
97.9755472745451
97.9645861856032
97.8767362197626
97.8827397414898
97.8316399812143
97.7068798585885
97.7139583222601
97.8079489514179
97.8137115691771
97.7259727576959
97.6318749296081
97.6355851623486
97.6929706462195
97.6878124040535
97.7296353051357
97.7915847853445
97.8162176845129
97.7997614120266
97.7419135105946
97.710547551129
97.7606092792934
97.7649464804022
97.8076312455766
97.8014846528111
97.7202526566156
97.6862833566397
97.68175075121
97.6942028301018
97.7513431109458
97.7591793272239
97.7389522704037
97.7361267951842
97.7650370351571
97.6980135911691
97.6959678556989
97.773056827958
97.8154433903209
97.7722533697714
97.731236978999
97.66117021275
97.6293136288839
97.6882528876501
97.693554858305
97.685593722016
97.7111532016745
97.731888453816
97.7380368981643
97.669688363255
97.6388477897259
97.6729641466427
97.6528608005228
97.6102116778782
97.6281809185624
97.630419901585
97.6305249171794
97.6634911178014
97.6779431023806
97.636305838167
97.5936537635613
97.5982494470817
97.5874629678023
97.5241455986412
97.5588766221614
97.5426344803745
97.5253110701985
97.5348911721728
97.5262168760947
97.4879777655291
97.4549292385105
97.4516366812549
97.4196611853463
97.186106654846
96.5524932734839
95.2017816514222
94.1646759510204
94.8028164479187
95.8274388252116
96.4504806673606
96.8205911409445
96.9618308362535
97.0394590904505
97.1116163491581
97.1350244919126
97.120226843148
97.1263404608005
97.1235297411475
97.1161346299314
97.1203947394932
97.1053904429386
97.1316411084296
97.1167385545241
97.0302074835786
96.9528325559162
96.8983102385234
96.8783711188131
96.8605870508088
96.8507116489718
96.8198920952241
96.7941784733034
96.6834887025716
96.58310791372
96.5213435165918
96.4506957923221
96.3735317209092
96.317693061476
96.2356297386547
96.1489878498818
96.1064096554425
96.0023855646792
95.8195250782931
95.6938620837319
95.5545263528622
95.4219519573592
95.3114991251452
95.1956562079739
95.0787866616823
94.9569940334337
94.7379524375171
94.5838078218234
94.4527509141205
94.3153630839157
94.1944249656848
94.0734063148202
93.944597401785
93.8317053270567
93.7669910937461
93.6916663208482
93.5750313807184
93.4711370590799
93.3649006176247
93.2858509947188
93.2385797169704
93.173931820204
93.1336856771322
93.0419433197543
92.9096192356454
92.7804166662018
92.7207990385083
92.628034302017
92.5442695827431
92.512558143747
92.4705427842776
92.4326377966477
92.3997347415825
92.3359485576828
92.2820100543448
92.2408642471081
92.2654495756469
92.2675967454378
92.2732852522812
92.3097237285621
92.3069864435064
92.3191025859516
92.3653415320497
92.3604595156566
92.3469934152373
92.3561779815487
92.3698062099439
92.4001413101423
92.4523933587323
92.4965633072661
92.5474501039946
92.5425215559014
92.5608071730712
92.5818469210734
92.6150492590347
92.6518242081673
92.7010330153215
92.7338913145975
92.7581786961535
92.8005256949261
92.8299905128266
92.8434132085723
92.8157414328579
92.8415087753014
92.9280621111692
92.9493481244496
92.9441035891367
92.9612101194697
92.9878776696124
92.9947370943257
92.9850554872029
92.9648601014692
92.981958208603
93.0291845622747
93.0123961122878
92.9932706121362
92.9633713324484
92.941720444865
92.9298543400632
92.8723654168852
92.8646962939437
92.8454593407993
92.8085814155431
92.8548453160673
92.8197622355007
92.7177168302362
92.6709934310562
92.6477207215513
92.5913869561205
92.5186277892317
92.4525119384473
92.3810279877446
92.3229586282681
92.2464842949201
92.1964243824857
92.1788186295464
92.0817856721855
91.968608675222
91.8927227624337
91.791053338069
91.6636663607734
91.6228593322589
91.5602357972928
91.4668331027987
91.3533506994353
91.262028850722
91.2699714296136
91.243884145514
91.1246710473328
91.0292100061439
91.0002042469212
90.9267367644557
90.8307644734335
90.7508407295859
90.6741071956829
90.6121617289823
90.5197017791717
90.3882129697488
90.2549443176633
90.1307709291526
90.0295322517789
89.9417471509133
89.8782561430201
89.8848378526877
89.862081969322
89.7328516863744
89.5961845930903
89.4859501401299
89.2053177110466
88.7881971689059
88.224406114035
87.4810241729273
86.5739575842354
85.580399765335
84.7366138229968
83.9386621148154
83.1294995520226
82.447417311609
81.7179330094705
80.6928056724505
79.8644181389677
79.6180941529146
79.8025096703646
79.6116698226774
79.0948741093522
78.4277519111199
77.7642565355748
77.2045468945308
76.4857638365677
75.700596002831
75.0391381949374
74.3827245899714
73.704428461657
72.9928280646048
72.3182972166999
71.6328274530577
70.8862839278752
70.15711884432
69.4649896236121
68.7067281264298
68.0047208244801
67.2040643763758
66.3148037254512
65.3977303213176
64.4496263028386
63.3462570140985
62.1622952479584
61.0291240548583
59.9614185281115
58.9862313650915
58.1296090421043
57.5407793523474
57.3199839805645
57.3292886721904
57.5874162267106
57.9865081464858
58.38132968142
58.801654298224
59.365993796498
59.8926542512434
60.3175743869981
60.7297823162796
61.2044106421859
61.6469258034345
62.068757977145
62.5212499852638
62.9662828874962
63.3833701978832
63.8021677490728
64.1909283882242
64.6625181743482
65.1765559759019
65.5882531089745
65.9528695927996
66.3379558156556
66.742870474383
67.1283690673728
67.5264939280327
67.9368034097195
68.342280773546
68.7281447470461
69.1467924940925
69.5900115349258
69.952512083428
70.2933211574129
70.6753334113855
71.0359737891029
71.3849448497774
71.7360757420291
72.069366095091
72.3963580116239
72.7193027537098
73.0391465384871
73.3541849420561
73.6650626924623
73.9851447212199
74.296080561065
74.5981212479689
74.9013870310153
75.1837173476904
75.4512247315671
75.7275201782124
76.0051963759256
76.2685368451113
76.5253059031777
76.7847291749982
77.0262892035001
77.2674148855371
77.4926038678161
77.7158062883103
77.9560808839396
78.1714423601766
78.3784229333005
78.6014152686733
78.7982564478798
78.9587291432261
79.1397140949535
79.3131055994452
79.4591980654715
79.606649893787
79.7818793000232
79.9769107875657
80.1671204474656
80.35028742338
80.532305890068
80.6936115300782
80.8496043448503
80.9875768899859
81.1054493303166
81.2318864592256
81.3433401443342
81.4473915738381
81.526309182359
81.5777955287108
81.6058696503819
81.5993744078033
81.5328378685555
81.3947632905597
81.1797258833984
80.8858252396338
80.498451883553
79.9812422537144
79.3505850687708
78.6243446529877
77.8422869828479
77.0400299245988
76.2677450760761
75.6054992689181
75.1387848332805
74.9269898206738
74.9835137399202
75.3140091501368
75.8849339917183
76.5591702537834
77.17476848745
77.6451241001672
77.953160466647
78.0737913364236
77.9983693478065
77.7889904543908
77.4823712104056
77.083194591862
76.6098760040289
76.0262739708028
75.3596271343054
74.7022940828327
74.0651530323608
73.4634377913913
72.9276553349651
72.4517856737194
72.0030287798146
71.5239942557483
70.9782738153363
70.4115014839383
69.8151138173991
69.1339165744592
68.3790451179752
67.6450852645569
67.0007372927944
66.5457402142287
66.4014591526457
66.4932685381962
66.5375379535179
66.25700054029
65.5462805425446
64.7060042244484
64.2496195390777
64.4116922354599
64.9751693446541
65.6577331377015
66.3068707914418
66.7959326253417
67.1077695503107
67.2221528496747
67.1642113869278
66.9642445257184
66.6554670888329
66.2794442015677
65.8727126243317
65.4640706171584
65.1120257857051
64.9224391568623
64.9340360459402
65.170575973223
65.6339636473839
66.2747812035794
67.0031108372875
67.8186698284015
68.7166799232697
69.6421743570153
70.5779360131941
71.4891810497066
72.3605079714242
73.2462684573603
74.123259684727
74.9160370539717
75.6414495686778
76.3446217600957
77.0012769753068
77.5776266417921
78.1259609194607
78.6711100010448
79.1950434546889
79.6875004972974
80.0899532581681
80.3108081460318
80.6132347201033
81.1165858587667
81.5841858645374
81.9742437980806
82.3016181092222
82.6059571593244
82.9158753972436
83.2202262499032
83.500713627601
83.7722791845314
84.0388245708151
84.2718907673158
84.4562538124138
84.6347444532571
84.8034069673936
84.9806793552388
85.1607771090854
85.3763009111195
85.5673591150244
85.7097083075781
85.8501123541783
85.9593463986743
86.0445444247264
86.1346781981799
86.1650149267106
86.1253994932898
86.1560046804371
86.3335296310529
86.5226612079103
86.6711129966096
86.7961465797186
86.9322637969006
87.0641558849939
87.1864536426977
87.2716586906189
87.2670987966919
87.2204140922848
87.2886688869649
87.4791063295188
87.6629866865435
87.8264048080477
88.009049600634
88.1169839981758
88.2088474232977
88.3531420566783
88.4606583336184
88.5221610054633
88.6124979816328
88.7060851269051
88.7853582851226
88.8520924137648
88.9138043327519
88.9796936625696
89.0559663815523
89.1382941846516
89.1943897623197
89.2385746886501
89.2825362260605
89.3203988675992
89.3593669810864
89.3949563638844
89.4485119378161
89.4803776343016
89.5244438837285
89.5973391120924
89.6498258980965
89.6709598306585
89.6853574723928
89.7090923417962
89.7543615405793
89.7648116598737
89.7697862454134
89.8073933935451
89.8588228494657
89.8636288849143
89.8983156912296
89.9386260099525
89.9372713684714
89.9470226799052
89.9902870506194
90.0097837384708
90.0414067461337
90.0584423028504
90.0359673437621
90.0068791794603
90.0180929814674
90.0389328267916
90.0405265296996
89.9973092118039
89.9892613772453
89.9465256415796
89.8378942231402
89.7373285942619
89.6524567088234
89.5506559698032
89.4386261237705
89.2619240613591
89.1139912664932
89.0056737278491
88.9269877062248
88.7875203517974
88.6267091325117
88.5046498604123
88.4339056485253
88.4411964283754
88.4623578498494
88.4877034759677
88.5483154220537
88.5871950701806
88.7013246827779
88.7834295882463
88.8246675626617
88.8353044721313
88.7499887611553
88.5592283919133
88.3142355542064
87.9135499956151
86.9712639694174
84.4070327377733
78.8492414911453
72.0937107480457
69.8045552570278
73.5452085452813
78.8922457059602
82.6007032725186
84.6690171558381
85.7303821774291
86.1198715900914
86.2464032884442
86.5512816357633
86.8705520492762
87.0107489462015
87.0991926962964
87.1728951452943
87.1563647174139
87.0955397216094
87.0958013954376
87.0848538787942
87.0104950595301
86.968979790507
86.9007320787239
86.8248680019277
86.7322687298746
86.640814808308
86.539332003345
86.4457691283118
86.2871805090876
86.1483600611372
85.9803366317653
85.7756410468184
85.5690244416838
85.3573329292432
85.085702625092
84.7710594343205
84.4878173575111
84.2275930999011
83.9800889848172
83.7769163869568
83.607790490254
83.5167598895685
83.4619212324362
83.4566401631299
83.4759373128459
83.5454653136771
83.6424242350555
83.7837125834597
83.9130374107943
83.9843853633139
84.0888841662507
84.2277492481196
84.3298371842407
84.4170131687088
84.4817023540841
84.5198096975166
84.5737199694218
84.6872982343165
84.7022418117885
84.7233822163799
84.7245691051069
84.6233335053152
84.6850836552765
84.8210883460268
84.8309218541388
84.807562529592
84.8280567289265
84.8646233854075
84.8340378966737
84.8470428038777
84.8885236012788
84.9045817843598
84.9229990180482
84.9413552591663
84.9395420544198
84.971911726142
85.0147857250768
85.0609120135388
85.1008168529902
85.1696840896135
85.174761340855
85.1158716170641
85.0721045848391
85.0718127305052
85.045273261981
84.9166712520561
84.7416948224341
84.5577815358546
84.1151978685126
83.204492973072
81.5197036361147
79.1980133694537
77.2459154904811
77.1101512123755
78.7078856990268
80.4453615432178
81.4706557147539
