1798
3999.43349933624
650.420452594757
1
128
4
96.0982679557484
96.124989138779
96.0991254380048
96.0050795982399
95.9607071459871
96.0247728588844
96.0389373847859
96.0258483450819
95.9886451204982
96.0364662210958
96.044422064638
96.07003054885
96.0654388300608
96.1433935524628
96.1041238470358
96.0385864904256
96.0245199747036
96.0334775635655
96.0660740760301
96.0463360406931
95.9904234978829
96.0524401573
96.1358122704558
96.1912944811129
96.1112788559804
95.9969309172353
95.9760659769553
96.0536381191919
96.0391060854507
95.9698997369873
96.0217255110777
96.084677178264
96.08506569406
96.1141175334225
96.0678189415114
96.0848540705419
96.1340710654514
96.1473258197453
96.1645479032542
96.1180377535425
96.0498865628659
96.1057873444527
96.1539308143842
96.0443123820997
96.062260143494
96.2298168244271
96.2143546117611
96.0977760591375
96.0809933691588
96.0500549994439
96.0290381767801
96.1337960001556
96.0791985489498
96.0431461588977
96.009005529595
95.9932135257398
95.9836252977049
96.0109572262012
96.09508745129
96.2127348790051
96.2395514980306
96.1648019059053
96.1595556969663
96.185807325556
96.0771544632586
96.0782536984729
96.0742426914854
96.0457758032398
96.0356569787499
96.0321381567198
96.0472349687418
96.0832332605839
96.0702984475877
96.1111019548065
96.3089466406917
96.3123772974143
96.1436796300669
96.1490899949283
96.1665009929689
96.0105838294929
95.9672404854546
96.1075255391244
96.2708021206687
96.3068463741517
96.2484710025855
96.229659043621
96.1968281062134
96.1076234683869
96.1154674664453
96.1807770948833
96.1724685450642
96.1301544862767
96.1003990156081
96.112200561967
96.1736340367431
96.1318451640319
96.038742057697
96.0753633411219
95.9996839609451
96.0088792977552
96.0967285688404
96.1663270017418
96.2000750204336
96.2337521403336
96.2628947326302
96.2331613770388
96.2194041875167
96.1998139026257
96.1174948733141
96.1577491158735
96.0913338373253
96.0445503768126
96.222862257333
96.3164022068278
96.3082694526282
96.2948222002135
96.2718263293388
96.1718915966847
96.0536350489804
96.0808972723974
96.1856945335765
96.1773239630826
96.135326781266
96.162569052465
96.2458032900327
96.2285618817688
96.1516703092716
96.14024112559
96.2192221624776
96.3231724404133
96.2901466963423
96.3024098208888
96.3018499654719
96.2225809107178
96.1690014343432
95.9882675034605
95.9824141027164
96.1052542792403
96.1284462087258
96.2260869165394
96.2484816502984
96.1054541344762
96.0536087817885
96.1633201162243
96.1391900252271
96.1013341999018
96.06397291508
96.1326214400878
96.1947020938445
96.2132937899884
96.1685475262298
96.0695107730714
96.1071742912762
96.2188451632055
96.3031156316307
96.3249830701609
96.1987950295517
96.2065836574079
96.2080616070961
96.2361537136118
96.2548359239041
96.2265326729491
96.2890273761598
96.4187947636002
96.3680522454472
96.1952898611418
96.0138305701029
96.0523464724941
96.204673599796
96.2690279701538
96.1142898140983
95.9865399916385
96.0003533930164
96.128640020062
96.161233982208
96.2056901333607
96.1083035011093
96.0883460422069
96.2313175766819
96.1641503647244
96.0742220653466
96.1007621519613
96.043536319846
95.9660531563937
96.028200007614
96.0776465687604
95.9639226711356
95.9517067803183
95.9475928645769
95.8740782106267
95.6966273078897
95.7050749331566
95.7649363761954
95.6591903436445
95.6769567543639
95.770142619414
95.7632084102728
95.7286498599713
95.5083842443107
95.3664394110804
95.3864930705733
95.3516853398741
95.2898664407531
95.2578968855888
95.1793997062351
95.2382906803786
95.245313217738
95.211430539436
95.0377953576939
94.9776131530858
94.9468231178447
94.9467337682325
94.8781833507883
94.8146119198363
94.8638833920671
94.9418647389766
94.8438197356291
94.7807913102287
94.6913139674683
94.6134031622061
94.5062931890556
94.3944555286587
94.3829105966766
94.3112483214897
94.2963406826144
94.3043949319072
94.1650530714461
94.078682203893
94.122043862549
94.1886191092634
94.2291282387445
94.1997869836861
94.0215169867831
93.8725719244748
93.8461251200603
93.985886400965
94.0417029378499
93.9288425817407
93.7603211304294
93.6975915892208
93.6565146029529
93.6644782706046
93.642347304465
93.5878367264338
93.5290712483603
93.3367331011855
93.2089993971466
93.490998637089
93.585055442156
93.4143670662866
93.2738398276657
93.2012090332616
93.1354176282734
93.010239708416
92.9656359787929
92.9976034341137
92.9946558784325
92.9524985982336
92.9524470156161
92.9777629273885
92.8260472703018
92.8074209344941
92.6821677146683
92.5859534349143
92.6354661698895
92.5819049437272
92.5839696466765
92.7073546458352
92.6984564723806
92.6515717396098
92.5139682370713
92.3058740431716
92.214267270838
92.2602038286643
92.323067056572
92.304082074819
92.2288451550465
92.1274103519204
92.0623336240597
91.9422417245356
91.8864523987647
91.892896515983
91.813255736479
91.830001910566
91.8723711698279
91.789841268184
91.6911263933725
91.6788819818347
91.6167742864909
91.5242824662865
91.4767515365599
91.4923648386013
91.4421097110293
91.468773247522
91.4544165401182
91.4078810059168
91.3465968707008
91.2704958269632
91.2111877991628
91.1509011357647
91.0532282536736
91.0199902224903
90.9758513418885
90.9473696307474
90.88478029753
90.823505239156
90.7783862606722
90.7201187871716
90.640106589418
90.6492807480098
90.6409631461502
90.5246001087244
90.4156743816821
90.4862485554055
90.5130695752422
90.4691673672165
90.3720320484974
90.2878090088135
90.2316915630941
90.2394340991162
90.2329327626671
90.1346809438141
90.0061060046965
89.9717408318974
89.9341904439325
89.9050976839871
89.7808908418887
89.7280095192328
89.8037259031464
89.8118038808644
89.7646874607014
89.7164108303637
89.6478523111473
89.563463968023
89.4174987425662
89.3082624578755
89.38796727934
89.4889879581429
89.3506959733647
89.2021020214629
89.1369715410373
89.1645013885815
89.1881303172771
89.1982061989611
89.1484279417547
89.1114990547319
89.057617389117
88.9689338572304
88.9402505839207
88.9808013811843
88.9527346322388
88.8648453206631
88.8665635703758
88.9198437473544
88.789034215864
88.7389752793644
88.7170063829787
88.6688244529462
88.6296413940714
88.6553860019279
88.5936805792838
88.5927570146585
88.6260576381926
88.6685201925668
88.6282209526521
88.529620250099
88.435870102231
88.4578681275411
88.585783923659
88.584538607542
88.4986771336842
88.5491076184878
88.538810481575
88.5501089750634
88.6197645333604
88.5749222013518
88.5675914710563
88.6400726226636
88.6788173210363
88.7316678928753
88.75757190818
88.7991775367475
88.8990439574772
88.9511595313518
88.8652656582434
88.9319472699625
89.0032645561746
89.0722824455475
89.0550046337072
89.007318882737
88.9973287262161
89.0332735870883
89.1394947489973
89.2123339472884
89.2057783976427
89.2813729506753
89.2976331969426
89.2968480673067
89.35502522092
89.4380864690481
89.4685574594637
89.4652758566072
89.4450441478112
89.4465065502437
89.4673919849715
89.5540261390388
89.6133790141618
89.6307205370235
89.6189359509943
89.6691413014206
89.7600803006283
89.8462843516781
89.8847958545143
89.8012412398819
89.777283204019
89.9249541992587
90.0468052358356
90.0570070454128
89.9963888474073
90.0299550723417
90.0950318641338
90.1176675076329
90.1516207210862
90.2357911410322
90.2365743027258
90.1424579427897
90.171351109099
90.213779249271
90.2723879965819
90.4081135626991
90.4191111654389
90.4000714459778
90.469343229157
90.5661897048486
90.5963631835073
90.6173635632394
90.7011130915484
90.7172044152567
90.720698468419
90.750439854444
90.7708973903676
90.8359895846909
90.8593970524698
90.8622608734022
90.9255681121787
91.0707785832156
91.0791571881214
91.0417886599953
91.0367354084158
91.1164406299315
91.1835067023872
91.1096206241972
91.0485860812874
91.1890875959086
91.2926156268454
91.3396856950417
91.3501724067512
91.3373565900078
91.4109785497692
91.4997354512786
91.5714708135399
91.5590094192466
91.4673218513498
91.5040629449776
91.6177073893422
91.6918636683279
91.6824926270524
91.7343917179363
91.8323665282365
91.8825538718933
91.8274797932386
91.8449780945528
91.9671114197109
92.0255996709078
91.9974421872418
92.0226554834003
92.0576380463042
92.0341427158839
91.9776148362815
92.0735108377026
92.1027327058471
92.0825776799725
92.193075474991
92.2600427836948
92.2913001874865
92.3714582169402
92.3860676982357
92.4148322362178
92.4195211360774
92.441157901641
92.4641814411786
92.4249563230659
92.4133361230977
92.4987919073637
92.5310593449572
92.6254294750568
92.7003320891868
92.6977637004064
92.6980747646367
92.7011148730444
92.6901322612027
92.7458852870628
92.7975718478332
92.8667996572511
92.8726537467717
92.8680071735217
92.8475351205402
92.8308467139414
92.9165537204848
92.9565166668961
92.9715652930651
93.067730994638
93.0596940312409
93.1266462619045
93.1960897099074
93.1656894122132
93.1099790006884
93.1605355933666
93.2110848973967
93.251864590396
93.3045380278829
93.3839259366018
93.3765825709258
93.3519926332324
93.3296832036005
93.321461622937
93.385202146136
93.4542307378577
93.4935354481744
93.5221299583
93.5725948262853
93.5844016845396
93.5624323576653
93.5666721992145
93.6052401620135
93.6522564139153
93.6861720229746
93.7126222526306
93.666654764598
93.6430957234124
93.7239180364723
93.7742143467665
93.7099745279334
93.7232383344377
93.7311905085457
93.751679477856
93.8392558083517
93.8753261820097
93.8423995617919
93.8521137385297
93.8397959314618
93.8876152089872
93.9424712020191
93.8860426042177
93.8331016707977
93.8801491247608
93.9188140988383
93.9425357892434
93.9265356067037
93.9416619530301
93.9808608400768
93.9759908154671
93.9540372662184
93.9744884164867
94.0233756905229
94.1073271642138
94.1543851934019
94.1633433541542
94.0841192901039
94.0875871832742
94.1268985023891
94.1520142250432
94.1282258316956
94.1254017637797
94.1727282307732
94.2041778136641
94.2232184150557
94.2648576788375
94.2668625699508
94.2639167032104
94.2890908501363
94.3823071683903
94.4801905862608
94.443755978034
94.4347523559162
94.4937058854077
94.48501543444
94.4615302984344
94.4713053241661
94.5248399150841
94.5579231851743
94.5135409759182
94.518755915035
94.57910195955
94.5920934666975
94.5399811043124
94.5649601955578
94.6259834844128
94.6006532676356
94.5910992660991
94.5960500208923
94.6265017501082
94.6493630085416
94.6386282252139
94.7187370028209
94.7455524099358
94.6948659220687
94.7531284042416
94.7956813597937
94.7409209354286
94.706773903738
94.7819874103967
94.8259587569485
94.7714443348922
94.7605057076381
94.8483372188779
94.8179818236972
94.7993982475661
94.8964089616974
94.8726829356942
94.8176441780794
94.8847914795356
94.9916120257741
95.0502115894651
95.0650274989415
95.0923868831235
95.0657928213147
94.9856667913614
94.978376423598
95.0249557454891
95.0441230586745
95.073303014151
95.0473220075
95.0359924296246
95.0579108549496
95.0495150468787
95.0276775251451
95.0650596912299
95.1066659113441
95.0679361584345
95.0225838100691
95.0592999029572
95.0738870586259
95.0437185112933
95.064817253636
95.1151102857612
95.0815242534064
95.0041184517737
94.9402900348927
95.026938726023
95.0747037231351
94.9857197491282
94.9049533898555
94.9137032688483
94.9464200534793
94.9411746686955
94.9570538989176
95.0148713351016
95.0287917868396
95.0482883794246
95.0404388340306
95.0313436723705
95.0541720812777
95.0824957825723
95.0785835000184
95.0468323164087
95.0237773346657
95.0843917740642
95.0711828318181
95.0042620230647
95.0758797815572
95.0990649789089
95.0628202266772
95.0610397709464
95.0350669550899
94.9977372790293
94.9856223174138
94.9589073967121
94.9580658237218
94.9101632726864
94.8638898774307
94.9079394328502
94.9963667013555
95.1378341304269
95.2528017304079
95.2717281726587
95.2642806992161
95.2677742576769
95.284002619504
95.3223229898414
95.3484279796305
95.3737610072594
95.3845946820018
95.410941151909
95.47643437223
95.4973652438104
95.4634617358249
95.5025301209625
95.547828236913
95.5523081641166
95.5452541800274
95.5284241709288
95.5725491521395
95.5949228795345
95.5819488852577
95.5485651691006
95.5101452113725
95.5665293101224
95.6344778527179
95.6993497315286
95.6990936781435
95.69058430351
95.7147540333309
95.7145473416207
95.7495039015036
95.7166284932821
95.6453046389906
95.6602896390922
95.6817167317081
95.6444669187194
95.6433269034528
95.6553376004235
95.644681743326
95.6566236054265
95.7215731283125
95.6955018605508
95.6500071181873
95.6418955372321
95.6416236672596
95.6801764886196
95.6952858864248
95.7483827644839
95.7673319399858
95.761152017048
95.8152842790287
95.8585338408981
95.8405210898086
95.8729909931002
95.9154154645232
95.8966996322109
95.9014122918342
95.9523035366575
95.9541801440233
95.9454762897036
95.952753126075
96.026131318899
96.0261949624179
95.9566531564761
95.9815798306799
95.9933699627558
96.009670891236
96.0259227521132
96.0082111576236
96.0812723223233
96.1928513138229
96.1909018751623
96.1460947874013
96.1067199969847
96.1165490500328
96.1788674358432
96.1651646596864
96.2051214988771
96.2691621512048
96.1989875163407
96.1349342495578
96.2117603825562
96.3210704290176
96.3430955130887
96.3373860308109
96.2216369232738
96.120914724505
96.1408279319318
96.2477275339433
96.3671497892772
96.501749827664
96.5054836782427
96.3982828621578
96.3916810726656
96.4172330076828
96.3213832207975
96.3211031474408
96.4051913970527
96.5138519249643
96.5324667158169
96.4517472370246
96.4355772949974
96.4420240097586
96.3932837360986
96.3778983826463
96.4341661019139
96.4571191494476
96.5168591741237
96.5374482622623
96.5289311258512
96.528885457511
96.5641354632658
96.6970371995008
96.7062881397376
96.6374136837874
96.5091596016516
96.3900373643403
96.4740974362375
96.5687255736527
96.5544868786631
96.5659908490939
96.5198558194986
96.4369034463071
96.3884671432865
96.3707311939731
96.3565539616942
96.3854390259852
96.3288034103613
96.2274830279648
96.2646068092191
96.3208474550106
96.3352897584499
96.2867351991259
96.241363830046
96.218673343092
96.2361359351084
96.2935160975897
96.3182561866846
96.3578915084811
96.4341167014574
96.4028064191085
96.3213022001871
96.3423570514962
96.3472832945613
96.3394859123686
96.3749380496923
96.3502064626327
96.3600338797942
96.3846978391472
96.3921979233995
96.2934452127819
96.2006462030148
96.242446390263
96.2268143261652
96.1976681555072
96.2131583324472
96.14501025131
96.0681601397433
96.0110644765174
95.9763293279849
96.01015121952
95.929286227115
95.9066706128687
95.9237497087459
95.8840329629138
95.8876326591211
95.9157733196542
95.9891313257297
96.0005559599717
95.897444568945
95.8187795640804
95.7010414592692
95.5437887270219
95.3954064009502
95.2031913913732
94.8994426629622
94.6987467934868
94.6023432137748
94.6243992314901
94.7613539179014
94.9721567237609
95.1574640256817
95.3082631419771
95.5029420230313
95.7530168554505
95.9217330289034
96.037185697939
96.1760451356337
96.284779828798
96.273875498718
96.3759444177736
96.5501775517347
96.6038439676497
96.5967302426519
96.5677125834003
96.5380390041883
96.5233178395495
96.478647492867
96.4915454837706
96.5276478074074
96.4884883545779
96.4258261915788
96.3727345740041
96.3923185235761
96.4113914427504
96.4524035160951
96.584456605671
96.5680089098141
96.46603718027
96.4807263758142
96.520808858273
96.4932374969351
96.4550662045624
96.4443098235288
96.3148369553353
96.2092677807753
96.2527209116376
96.3664611367898
96.3936465767965
96.3843402643596
96.4191677290584
96.4467169395892
96.4073421852022
96.3543031675064
96.3979704299044
96.4499846670355
96.4565930289493
96.5088925407441
96.5332452414977
96.4639218214936
96.4767258044227
96.5403495425619
96.4768170461698
96.521292286322
96.5405303535782
96.5689211670251
96.697443702909
96.7130010473608
96.7307486987616
96.7422080744609
96.7519775163445
96.8122171103691
96.8551046227169
96.9351937810243
97.0629899071342
97.110326401551
97.1054416877635
97.2735652717502
97.4001977094053
97.3230812643288
97.2714963458786
97.3374428186123
97.4126787335607
97.3351946546514
97.360035958613
97.3938268555243
97.5018584084746
97.6998303707704
97.587301079315
97.4260308883653
97.5307251300578
97.6884840014412
97.8112940410319
97.749793427638
97.7442974292011
97.8809803358711
97.9720522819865
98.0079841478141
98.0799216714086
98.0405607397739
97.9520359395539
97.9734584145771
98.1884917535902
98.1922363714543
98.1200522053572
98.1030232489911
97.9578085487721
98.0369088507969
98.4463142895134
98.7113326345151
98.5510440085308
98.4077050233767
98.5219067372625
98.4754436501328
98.4662298846993
98.5600874973118
98.6200213301146
98.6532265676323
98.8081607936934
98.5516695427424
98.6555063275352
98.8797592089837
98.5274640311754
98.4489183948283
98.6144698640075
98.9928303057348
99.5084870885522
99.2453779597871
99.1653366698764
99.4429317284604
99.29570004579
99.3032687225568
99.6333921400115
99.3347049109413
99.1925069526547
99.2872482615422
99.2578161941496
99.2871271864733
99.1644970490525
98.9706566897056
98.8901714944286
98.5765109469185
98.1738534734918
98.1230150552877
98.2430702874223
98.2455816814753
97.9925622467461
97.7857519277253
97.8852018960852
97.9941427517324
97.8775650375608
97.6747765583339
97.6171052808018
97.3929556682649
97.2140455496228
97.190443583663
97.3184561295149
97.4121080339872
97.3209545185777
97.4151293848326
97.5545459619623
97.3850732370711
97.3419095601349
97.5252336842563
97.4981002356795
97.3799918553022
97.3925106083506
97.4629945129001
97.3560768812429
97.349164656834
97.4560016902068
97.4285328150589
97.3603131056851
97.4153783633791
97.4334706203407
97.3612207569882
97.4064917697526
97.3104921249045
97.293567020623
97.5832638977107
97.7181972317941
97.5019583227882
97.3439425249121
97.3825302357375
97.376160036795
97.5097578345241
97.6314151250549
97.5730416909948
97.7087602814012
97.8559205431857
97.9255143722503
97.9785075472008
97.7788399003011
97.8680077677071
97.8677873665784
97.9071893018116
98.013039187405
98.1919189722867
98.4879615860257
98.6254633112153
98.6653751848874
98.7983192373452
98.7043505963009
98.2774602411167
98.324138034654
98.9180260975045
99.072319013018
98.8059749513429
98.6015802241985
98.6181926958481
98.6454539610071
98.5779696320909
98.6660540445941
99.0822477206067
99.2670243553764
99.1132133840825
98.7767929707404
98.708570114112
98.8409560185682
98.6164767933881
98.3492205620064
98.4947189903124
98.3964964598583
98.5012575235051
98.4058629270505
98.2469836850342
98.4763661007974
98.4208904387891
98.4350561237421
98.4368715326615
98.414224225808
98.4730279771836
98.5756438473744
98.3836360835351
98.4202986432168
98.2470406881567
98.2993211973043
98.5145645427224
98.4785630363479
98.5808144090387
98.4780990238327
98.2703717596817
98.0265748037297
97.9013135209317
98.1279968190332
98.396693651177
98.2302272425595
98.0999256795765
98.1959858198063
98.2977993151807
98.1553403693433
97.8884503027397
97.840089536988
97.7516041744175
97.7818995902167
97.7915633093701
97.906083879498
97.9558703668194
97.8217019281455
97.7188406057251
97.6406388413086
97.7776202359849
97.9241348420448
97.779282635094
97.638906332435
97.6314332090548
97.7739684419872
97.7300395509365
97.5928211565039
97.5831745690186
97.6242300392794
97.5715174279728
97.4812950616306
97.4510049189
97.4723208228925
97.5299960081601
97.5922270867408
97.5148309861372
97.4658933712553
97.43948661086
97.4863758893947
97.5340102081476
97.5456334185664
97.5700401393302
97.5484656240761
97.4194746326431
97.3842391410672
97.4598649072664
97.4571490891939
97.4284225524368
97.4941003574216
97.4789530324154
97.4458427982445
97.4782685017955
97.4631271795905
97.4193818903475
97.4046176889214
97.3789871737808
97.3711297841132
97.4566400766483
97.5178500937193
97.5853241951559
97.6418513210616
97.5388591767196
97.5245012257282
97.5230663647788
97.4499472272859
97.4271688165817
97.4829343821595
97.4885419142107
97.4074549355614
97.3572552809725
97.3526915080688
97.4179701423939
97.5331518386977
97.5565459575457
97.5140238953237
97.4891870133523
97.5036954746418
97.4665540685704
97.4298415793095
97.4483447782409
97.4690328467602
97.4642664144146
97.4804420114653
97.4761134797551
97.438206930936
97.3997705352475
97.4017953529077
97.3962662580177
97.3754208217907
97.3445235741915
97.3580144344965
97.3600300609625
97.346989088927
97.3242908085511
97.2802927604806
97.2355713960434
97.2330430564974
97.2377995502119
97.2600213585435
97.2489653901574
97.204098236277
97.0028925553192
96.402194674083
95.0243138865559
93.7668397495274
94.2493121702785
95.3235241104546
95.9774629041832
96.4369682073272
96.660499074256
96.7475698813538
96.8504488253672
96.9195537186314
96.9064425023796
96.8835436831891
96.8877246779303
96.8929279795912
96.8754948586722
96.8156864653323
96.7912443488845
96.8276699114117
96.7421342030207
96.6927282191129
96.6533947350035
96.5820200808273
96.5747468401535
96.5568854433641
96.5038268441483
96.4321774493148
96.3204299850954
96.2795105076124
96.2491307348557
96.1597282962277
96.0993010554321
96.047440020209
96.0093466609367
95.9261250638466
95.8034301716608
95.6881096370205
95.5335724517412
95.4264627654759
95.3367230899597
95.188367004904
95.0313243863635
94.9060685995383
94.7654824581929
94.6091319473188
94.4343698284515
94.252466573973
94.1152156698579
93.9716451735788
93.8678851324498
93.7828775270722
93.6382990914962
93.5242197784853
93.4357421307558
93.2797476690492
93.1564320756917
93.1044426373655
93.034012406484
92.9555509525359
92.8593093262982
92.7379277697192
92.7837568855755
92.710097342925
92.4953521042179
92.4099836438611
92.3675813843787
92.2326117079383
92.1437491844836
92.1223636724154
92.043025243178
91.990604889766
92.031924007343
91.9811874076135
91.9196920338363
91.9129667293069
91.925353252675
91.8630969735112
91.8770481897495
91.9312443571725
91.864656465919
91.8095420350362
91.9349410214847
91.9651152188302
91.9057159106162
91.9268666745166
91.9886079384089
92.0164383974469
92.0391084820558
92.0847996471552
92.1379624873848
92.1531642119352
92.1873656996247
92.2094729674784
92.2200845406134
92.2563742474348
92.3124977174563
92.3439917538939
92.3528698898666
92.3880980258488
92.427039932024
92.4623385953263
92.4326485187041
92.4517869759421
92.5910249998434
92.5474051628865
92.4952424955546
92.5952638524919
92.6317178805692
92.6093112097484
92.6107425042849
92.5271594870703
92.4722208303755
92.6356004072549
92.5783787824434
92.5048287279782
92.4845019265412
92.4932920180321
92.523833459391
92.4875293051726
92.4615134986961
92.3985266101032
92.3347007575051
92.4059964257594
92.3843779746149
92.2219157795942
92.1599940072434
92.1677158397427
92.0707584105755
91.985099232216
91.9746411929812
91.9155073681958
91.8140988465742
91.7974723904321
91.7057506016777
91.577433203175
91.5146389196639
91.4024003414404
91.3130777419699
91.1923702134783
91.0860147161316
91.1214428169024
91.0128560810552
90.8432567514732
90.7261986961149
90.6515804810078
90.6563632311118
90.6250848030305
90.4746374712111
90.3708347148763
90.346551507863
90.2856400699634
90.2128849061802
90.109661712724
90.0341249539181
89.9827973377711
89.8842363021431
89.7630517806711
89.5821543997921
89.45261459277
89.3614022355806
89.253813471482
89.1681471679836
89.2007743507468
89.2082813205819
89.0915227686571
88.9090946057582
88.7959146466197
88.6017030694986
88.1814120338255
87.599175849227
86.8377971195298
85.9358595312649
84.9110270364615
83.9417472684421
83.0598436206029
82.2448567385765
81.5084461426396
80.7812732022796
79.6986792078713
78.705167054138
78.3791053772153
78.6214788513451
78.4740607551969
77.9342483176278
77.274171204958
76.5230331672354
75.872082114724
75.2098543857149
74.4097139966883
73.6565020652597
72.9240064569219
72.2173977876959
71.4737808843423
70.7418114464163
70.0204420960346
69.2368106335604
68.4281541221697
67.7552984033389
66.9864003232112
66.1721339517099
65.3536607529958
64.4205033136776
63.4477850538375
62.4700047593049
61.3528478691617
60.0816123862929
58.8388463421401
57.6563630507019
56.5750161659438
55.6087462462456
54.9175256477058
54.6970540122693
54.7152001950133
54.9486818415601
55.4072798760293
55.8493210540411
56.2807102081128
56.9725943187962
57.5971333679046
58.0534137869081
58.50429720712
58.9918339177483
59.484383061519
59.9665417437279
60.4527396796169
60.9177989124489
61.3806718097628
61.8351324045542
62.24485597342
62.7940621490633
63.4031063450336
63.8616031791556
64.258698406235
64.6749936036441
65.113306157699
65.5544111871281
65.9819254863196
66.4086250859142
66.8719213083876
67.32031310631
67.766019476866
68.2176973719812
68.6180670596468
69.0289357116623
69.4599442439081
69.8342215225563
70.2027676718085
70.5821892071344
70.9398797094518
71.2851603692872
71.6421077879308
71.9996167057644
72.3323157195358
72.6682478812283
73.0204250082726
73.3551874806636
73.6602822949269
73.9699807480538
74.3053572658849
74.6029289775719
74.8869297656462
75.1873711750891
75.4688675573403
75.7296823926325
75.9869843300026
76.2485481084708
76.527559241686
76.7804810854037
77.0099769964268
77.257354639333
77.475868735977
77.6885001285916
77.9100456617853
78.1188856895654
78.315870554976
78.5023998752979
78.6766176954233
78.8477526277195
79.0019715537381
79.1856586862442
79.4056139870127
79.593075357729
79.7696669033059
79.9399395473051
80.113116651577
80.2711045456613
80.4227841663585
80.5858089098199
80.7126521332533
80.8420374707198
80.9565802291132
81.0396949698313
81.1077836269375
81.1248372045533
81.1163707269326
81.0466554667887
80.8899278375866
80.6623097687792
80.3612669141149
79.9681184246164
79.4425319619493
78.7851259748853
78.0116749199997
77.17222024926
76.3366393458877
75.5363999992602
74.8658000994819
74.3742239983439
74.1149420436043
74.1533723993167
74.5180891416955
75.1143717830746
75.818291929658
76.4412615901455
76.9084130703829
77.2216826048315
77.3530724992336
77.2892298446149
77.0711877139182
76.7330023704759
76.332653655077
75.8541197471702
75.2615347075964
74.5802742314621
73.8868741694576
73.2363710680595
72.6082839447336
72.0314671767411
71.526941431469
71.0358912861552
70.5280168200674
69.9891378556563
69.4078117088024
68.7696477511206
68.0644351202076
67.3087051823975
66.5560606591816
65.8650149097537
65.3966531824757
65.2546886893071
65.3556592535868
65.3922719555916
65.0642831534126
64.3403064804627
63.5052545587996
63.0370129178981
63.2035873688887
63.7955318081184
64.5119298290517
65.1796411783543
65.7068577049027
66.0461029716021
66.1767048064563
66.1314029934416
65.9332293446027
65.5945874420055
65.194714891728
64.7760978465626
64.3651369486296
63.9797307297099
63.7707415251652
63.7897733449056
64.042409313083
64.5314204401487
65.2076768287442
66.0008567647562
66.8428579127887
67.7010125895011
68.6160848460196
69.5525550225847
70.5045827504977
71.4270212953899
72.2935398435533
73.1463646294564
73.9823231879311
74.7342057914394
75.4114960225314
76.0566092892643
76.6790328465263
77.263803296375
77.8243550660266
78.378239632927
78.8885740943943
79.2841957017389
79.4941028287569
79.7816946371319
80.2884852887431
80.7543926680677
81.1697700900528
81.5532294646446
81.8928248367403
82.1947806648683
82.50329134294
82.8149653795089
83.0968131511414
83.359941861992
83.6106936950313
83.8122560859293
84.0054344130032
84.1886495868263
84.3657927645875
84.5701373621153
84.7745150713486
84.9561740843969
85.1238985236326
85.2670215579537
85.4150286529751
85.5389804287329
85.5980351600196
85.5996616971709
85.5988206741016
85.6528952592839
85.8082106795361
85.9955193066958
86.1582096429003
86.3034151920531
86.4542789324005
86.6058808253594
86.7208960517323
86.7885101815478
86.7875351483036
86.7174713896226
86.8065138431489
87.059295888806
87.2612561152824
87.4093732956015
87.5515214443063
87.6759674159928
87.8043855492937
87.9212567769965
88.0207657955874
88.1256210012702
88.2417707775522
88.3205231487587
88.3883686482225
88.4515682492736
88.5286320528261
88.6233224661282
88.701316967399
88.7527332288791
88.795867483564
88.8616298710416
88.9282797592256
88.9799536970031
89.035136051954
89.0805320575597
89.1128762177563
89.1357294523708
89.1953695575815
89.2741054202955
89.3028797865493
89.3184337436151
89.3460262959337
89.3874571334319
89.4342427770694
89.4871622658841
89.5435271455699
89.552141376325
89.5440076155918
89.5456882189477
89.5870968022369
89.6376138971683
89.6950119084326
89.7371526352694
89.7101308755765
89.6750158009414
89.6715761266229
89.7115131776698
89.7623160027474
89.7829769395426
89.7848662367445
89.7812932686243
89.7522718924796
89.7053390025211
89.6483323298699
89.5942178486455
89.5585436348359
89.4722800929632
89.3841267408487
89.2882889233111
89.1520190914068
88.9722383979516
88.7997956245506
88.6587163136367
88.5044664262112
88.3652084096227
88.2623288413889
88.162795382988
88.1079259028327
88.0687522940353
88.0660908970977
88.101663525225
88.1387276834655
88.1958968077855
88.315004277548
88.3808112003059
88.4241628414232
88.4496641796382
88.4198298953366
88.3182624203497
88.0966694565444
87.6799323199687
86.8066333872219
84.3144847158597
78.5413658202745
71.220323992163
68.443635100218
72.0551555109459
77.5455027939609
81.5548641737877
83.8729098421082
85.0881132710496
85.5853471076417
85.7632240063111
86.0891603759078
86.4273077071813
86.6002964612293
86.7043833773557
86.7728461333557
86.7893180543228
86.7526050497348
86.7243945752631
86.6793419589334
86.6043520565203
86.5589223148575
86.4933964086116
86.4061632781918
86.2710750546777
86.1670903603826
86.1049071840118
86.0423259742204
85.9118444228248
85.7201038333642
85.5324789199259
85.3501373689479
85.1440616221146
84.9355800714167
84.6600216362773
84.3607487315709
84.0895628290365
83.7920368254426
83.5151325017279
83.290118664349
83.1076569769762
82.9917974979962
82.9177261077127
82.9272055717467
82.9248092721224
83.0006780508747
83.1192528103166
83.2391621752376
83.3609823493902
83.4833258079365
83.5940206863195
83.6866108201293
83.7715191097032
83.8560875958935
83.9490484095848
84.086798212277
84.1727127409602
84.2129964978159
84.2664880128348
84.3053981490578
84.2297527277636
84.1149218502366
84.158720189434
84.3194885876198
84.3689632223835
84.3759157883572
84.3887573021939
84.4014079993989
84.4036442400954
84.44015210452
84.4259557112657
84.4180271037379
84.4318072507298
84.4249284458195
84.4229220432156
84.4657147480445
84.5248775763593
84.5394144634664
84.5334637681171
84.6048446392667
84.5994818052197
84.5944949791967
84.5949384311356
84.5970366771388
84.5406726259601
84.4096340447565
84.1936595944493
84.0599497477856
83.5844862415583
82.6246224878971
80.8906770859586
78.5541316580428
76.5328984641822
76.331262055448
77.9900604396359
79.7914508620355
80.7399867895866
