1798
3999.43349933624
650.420452594757
1
128
4
92.4472522812855
92.3915129390001
92.2585786435777
92.2625195099986
92.28811311618
92.3651360426012
92.3521480977543
92.3329824034749
92.3023496936128
92.3293257399204
92.3718259261502
92.4024622696483
92.4247842170208
92.4412536290408
92.4140320156309
92.4174844535754
92.3802333806134
92.4083068036003
92.4469185415514
92.3706071793638
92.2991524356336
92.389700812889
92.4641627568794
92.490434861487
92.3951119027602
92.3097220026094
92.3521596895369
92.4829345564938
92.459911121655
92.3664640355993
92.2807730190381
92.3233582553505
92.4373770708023
92.4955011919508
92.429640601527
92.4547241604672
92.4795515246277
92.4685323193269
92.4362544439474
92.5016885407876
92.6149826147238
92.6235474538809
92.4062624569731
92.396830624707
92.521200609736
92.5372783616896
92.4408831583685
92.4844881403551
92.5865297749797
92.61712861273
92.5747767091951
92.4709072873929
92.3633244672296
92.290339095007
92.2073954167018
92.401128234218
92.5606602627267
92.6171714789974
92.5792176392975
92.5417892096813
92.5500781706451
92.5725582282175
92.5697290610356
92.5546426158901
92.5829663623646
92.6324008840144
92.5710129216551
92.5494826289879
92.5532362062707
92.6194209925857
92.5427847914552
92.4756500007257
92.4748610555867
92.560310510714
92.6633381529721
92.8362911330884
92.8703162486493
92.7226652215745
92.4163102189466
92.2555571526149
92.3935810061462
92.5995372204007
92.7265450853299
92.7777300456944
92.7699601860407
92.7388616798466
92.6502467316389
92.6381981361197
92.6106869748142
92.6484215233482
92.7559800011846
92.7559351568278
92.7067794123406
92.7696657298496
92.7525414257851
92.7771693471645
92.7934730537641
92.7653719345493
92.6263863077503
92.6624879317214
92.7921440560357
92.8732506315198
92.9284969937475
92.9717499997893
92.8688646517141
92.7891412545386
92.7347546269676
92.7444450513106
92.818109997821
92.7850535108704
92.7087836936302
92.8925049326599
92.9697835741877
92.916954219969
92.9961179761638
93.072925994205
93.032210603958
92.9736542564194
92.8975845968261
92.9400723855758
93.0190769214346
93.0196151576167
92.9571312964885
92.8987968225426
92.8879655285218
92.9630208261544
92.95098180504
93.0134450351765
93.0789103353119
93.1236129042158
93.1144249506614
93.1890030023956
93.2241563815116
93.2000939809821
93.080399561136
92.8511009722635
92.7684805272877
92.8089701328454
92.8245173994667
92.998462120414
93.1443295011851
93.1566966727154
93.0199915846406
92.9361587265706
92.8677160725374
92.8989516672124
93.047922032128
93.1055105739178
93.010893394725
93.0471148087476
93.1324658062673
93.2334133542046
93.2797968714156
93.4107853095498
93.2688328681572
93.0929555404963
93.16121485585
93.2376022639188
93.1976437668924
93.2700343432506
93.2007508801442
93.1658696675972
93.2632203146348
93.3656172620382
93.395095566887
93.3374219773525
93.1155177983464
93.1213477514056
93.2398922807522
93.2674266857981
93.3789656388022
93.3943965503433
93.2229154279098
93.2165949093992
93.2308992738902
93.1345875658962
93.0634365059337
93.0864249828822
93.138156173206
93.2261814925443
93.228884723165
93.2118903790661
93.1188744343171
93.056141629289
93.1431448925185
93.1679618638424
93.0106455233837
92.9140128605084
92.7739606300765
92.570317062903
92.4510157994052
92.5041269453673
92.5952467191777
92.6388429047163
92.6162625523829
92.7155427043518
92.652214382295
92.444698515869
92.2455507153709
92.1925961495018
92.1042766546603
92.0400811654502
92.036192746296
91.9789495641619
91.8638949594041
91.7942236686939
91.8114244646837
91.8104859529209
91.5803098633864
91.4218799059916
91.3503426105136
91.3878496132319
91.5189894990257
91.5336805823347
91.370038627224
91.2549245575507
91.2287696569254
91.1897116387332
91.0174708570604
90.9456715214856
90.8557081576188
90.6347040546336
90.4769611784584
90.5041818419788
90.4647538512793
90.4955339597512
90.5224801487799
90.4255873970312
90.2698546871852
90.2616082158423
90.2521881696002
90.1596025037351
89.8806403474084
89.6997314692167
89.7292095231245
89.76076257511
89.7441344544033
89.8066018426456
89.6465976330324
89.4819181758352
89.4705185213269
89.3751377552088
89.1954298067328
89.113399006546
88.9934921983299
88.9055559010356
88.8748638240139
88.8564451508514
88.7443183476024
88.7867662826154
88.7474732466103
88.6533769443104
88.6145360921311
88.4804878347661
88.3132688866272
88.2866133458284
88.1452038033534
87.9913751980917
87.952439521861
88.0065926467621
87.9565809415427
87.8248480894694
87.7032250257956
87.6960074192851
87.5840837505393
87.5302598097409
87.4686235728537
87.3924532412918
87.3770386653149
87.2589901292718
87.0629653138668
87.0612487956673
86.9767637851009
86.8983150685893
86.8770343571519
86.7919712992702
86.5998989136499
86.5571681855827
86.5083395701979
86.448619634376
86.255222493099
86.2040064233114
86.2494057104912
86.2435114914198
86.1263945616721
85.9444709926375
85.7579187622483
85.7320734000503
85.7144572394184
85.8118550829686
85.7530539193214
85.6608747717393
85.5895879569415
85.4381901013152
85.2705570885034
85.2248304403306
85.195514968097
85.1492208210523
85.0370386861652
85.0112194059475
84.9611482572099
84.9078123232323
84.8252654052087
84.7159897374438
84.6159096529138
84.5910472752981
84.5410547363775
84.4517091873975
84.309147764432
84.2355660931518
84.1604725741725
84.1461248822963
84.1172792017023
84.0956931150381
84.0405982594547
84.026500911456
83.8696111297016
83.7382035037079
83.7141303438632
83.7332438806337
83.5929597447131
83.5448152910952
83.5444511319973
83.5401671004727
83.437998754609
83.3489334308628
83.2865899843086
83.2307624276769
83.1949279016541
83.1761754864469
83.0984051345422
83.0828932260718
82.9906750895641
82.9511808397586
82.9139870960281
82.9737065005558
82.9886442119065
82.9282448054865
82.8603247598664
82.7829692206797
82.67281858152
82.6818030517599
82.6499716939983
82.6536810273992
82.6896744734248
82.6827204029802
82.5571357764317
82.5193560004827
82.5047101159415
82.4899761312037
82.439965430907
82.4896113802855
82.4339306190664
82.3292414070525
82.3217283653039
82.2718623330728
82.2164850008276
82.3657936055536
82.4092545861393
82.4463562753938
82.3173744254105
82.1998333639145
82.1915427097826
82.2732765741746
82.249913522156
82.3011500521218
82.3262165188489
82.2668632685105
82.2450093716584
82.2795364123829
82.1831940123459
82.1650402319742
82.2012047365664
82.1645858561899
82.0800633453084
82.1591887633588
82.2411229385425
82.2468115072411
82.1503225490502
82.1314534481581
82.0942186840217
82.1227547628315
82.0607893892811
81.9910003822982
82.0154690453225
82.1072731012081
82.0803292379611
82.0457870549117
82.045034371258
82.07297555896
82.0362763945408
82.0764715166714
82.0495785882166
81.9901987762087
81.9496138293724
81.9756416100172
81.9720254560573
82.0119822348844
82.0206702493576
82.0683393738018
82.0450493113413
82.0535687399304
82.0675820882267
82.0330953301721
81.9983184520846
82.0297734361589
81.9912015524805
81.9289154852991
81.9966969532337
82.1319135412714
82.1514618167826
82.143841215366
82.0928256571259
82.0478457484325
81.9882986866873
82.0183491863525
82.0783114075079
82.1879719944641
82.2104268125909
82.2110460090429
82.1855782026552
82.090064938888
82.0925552328352
82.2382101080573
82.2883084831606
82.2647256941474
82.2599175059866
82.3026926252972
82.2407659031417
82.2602052122712
82.3234312071438
82.4289525747768
82.4558509678074
82.4392565579405
82.3925977052818
82.4361376267969
82.4737721681477
82.5371275488562
82.5250350888058
82.5629811633685
82.6471600497274
82.6903995131648
82.6542836124887
82.6802784126484
82.7484856947449
82.8314726854906
82.8808652913259
82.9698865925544
82.9989020899066
83.0354270655486
82.9668567293232
82.9633160829517
83.0765045074475
83.2023135035758
83.1972166007008
83.1979599159177
83.2438596527459
83.3006161552299
83.314931792174
83.4027857669976
83.4861090153716
83.5687417038934
83.5990140215693
83.5208314236823
83.4899313941178
83.5971246887103
83.6091565986138
83.6820049183435
83.7244512934974
83.7651635228435
83.7274746577053
83.8683519071176
84.0211585515387
84.0359907403544
84.0200118548899
84.1006082267246
84.1158541945398
84.0457158105588
84.091726570392
84.208027926968
84.1312649276405
84.1216793276122
84.1668941241798
84.2654007607179
84.3364165948156
84.3552572397406
84.4021387053808
84.4838842228642
84.5140014216124
84.5108487125808
84.5942734969143
84.7244471403595
84.686916045509
84.6819692749261
84.6453051952893
84.6629343131708
84.626064542996
84.6325331654496
84.6920393027448
84.831590726409
84.8712442680228
84.8811839147543
84.9010252707907
84.9156978007401
84.9414722522288
85.0310154967199
85.0662863002974
85.0965358931605
85.0774251113739
85.153254943036
85.2447693914271
85.309334321211
85.2772329242761
85.3239499349015
85.4528827920401
85.4951012702554
85.4627140873798
85.4636718427541
85.4668744466296
85.5083786564997
85.5376656499741
85.5999201956114
85.6598347262258
85.709211566271
85.6865563637862
85.7339996132253
85.7569542106937
85.8027198464306
85.8760731506169
85.9216007194406
85.9032066725875
85.9658674224235
85.9852959325615
85.9370191067653
85.9332002899047
85.9671102150196
85.9473275627787
85.9990248728151
86.0293749384163
86.0493649841879
86.0084037277224
85.9565265306873
85.897675933259
85.8590271729337
85.9057418396842
85.9503707321545
85.8706021376357
85.8425220973601
85.8226151151449
85.7882796896741
85.6964858344926
85.6538555471077
85.6682779627673
85.6532505444287
85.6349587624549
85.6399662418641
85.576444346132
85.5146569862435
85.5292351112531
85.4952721201807
85.4027105763026
85.4406074876303
85.4604788586443
85.4210523645823
85.3565503927317
85.3904565549501
85.3802115798683
85.3217092610304
85.2425582374691
85.2465654074214
85.2384919386672
85.1356698279706
85.0761105962542
85.1313362259156
85.1611196616126
85.2256513554474
85.224387444973
85.1886413264048
85.1771856861872
85.2379032065864
85.2948802961552
85.3817584263057
85.5235405726705
85.6441657002957
85.6160757203013
85.6004167814558
85.6856381233056
85.7765120510836
85.7801268311459
85.8080051277209
85.8658065087934
85.9994012405107
86.1057077679076
86.1452338834373
86.1433398797327
86.1902931395374
86.2445267040923
86.2695220311197
86.2482430591379
86.2598737338199
86.2732439518842
86.3055301007337
86.3470323085
86.373797602623
86.3625668773511
86.3625067692869
86.3946767637129
86.4558470906389
86.4680476361124
86.5221022661827
86.5940126163015
86.6435411876567
86.6479824335623
86.6285093474446
86.6322543850105
86.7048971196924
86.7463123424166
86.7962772987218
86.9124240921019
86.9933076921789
87.0301959442126
87.1475325518937
87.182380314293
87.1886458953055
87.2578160142794
87.3270695070519
87.3644652078939
87.382684943862
87.4179013396357
87.4751919122365
87.4760568230075
87.4570234484318
87.5123186679962
87.6061986896873
87.6185257675071
87.6463705748584
87.668598595398
87.720363770314
87.7626158533572
87.7805971034728
87.8252829977735
87.8675728197511
87.8508759498768
87.859837473424
87.8921739740255
87.9411495762437
87.9475437174438
87.9518436614023
88.0267856468002
88.1181784096486
88.1495355995586
88.1157054838898
88.1166731379226
88.1506725937562
88.1152329324561
88.1698439540175
88.266377657643
88.3002387554194
88.2428571240309
88.2162049912677
88.25246489449
88.337296611411
88.3713805274653
88.3650343646259
88.3652705372571
88.3837479028453
88.4204237675045
88.5226549871557
88.5339728581455
88.4635692797047
88.4786630581898
88.5706929117931
88.5782678763085
88.5596087600803
88.574872357362
88.5931101969807
88.5924791215743
88.6055140692261
88.6209945999014
88.669807100427
88.6950908570313
88.7005287250424
88.7093802016824
88.7257338407999
88.7547712167345
88.8287831832989
88.8398251160107
88.80395671423
88.8149513555075
88.8423056456696
88.8561282074528
88.898587035391
88.9681972000074
89.0225159618288
88.9789471471559
88.9575191379217
88.9774696338963
89.0158519637827
88.9990328635003
88.9634499190836
89.0070481446378
89.0487986671197
89.032882998895
89.0700093766016
89.0926337541126
89.1047019919766
89.141551069437
89.2037766779239
89.2412249648286
89.2498339946614
89.2361585784338
89.2578883757771
89.265822574648
89.2972258028494
89.3245744970897
89.3239831332103
89.320079051697
89.3265594768997
89.3286393154095
89.3414228601694
89.3358906363858
89.3688422752032
89.3651263392834
89.3491665520811
89.3523848238858
89.4046727468643
89.4303630824283
89.4439460963265
89.4790356839217
89.5490836761713
89.5737225591926
89.5678859717502
89.5594199901068
89.6263134884116
89.6600403190007
89.6542544867338
89.6556899924594
89.7260498717356
89.8308633563371
89.9177517040109
89.8778549133018
89.8391205931451
89.8604389025777
89.8697612221603
89.8939880351113
89.9213743867594
89.9281454923854
89.9639639175287
90.0488042888706
90.0463711170637
90.0437276210151
90.069069268665
90.1111877803089
90.1765881755903
90.2279009025083
90.3000929317
90.2469060637361
90.2329306043035
90.3291918824293
90.3365438784719
90.3673498725608
90.3573587945289
90.3059490662518
90.3943913000182
90.4853088464954
90.4558432779461
90.4192139621295
90.4315018007274
90.461552809338
90.4824345205117
90.472340263077
90.5483430886702
90.5964022315437
90.6076224307096
90.6691891806583
90.6543871832525
90.5633946818909
90.628495260135
90.7352019548738
90.8139823898407
90.8095015858897
90.77844308997
90.8149404386749
90.8500486680951
90.882037252687
90.8901040217234
90.8554225795601
90.8212991198653
90.8319512468169
90.8453204988672
90.7930533489898
90.734084506525
90.8087155825597
90.8451744820167
90.8174920887576
90.8852884677837
90.915082000301
90.9213001072482
90.9441671540353
90.986017410785
90.944613582812
90.9098576752306
90.9485829110709
91.0149221927613
91.1260363378701
91.1547291813001
91.0810391417302
91.0498024233626
91.0869872036728
91.0712078554147
91.0511779432986
91.0576072676636
91.0746071722375
91.1769496727674
91.1925117160956
91.1389363561434
91.0931537006957
91.1119561240911
91.1754666327579
91.2136493637842
91.1906364636286
91.2045370529145
91.2617378431484
91.1830685996888
91.1195726177021
91.2289027357641
91.2505920404382
91.2003349719258
91.2761125036874
91.3104910755272
91.3010825697383
91.2956695479593
91.237336461248
91.2499291138958
91.2920833107538
91.2897567991891
91.2768819730221
91.2606109692479
91.3249574855219
91.4255733313787
91.4622684593098
91.3662969308918
91.2831946831367
91.2946054963061
91.3462672962816
91.3943646786784
91.4503831795482
91.526384187395
91.5376417029884
91.4412685450608
91.392165508439
91.3731061316373
91.4105636867179
91.4627512824934
91.4365943902955
91.435510238986
91.46340365347
91.4786738357573
91.4702982279762
91.4764994105062
91.4875884451968
91.4759441753345
91.4696759983657
91.4532611113916
91.4660750554617
91.4906333805802
91.4882739926677
91.4455685222403
91.4289008837875
91.3822707618443
91.3133690743787
91.2906815824169
91.2876047359451
91.1911443701257
91.167016105761
91.174667774683
91.1484037784982
91.1307689927701
91.1351895174587
91.1455244666914
91.1246241525712
91.0814568655207
91.0434710026397
91.0646337427093
91.2321363063008
91.3565189008593
91.3525009112092
91.2143712024705
91.0749355218884
91.0275616719822
91.0486575294618
91.1338121297949
91.1626740041316
91.0822711818549
91.06512755979
91.0765487214431
91.1151030976248
91.1637366117272
91.1150011253878
91.059351348333
91.1120525553298
91.1447819288621
91.2194832401217
91.3327601308561
91.352978873725
91.370145521857
91.4111119210564
91.4294644460106
91.5025068176542
91.5704358946271
91.6089328469856
91.6105272371662
91.6595617660784
91.7504548778734
91.7537589626292
91.7257468345323
91.8259778631391
91.8410970327526
91.7510959798851
91.8045588424607
91.9712043219479
92.0376352236955
92.034130775429
92.1034646753835
92.2953637444558
92.3929546343351
92.3244977928583
92.3456673136411
92.544919946784
92.677926373707
92.6751267802357
92.5612245919609
92.5141946835985
92.6790413568135
92.7979066370363
92.8236278622703
93.0584295402233
93.1638668575438
93.0359644751685
93.0207553583937
93.2061656909469
93.2468445020049
93.2117773618141
93.2263381436264
93.4293118588263
93.3270014820109
93.3806192567589
93.5328627226225
93.6244880587454
93.598267740059
93.552485834532
93.7045852914337
93.6507213767113
93.4848795769069
93.7214409916574
93.8383880864427
93.8309278111482
93.8390538103825
93.872601682489
94.1038915663545
94.174066206101
94.174181437353
94.0834824499792
93.9727617148173
94.1309256944098
94.2139454611987
94.4190554903244
94.6227686749524
94.6769543020461
94.6908710786071
94.7199643332959
94.9937326843666
95.05843038449
94.8667843818435
95.0155488156322
95.2326555057046
95.205566868255
95.1450288629341
95.408571898295
95.7293741104553
95.4877203412945
95.3304566416907
95.5648816822109
95.8308348857646
96.0286108633214
96.2247505322384
96.7577494852637
96.8439800192064
96.7835893794117
96.5261616818116
95.9281248569242
95.3265020076964
95.2794452054094
95.3826994293761
95.2741293816878
95.1917718074348
95.2938707422923
95.1475825673669
94.7452194277806
94.5052784739204
94.2888377204869
94.151329792779
94.2794407910421
94.0219527504955
93.7445349227839
93.8264468938955
93.8255927696876
93.6797667928196
93.7015359084997
93.7219833684394
93.6960465762277
93.561383039733
93.4854886478789
93.5401643499262
93.5599171570059
93.5529439864159
93.695925072225
93.8046014165205
93.9406708585236
93.7831093484345
93.6403140517497
93.7818978110125
93.8667323615948
93.820124107969
93.7173215975629
93.5224158935996
93.6960255782052
93.8859299540844
93.7933174322581
93.8616157278615
94.060790615882
94.1011956030223
94.1506143165549
94.1800815825628
94.1641535958795
94.2595639130523
94.3888229102348
94.3675270655328
94.4768700463186
94.508159021938
94.5595003998568
94.6459866636928
94.7437734518484
94.7292233719033
94.8691354736217
95.0307975755665
95.1668262296521
95.2778856556764
95.6919235889755
96.1073425169571
96.1301051534223
96.0294345066413
96.4601388112401
96.8762524062023
96.6651338582788
96.3615703349854
96.6846672320232
96.7170636235611
96.5152997830487
96.6260856145385
96.7404770329083
96.5156229244321
96.5819804561001
96.7791150916198
96.7034113474198
96.3764446222135
96.5664304332519
96.9051638736069
96.4987051711795
95.9396711250512
95.8893491744301
95.9110348002878
95.9863931459007
95.7957384184691
95.5600334823505
95.6413167848492
95.8133847304246
95.9077678682219
96.0185781615516
95.8935838589497
95.8710217768364
96.0000539887867
96.0971910503499
96.0526068602846
96.3685594298267
96.3402498994297
96.1968168846442
96.3766649090762
96.4686513341527
96.3903800168073
96.4439912570614
96.1535187508819
96.1163437027909
95.9598067072723
95.7858432440844
95.655856702329
95.5861915561236
95.3268061651142
95.2335663603005
95.2977336929881
95.5804092622347
95.4693307298954
95.0658658209971
94.9696056250386
95.118377825113
94.9210080426232
94.7505995902759
94.7906685290909
94.8898112064902
94.7165537679089
94.7081977864907
94.7909911277531
94.7218444247796
94.5944760619798
94.5534887144952
94.4985178657199
94.4397916422222
94.3329785272863
94.377127270996
94.4434769325834
94.490787781302
94.4389852685009
94.4259616972736
94.4324694783813
94.3704981635027
94.4307396585256
94.467660588332
94.3399016921787
94.2819945334282
94.2763697396258
94.321990289256
94.3031042493467
94.3276448612644
94.2790580716535
94.2701844331163
94.2545307495753
94.2866528318064
94.3474183406418
94.3205263389311
94.3220048180845
94.4017295390233
94.3777669211719
94.3230721283935
94.2372511528971
94.2403363919502
94.2346576381184
94.2794859241802
94.2740797064951
94.2748048739526
94.3190961538724
94.3478317130797
94.2755963576403
94.2601388620771
94.3633854146862
94.4039558548911
94.3481778774201
94.3226172476966
94.3472063918434
94.3998294545754
94.3590268417778
94.3317177761261
94.4041317379011
94.4858867339381
94.4700247701902
94.4653167617513
94.4759284957521
94.3829397568472
94.3933558965354
94.4481054815811
94.4161524853377
94.4303349127151
94.4259636003742
94.4089123026555
94.4190369034734
94.462390664895
94.4873901847944
94.4805542394682
94.4343058902087
94.4082389203129
94.3712003828512
94.3428963194124
94.3289862277739
94.3491585554069
94.3235719539149
94.231626814652
94.1729841574844
94.1750702066407
94.0886634043952
93.9896399330439
93.947896365023
93.8445952280825
93.7677543039416
93.7432361545075
93.6350698409188
93.4969288249762
93.3491108153015
93.240945018612
93.0786862422614
93.0298979885522
92.9682112886856
92.8714901458969
92.7775980471313
92.6940447078246
92.5965458536994
92.5904969650021
92.5271970327015
92.4044152805333
92.2659496519552
92.1973837922253
92.1538972810622
92.0835110312048
91.9899777893406
91.9104403342675
91.8913401771512
91.8439259821063
91.5622136837928
91.4272243587444
91.352490900301
91.2514536615918
91.1228090952403
91.0197878644335
90.886209303606
90.7237406454295
90.4220706357613
90.0596977009744
89.8091171833114
89.6615013631839
89.4822930860302
89.2792176434045
89.0329780861055
88.8128090895757
88.5820456855935
88.3863469513504
88.0000691500058
87.7056875029256
87.4488075639788
87.079584566199
86.9313035572803
86.7770165187306
86.5033413925815
86.2244583582174
85.8148634738022
85.2799578315024
85.0671781802192
84.9040599966423
84.5819914988677
84.1939473572297
83.7695650430928
83.4521313822983
83.0881172748585
82.6956663131541
82.4178285513507
82.1353551279614
81.7243126921788
81.3922680134963
81.1531647960646
80.8648216885315
80.4789983818035
79.9695325637559
79.5032711851148
79.444141885384
79.1152500582455
78.6527818733233
78.3803851937079
78.1989807742735
77.8896433035607
77.5692959279531
77.1574075122641
76.6835491613657
76.466610257804
76.3095006711645
75.9224028468237
75.5229141316549
75.1744553665661
74.8045869672386
74.4545571215765
74.2547153435249
73.8873684741358
73.3779572502765
73.0913926246833
72.9340785169774
72.5642858309138
72.193978373779
71.8706250046758
71.5532510379434
71.196756526715
70.8790706224529
70.5712667743408
70.2657235270509
69.9394606116637
69.6926282558655
69.4596689674047
69.2339571086075
68.9768493692455
68.7457249043998
68.5043090427764
68.336202156408
68.1855525633384
68.0118772763343
67.7157847899405
67.4971537373216
67.5919352975175
67.5952369065081
67.3273743903322
67.2454321259708
67.4263052921123
67.5121194288439
67.5098972049103
67.219492650937
66.7013278098175
67.3295061375399
68.0408643843555
68.272393878655
68.5094935335065
68.7442371410931
69.116237830886
69.3940507078573
69.5946968150396
69.824627666972
69.9854924439126
70.881354583813
71.9727095787736
72.221010764291
72.3940665181267
73.0898245341199
73.5571758105547
73.8223170134856
74.1752321829956
74.5867217052898
74.787239781535
75.3022400561405
75.871891747053
76.1398038699848
76.5801553512316
76.9217780476242
77.1717240069948
77.2130369087118
77.0977644732916
77.9152645844815
78.8607138253231
79.1034895207842
79.1248425810695
79.2337378385126
79.6094637588417
80.1446485178517
80.3302208915086
80.2703961362302
80.4954840911186
80.8593299879503
81.1415706596637
81.2585493587691
81.3147192786307
81.4279903275697
81.4211658994351
81.3166906189823
81.113505712208
81.0343258546841
81.1798698019712
81.0124822376542
80.6533885907933
80.371022972664
80.3164392133404
80.066943520375
79.558792253008
79.1073121197359
79.2476119592854
79.2290958580475
78.9339194071334
78.5984216559347
78.3481720933466
78.2132372763302
78.0831810968896
77.9058818613878
77.6631149973053
77.3057310574628
76.9937189393529
76.9720046443078
76.7787804250726
76.4093003862048
76.1005982613117
75.8316606953895
75.4562544436225
75.0741164799613
74.6857616543465
74.1129203569788
73.7508914875351
73.5505506549151
73.1569990172927
72.7276263097535
72.3329229252124
71.950856985501
71.5750720218881
71.2349810929314
71.0047885741815
70.7500861690512
70.4276010396655
70.259749548182
70.0931624867716
70.0551449763422
70.0861352953562
69.9528346401682
69.7499912054481
69.7602085199357
69.8594398015326
69.8797200723233
69.8915916234178
69.9376527508679
70.0058075738616
70.0381208775486
70.2047555794128
70.4498135332171
70.5840352773444
70.7512026183718
70.9475783496839
71.0569299208039
71.2762646459053
71.642737870298
71.8986311789497
72.0732879383163
72.2870425696516
72.5257570991429
72.7384134520137
72.9698296798198
73.2197509277215
73.4659034213917
73.6849532417127
73.8374345467744
73.997174881599
74.2814900709639
74.5411203330191
74.7356196221072
74.8770608053997
75.0086962898317
75.1633959746714
75.3184932658214
75.4267547277373
75.5150964617081
75.5778206587829
75.6522382315641
75.7556957807208
75.8507215295143
75.9423387228896
76.0303868003543
76.0972801008517
76.1532890871907
76.2497333833177
76.3729892148622
76.4849886347509
76.5925650936457
76.6887758929042
76.7872614635991
76.9124141628936
77.0352156229018
77.152512963142
77.2435013353893
77.3205079219713
77.4195152342063
77.4992216403988
77.5747793961458
77.6336071625165
77.666148219335
77.6958201865689
77.7425697465562
77.7642208936794
77.7679046828404
77.7951142961449
77.8412534504832
77.8595940729718
77.8565838574162
77.8691057236399
77.9120475959822
77.961279131982
78.0032573347057
78.0383142307288
78.0518138196505
78.0682643451004
78.1118177139957
78.1457908329039
78.170479355493
78.1844794684011
78.1834820261263
78.2082617467112
78.2452327114142
78.2632982420215
78.278737371811
78.3065767154573
78.336975674878
78.3471071477732
78.3748239166438
78.4318484163535
78.4978445877279
78.5586350450025
78.6248976594644
78.6951022326638
78.7752371336498
78.8733879189496
78.9632588757291
79.0486268288151
79.1329311312682
79.2186876805968
79.3305898098448
79.4447142937565
79.5469951434556
79.6455799773859
79.7434942990168
79.8335224692991
79.9293507047585
80.0068111421578
80.0866648528438
80.1545698041725
80.2040825772567
80.2275671557762
80.2349219026205
80.2426105824912
80.2484827069304
80.2326431547956
80.1950920822921
80.1284265594886
80.0469427295504
79.9704833618549
79.933775278643
79.9062489648112
79.8355112290534
79.7482619801878
79.6724843257433
79.5711073245402
79.4767102411277
79.3823332239313
79.2913403899709
79.1869013931629
79.0704531365509
78.9599180003288
78.8733174598368
78.7612638499203
78.623772600115
78.4673945689421
78.3209422672511
78.1900114120549
78.0472266040751
77.8908351482991
77.7631892464527
77.6457642900671
77.5357966906188
77.3978357009626
77.2648605738189
77.164227348736
77.0971334071625
76.9998147533856
76.8903637770809
76.8087589340672
76.7121336323673
76.5787108667259
76.4543746355742
76.2999582936853
76.1191894715923
75.9509200773554
75.7666912064538
75.5533550418442
75.3748777785262
75.1954273750727
74.9740694181377
74.7726238875126
74.588123533682
74.4162824692514
74.2625361861325
74.1029719251386
73.9426721665191
73.7495052359546
73.5653354184975
73.4045154401637
73.2352726723883
73.0593541348413
72.8856214227894
72.7282438709248
72.5668100889039
72.388651046841
72.2075521256906
72.0124607335321
71.8537230825382
71.6859345677651
71.5078267470028
71.345554255205
71.229036072664
71.1101924775671
70.964122209903
70.8389483810391
70.7453414077098
70.6735645524353
70.6234885966454
70.6240136796555
70.6306263189563
70.639597020592
70.6818595218667
70.7317386727509
70.7989004254263
70.8816960152501
70.9837465645869
71.105930986185
71.258225676078
71.4235714246027
71.6135791118978
71.8139227669536
72.0396163523996
72.2712737041419
72.5010421283125
72.7357069504223
73.0082883796818
73.2625518350149
73.4803392844682
73.7032805332922
73.9553442471066
74.2118172281579
74.4456360281095
74.6396109462634
74.8167856955492
74.9890498844224
75.1554565458226
75.3256483223772
75.4993970833578
75.6154023389418
75.7431617293849
75.8818061662523
76.06719127433
76.2420711829755
76.4156503119042
76.6340859984001
76.8551272130143
77.0689347031103
77.2604976663558
77.4418960738434
77.6052934424145
77.7663686131218
77.9474654915064
78.121414343683
78.2922272318748
78.4626859623433
78.6011047725719
78.7645857600657
78.9445135672041
79.0963040173114
79.2413837974038
79.3571568357646
79.461517360345
79.5859498094903
79.7377189394218
79.8415903658529
79.9333628987139
80.0444473249394
80.131876823751
80.2032804979343
80.2810611198598
80.3498779950139
80.4337212062815
80.5247428270267
80.6184838158204
80.6836789707778
80.729664342983
80.7766933284006
80.8458067960119
80.9393232986279
80.9974605554245
81.0447393642863
81.1277787434667
81.1949929462315
81.2599002003624
81.3170602211132
81.3460172968081
81.3569717070484
81.3945929073152
81.4491050201577
81.4958995639668
81.5154167999876
81.5475451180171
81.5708816347055
81.5586023542376
81.5373836027664
81.5461540403182
81.5560723200013
81.5550992635596
81.5499065943142
81.5611729827351
81.5667042124931
81.5853540434372
81.5714257551117
81.5222380246494
81.5124671121545
81.5323560029727
81.5118088111867
81.4590092483179
81.4063902873799
81.3413663133504
81.2312883168476
81.1461473873116
81.0775170764388
80.9964176676885
80.8865671608903
80.7279233770957
80.5997753415354
80.4967769095409
80.3870959997517
80.3235123011287
80.2152049519862
80.1259355451612
80.0301024648933
79.916853041036
79.8314148867627
79.7243014149747
79.5993175714401
79.4474840387209
79.2792099676203
79.1214181562846
79.0174374992657
78.9356578058454
78.8111038993558
78.6836297464272
78.584272857839
78.5114683063951
78.4132876342129
78.3072546547691
78.216104384351
78.1373992760307
78.0577970066702
78.0207060919549
77.9278895473875
77.8679444821431
77.841011682755
77.7864235170885
77.7351124710779
77.7265441773216
77.6993166803614
77.6278412276977
77.588031224172
77.5455653647938
77.516568226777
77.4999144961684
77.4517592345779
77.3698989414445
77.3074296068947
77.2934355023214
77.2467700366191
77.2118981690308
77.1584326852136
77.1026820596504
77.053289447091
77.005888739836
76.9716279593838
76.9352770090668
76.8889384580826
76.870608518679
76.7868203746621
76.6614371651544
76.5849264061741
76.5217764278865
76.4618067228618
76.3649165913222
76.23472034708
76.1424740312622
76.0271773864649
75.8992917053001
75.7644248585629
75.6781392544327
75.5725509670408
75.4621231086625
75.3809305427001
75.2834493136556
75.1804486277993
75.046516514252
74.8592293894735
74.6754634550983
74.5713434344299
74.5049005846966
74.3883644462834
74.3022808192315
74.1753083501505
74.0430484289525
73.9360118906543
73.8905930592981
73.7904664788896
73.6645947851432
73.6037443320697
73.5627930944821
73.4286009305567
73.2777874891059
73.1513743413284
73.1367622740618
73.0217380498881
72.84415441777
72.439656858472
72.5301278145313
72.6574670547584
72.4084480177769
72.2835899818866
72.1773129576684
72.0862027145292
72.0151686391282
71.8983463381948
71.8006607489737
71.6809559527954
