1798
3999.43349933624
650.420452594757
1
128
4
92.3797129563484
92.4590330931958
92.5135798267171
92.517006052867
92.4661739553359
92.4941783931446
92.4857337849327
92.4562774955235
92.4797218255024
92.5109213754214
92.4097237791514
92.418714684982
92.464391844746
92.4900060485698
92.4967382830328
92.4913631395763
92.5083569432557
92.5227908014442
92.5326840446842
92.5448280931307
92.4334979159166
92.4940026550415
92.5905075179908
92.6384656941034
92.7141263374528
92.6115768216497
92.3775739956046
92.4041131490228
92.4406797303077
92.5038114145581
92.6587605685074
92.8080391093481
92.6851581413989
92.559433883681
92.4919725279504
92.5707740190449
92.625538314002
92.6329031898557
92.5902828608025
92.5226480902146
92.4285940510344
92.5619153957487
92.7440658912732
92.7675291350826
92.6364795414692
92.6485736910898
92.7482204783627
92.7894015120019
92.683641935269
92.5997221662967
92.5209259113747
92.5476909779418
92.6154653893923
92.7837920395363
92.9050106471556
92.9309173651608
92.8054853238309
92.7031292197941
92.6521689591829
92.5877674414011
92.6368113925159
92.7558806136544
92.7738287363976
92.8685332894207
92.9416298611429
92.8559079539462
92.7746316695592
92.7055826580403
92.59627691522
92.7241973387981
92.7065903194505
92.7394347448018
92.7876579590753
92.8488406354968
92.9106917064493
92.9107686449266
92.7406199651806
92.6319743425437
92.675107769142
92.8098996792156
92.9751602147786
93.056187993044
93.0321065187557
92.9880140200345
92.8313879242579
92.8222106546815
92.7707380917951
92.9398127195643
93.1119471557781
93.087491577983
92.8767797970173
92.927198507579
92.9569069233603
92.8931895368343
92.8647419701943
92.8834127067827
92.8870715146773
93.0617585871364
93.1827902737991
93.1453820454345
93.0673433111449
93.0762490126781
93.0261899944714
92.9764459418699
92.9522739338114
93.0537926143568
92.9966926981622
92.9458152762762
93.0989525296323
93.1766631761673
93.0796423251371
93.1167048644499
93.1108910073295
93.1326399888016
93.1592856185541
93.1476829817894
93.0579063302498
93.0917294258307
93.1450400949771
93.2535568661876
93.2226464558061
93.1638240890143
93.175807916164
93.1508474131877
93.0541625427334
93.1896939487744
93.1586364359322
93.1022918913794
93.1205546829382
93.1597500579978
93.2359377501327
93.2106806574002
93.0895942948654
93.2190112800545
93.2491009674329
93.2100461814503
93.2745281418287
93.4800275918941
93.6124495076485
93.6149887810527
93.4416547992515
93.290819614462
93.2700736544288
93.3459309341691
93.4635840282375
93.4737321009225
93.260962894842
93.2081673316144
93.3753177768128
93.5235985068746
93.4974713433821
93.5238903546983
93.513465324609
93.4348212025967
93.2586279000648
93.2476228605318
93.3918756667851
93.4998113431425
93.545811487775
93.6254639333137
93.5482886369432
93.5366843928492
93.5356225674051
93.5692844233547
93.5867836352724
93.4748213599986
93.3705708303828
93.4828671052188
93.5284707204861
93.5576362921414
93.4491737287321
93.4202289114033
93.3104209574832
93.3290439293688
93.4847832547857
93.5679921151104
93.4173290233542
93.291702931726
93.3019525799145
93.4376797660289
93.3412440098397
93.2070739241346
93.0842686557283
93.0339808654028
93.0137371278629
92.9735441611957
92.8157830074196
92.6434084295341
92.5719145292225
92.6554529118303
92.6007187787049
92.5785770408874
92.4985921382497
92.5354291062098
92.429448500284
92.334101144518
92.2343290043346
92.0941234690565
91.970240878127
91.9485441744217
91.8417134731865
91.7552236760023
91.5445010736186
91.4477424603825
91.4465718964841
91.2974494295922
91.1270792748485
91.1436424646351
91.0418463724422
91.1515267037986
91.1734484052688
90.9997895823591
90.7879217905241
90.7287579005764
90.5764937507266
90.4627836755519
90.2692462477547
90.2453899554456
90.2590396186338
90.1821783407302
90.0802185577295
90.132327641865
89.9969073503435
89.8353750393882
89.598649616144
89.4755699412966
89.4126301444533
89.3214227352965
89.134283933559
89.0290657258745
88.9162989598181
88.8225145976368
88.8162034509488
88.7950073717363
88.5443070009676
88.4680373560977
88.4594360617091
88.3839194722052
88.119558046333
88.0195769982759
87.9904792967116
87.8543872481835
87.7777759195133
87.8145110243634
87.6785291046818
87.5513156218766
87.4872566171781
87.4732267560102
87.3270069185905
87.2330678834282
87.1101831242216
86.9835697432664
86.8367139966164
86.8086137148434
86.7725798794603
86.7350247527276
86.6856781202841
86.5134276761501
86.2848889411732
86.2376057241558
86.0504942287147
85.9080016698276
85.8423444038795
85.9088289158084
85.7924546735747
85.6569604753868
85.581154928014
85.4885780279306
85.3176549345362
85.2132273362441
85.1125327596021
85.0727028349487
84.992044163534
84.8772606063758
84.7277792642023
84.7609781590361
84.6353442914995
84.4873448479518
84.354983247298
84.3057002694534
84.145473175663
84.0425238523104
84.0211739883256
83.9718270073612
83.8877847475112
83.768783993895
83.528941476292
83.4128966695422
83.3291133292228
83.3883425582022
83.3647130309056
83.3024851531083
83.1813298436428
83.0759998013139
82.9015309397276
82.8212567936561
82.7519156315152
82.7316340998141
82.6357916570013
82.4553698421321
82.2894585435617
82.2707927128186
82.2918874230169
82.303170043707
82.1251327569331
82.0986403567651
82.0325193736056
81.8931332372866
81.7301637458864
81.6342158641986
81.5581499741147
81.5605379907366
81.4803867201156
81.4658805090206
81.3694951603102
81.2535570723317
81.2159268251199
81.2298769511294
81.0556587097743
81.0080008126036
81.0398780073381
81.0167120394198
80.8517928955943
80.7645605412986
80.7041650128275
80.652770046815
80.4976721793396
80.4519345848958
80.403546511771
80.3834732017962
80.4258345406326
80.476975588395
80.3126838772477
80.1449468764789
80.0804925720106
80.081239016174
80.0512254887305
80.096285215512
80.0768090297369
80.0189538896497
79.8910235866408
79.8437935144379
79.8387161019919
79.7665975488912
79.6111093597628
79.6766351682509
79.6905360149632
79.6663851411554
79.6328922814061
79.6748521302872
79.6166971060059
79.6209302678243
79.6021491059307
79.5970107355062
79.5037348129028
79.5522125503784
79.529206669121
79.4535896390706
79.4262047963106
79.4348042467497
79.4372950880671
79.452478249137
79.3828358867745
79.3507723038588
79.3383525387433
79.397424027922
79.361160682892
79.3698126144216
79.3160025372769
79.295186999421
79.3052180797105
79.3555290557735
79.3148876996894
79.3215472009106
79.3437948410006
79.3066794155967
79.259982784304
79.2681082432349
79.3199534538548
79.3645998087439
79.2629960399137
79.212920226233
79.1575425275724
79.1840233348013
79.1561189678605
79.1728000130035
79.201236578588
79.2752777323529
79.2543254735438
79.2035030099435
79.1479232395103
79.1685694890479
79.1830912944421
79.2094489329302
79.1049236824583
79.0819478763706
79.1326034629614
79.2057246317906
79.1713251005108
79.1116014938567
79.0545848222539
79.044762374881
79.1236354303116
79.2507086877299
79.2160985919948
79.2546683776703
79.2394655942253
79.2036425355553
79.2114034649408
79.2891297672432
79.3179621591471
79.3363220854789
79.2874681576077
79.242172747395
79.2336154562288
79.3319495489654
79.3132628694333
79.2678792615168
79.2224304744805
79.3606904293977
79.3459510312551
79.3284996197867
79.3411295401302
79.4594265779496
79.4976458133544
79.5291849185019
79.5090771550812
79.5210882405955
79.5531681091491
79.607530340174
79.5914317802361
79.6305047131673
79.68660172749
79.7133542445523
79.6527184652508
79.7295360742127
79.7600364614694
79.7795034569475
79.8441823505137
79.9370982711315
79.9040610570304
79.9932086531059
80.0382486418399
80.0264777166505
80.0219902072283
80.118847241591
80.1908557646736
80.2702651267567
80.3422776090717
80.4165029741012
80.4121659825476
80.4981463281378
80.5582991239376
80.5995791680639
80.6468931870228
80.7386564141757
80.7249866967178
80.7006497002626
80.7309375763639
80.8125682380954
80.9297726727868
81.0851979942541
81.1182835633337
81.101359858249
81.0925977896771
81.1622182893786
81.184262195705
81.2079049607118
81.208110874092
81.3098313228238
81.4365306526196
81.6290684066278
81.7288134495528
81.7774764226564
81.8542182509541
81.8858092215826
81.8384638907143
81.8479652999918
81.8312643609847
81.8641451734685
81.8293778212982
81.8825076627717
81.9808455096379
82.0950139002806
82.0913918463057
82.1017279144136
82.106245985848
82.1890436331579
82.27923236248
82.4112930343138
82.4435814970578
82.4119408192029
82.4132375885251
82.5715181595605
82.6795999609235
82.667684750492
82.625677697832
82.6293072567359
82.5493178158733
82.6237983665827
82.799361439945
82.955803884183
82.9735645914914
82.9312099024685
82.850711594411
82.9100128656027
83.0045536691176
83.1238840004288
83.1854268374457
83.2468890406419
83.2034215675954
83.2516389949134
83.3682645026592
83.4921352992287
83.5319149681938
83.5202207720274
83.5104898741429
83.6214346938726
83.6690246059023
83.7108471382962
83.7567787425991
83.8008660034432
83.892866051585
83.9266719440595
83.8961309716506
83.9224782985454
84.0019921475137
84.159651664778
84.1903241271475
84.1477467017296
84.1951930745666
84.2924656306475
84.2701562408707
84.2356134118585
84.2223632787721
84.2478468904877
84.3138086231285
84.3166125527669
84.2887266103282
84.2855898235428
84.2945126914886
84.3377865302629
84.2753062795153
84.2354040016079
84.2265680430534
84.3048247824065
84.3268922530995
84.2935209876609
84.182043501439
84.1824103015909
84.2261312781849
84.1816875043784
84.0400032607037
83.9758248565979
83.9232139782949
84.0042107411772
84.0482727945897
84.0138093841569
83.9857336816764
84.0079263727587
83.9529162410507
83.9849950073037
84.0357070605632
84.0078637298362
83.9123200941058
83.923389222748
83.9048940724338
83.8367305274729
83.8072754509298
83.8249161621043
83.7797740533327
83.7010184369553
83.6465917926422
83.7556200165807
83.8538789406832
83.8873460057128
83.8698928121488
83.8960526819834
83.9030057622135
83.9380884678537
83.9578618139451
83.9829729788124
84.0665918936768
84.234289835667
84.2989803605757
84.337202806098
84.336472310305
84.3700600546906
84.4823208733421
84.5859908438298
84.5787652062414
84.6437681779849
84.7205465534645
84.7973222958109
84.8585943782924
84.8816071737058
84.8626112441674
84.9021035462246
84.9153368911235
84.9606989814
84.9805969508637
84.9866011037336
84.993111070007
85.0684093029705
85.1364674889281
85.1586663297337
85.2128045879981
85.270350494698
85.2496367292743
85.2886252136569
85.3504865332144
85.4599232681515
85.4780159134438
85.471459924916
85.5317313832128
85.6144977858715
85.7063255279909
85.8030755521749
85.8108506045498
85.7753247289614
85.786825693849
85.8429191684187
85.9381799768222
86.0952744160801
86.1456056458166
86.1920943095955
86.2486730347846
86.3116264841427
86.3339405990236
86.3684836709649
86.4131636689031
86.4780357287579
86.5102586057499
86.5145981632908
86.5510849769291
86.5573629968217
86.5492008507105
86.618318448764
86.7275486081272
86.8029631415729
86.7742786372163
86.76436494887
86.8421005266153
86.9411870184569
86.9436874253498
86.9470058656325
86.9903438506679
87.0379751499826
87.0447653820743
87.0848826051635
87.0927676046419
87.1340010491971
87.2068530520722
87.2456833377029
87.2414869644624
87.2231316887068
87.2856628988676
87.4327279020577
87.4454864122676
87.4139122090735
87.4499250972516
87.4843615584479
87.4312666167573
87.4398423238601
87.5280177253062
87.5977647454952
87.5456592489133
87.5701663711956
87.5957956516112
87.5817960577416
87.5933360243257
87.651764731669
87.7135369982066
87.7616055353109
87.7822613951896
87.7872166499148
87.785974767805
87.8193394256365
87.8132492023947
87.8297089814984
87.8299106804063
87.835933500301
87.8650749480742
87.942378497428
88.0143054194057
88.0495941225574
88.0099704512664
88.0431681231828
88.0881157781074
88.0659334625804
88.0783031597926
88.1642511563214
88.1980930279296
88.2123484295564
88.1775194856197
88.2018680700211
88.2340810141561
88.2248504815223
88.2184345703881
88.3061655363394
88.3349734518374
88.3464812879552
88.3763256241743
88.3907196797574
88.4053434091919
88.4353451331664
88.4338568234005
88.4698821600776
88.5057748148922
88.5133624958188
88.5477486137815
88.6189784944934
88.6445778652041
88.6295901443162
88.5674873188253
88.5616412618833
88.6795480494603
88.7481534324003
88.6869968812812
88.662955531188
88.6433519470319
88.669460577603
88.6998701958909
88.7386086325276
88.7648051016635
88.7417452017494
88.7689347334214
88.8678416315196
88.8844773743763
88.9057060183011
88.9511061108349
88.9724271745001
88.9630306862806
89.0047546483809
89.1005487346522
89.1381370343751
89.1244626643039
89.1013183581877
89.1448427871866
89.2493584310798
89.2558538547684
89.27890469483
89.3021846497157
89.3405190129141
89.3943490967522
89.4459158263789
89.4387654707955
89.4656282878726
89.5355996785566
89.6215046407969
89.6754072385059
89.6281606073164
89.6441371723901
89.686419018013
89.6849054897663
89.7568237581432
89.7492904531551
89.7271891257897
89.7761794988048
89.8607034747112
89.8819019769333
89.919952509388
89.904963885645
89.9148734262466
89.9277194823255
90.0092125678178
89.9905184161274
89.9414016963434
90.0216057039316
90.1491332368032
90.1454271908228
90.1449494190578
90.2026618889176
90.2282159369096
90.2089951470468
90.1849177200523
90.1802841328117
90.2696409703713
90.3326132562613
90.3522137423494
90.3750301777948
90.3145827195198
90.3077455622491
90.2936770116135
90.398559247534
90.5009434616248
90.4828327213034
90.4158411653389
90.4275296037621
90.4916369051978
90.4275726143427
90.3790708507587
90.4705071396356
90.5115151844827
90.4776118234669
90.5902379261767
90.7291472514053
90.7082296182544
90.5988344339996
90.6634302964895
90.7277148193819
90.7207418933194
90.6570590703782
90.5642713100858
90.6042338030232
90.6656103442175
90.6346474365064
90.6266280178114
90.6248680063382
90.6190122390429
90.6621972588492
90.7236288861167
90.7646037153179
90.7655832163437
90.7584987272537
90.8276001298612
90.8323005573616
90.7727096818774
90.7681918026743
90.8005391544694
90.8503450577181
90.7730731308585
90.7587848729299
90.8568562946311
90.8518848037769
90.814165655354
90.8922599774395
90.924809537275
90.8500178781367
90.8872796045578
90.9432604329687
90.8950117715259
90.9455642828035
90.9974049506105
90.9973299853891
91.0204312213196
91.016710496153
90.9718877041315
90.9992515169606
91.0674282055831
91.0648549168025
91.049231074213
91.0559008068502
91.1032503508796
91.1227832454814
91.0820867575312
91.0834907122969
91.1016424346241
91.1035167621325
91.1106859642993
91.1007286387436
91.1107382497215
91.1111414049924
91.0577814076091
91.0371428866444
91.1274775310348
91.137915702015
91.1325052464071
91.1246545039406
91.1123207791122
91.1461036308795
91.1670604798883
91.1946027998256
91.2256311476708
91.1753168714953
91.0835584202645
91.0868540822431
91.1583445371593
91.1048027368936
91.0594862394801
91.1023884032954
91.1179327321027
91.1174299881594
91.1162377041827
91.1066559367136
91.0800723890854
91.0201825661994
91.0570425265257
91.2186891887865
91.308550535949
91.2632963652484
91.2876521786722
91.3464420665402
91.2877837781715
91.2596208272802
91.2344285719742
91.0712228050165
90.9614171070532
91.0049553120303
91.078025496973
91.1437566181526
91.1567997271066
91.1540775588888
91.1503512667752
91.1289349178772
91.1236241895884
91.1448996585411
91.1658652747655
91.0325873839655
90.8922772582341
90.9641984695444
91.057523545432
91.0402101289777
91.0880659669161
91.2170510333398
91.2944976943325
91.2788970533366
91.2684662884748
91.2664824904585
91.306870306281
91.3425772202791
91.3523376740122
91.4068856267606
91.4337661257778
91.4388590312798
91.4699775351377
91.4941862373842
91.4777426295064
91.4250224752935
91.4341431340958
91.5769209087045
91.7469636606055
91.8547466573564
91.9075043082156
91.9773410723124
91.9752338996498
91.8645910162759
91.9954912918191
92.2997645393491
92.2730890645066
92.1116639949312
92.2248680987618
92.4771112780367
92.5531902371396
92.5230205571441
92.4843753576886
92.5902643957706
92.6163626923761
92.6118377041516
92.6375802570604
92.6647125712869
92.7388851829126
92.8725830905752
92.9538016911319
92.9579129014564
92.9396997436008
93.0759641851022
93.3159447020276
93.4717888092868
93.3683508314302
93.3071314165535
93.3928109990484
93.5560851406928
93.5452023566663
93.438937095847
93.3830196388918
93.4302868732051
93.610432761285
93.9154041415442
94.0228784492992
93.7875617064694
93.7118788941275
93.897633697679
94.0871781700497
94.2773147790181
94.3242683304419
94.1393474023745
94.1327745247416
94.3653638031643
94.6156083048525
94.6497650419535
94.6073006486591
94.7348324691706
94.8516487384067
94.8335535896547
94.4821879009655
94.4771850872525
94.6607508326848
95.0328615380692
95.1345950356345
94.9588375955744
94.9131805215766
95.2226193400611
95.4501293202296
95.6810640763328
96.0067134672536
96.061703840458
96.5030822732421
96.6218420217534
96.5834856850566
96.4503925892007
96.1199393666098
96.0482112860697
95.6468030970814
95.155284262063
95.1955434896216
95.3094681211401
94.8954475230722
94.4880246590075
94.2794432527302
94.1873355062192
94.0746579048033
93.9572110462342
93.8838601358145
93.8349685359975
93.6264509608702
93.6256790845693
93.6251762228959
93.499067685806
93.4265409832493
93.4078214026031
93.4421134981275
93.4737427283646
93.4281709606756
93.4684220599479
93.4038137270628
93.3831883049646
93.31985732455
93.2931269307402
93.4347561692865
93.5270823299562
93.4912007391701
93.5594060705432
93.6601506226067
93.7337355769291
93.5279542628451
93.4348427937183
93.4407243183979
93.4881456974853
93.6569563784782
93.6745919285516
93.5765677977805
93.8685931072624
94.0938354775804
94.0704073197081
94.0132283999334
94.0571508462742
94.1979412292923
94.2683481539863
94.4821941969301
94.6492053470977
94.7508764145404
94.7711560971315
94.8123062889918
94.8498295011961
95.0003777412067
95.1388005325816
95.1803083822715
95.5280486698242
95.8047013432689
95.512416191165
95.5056136207379
96.2009308502105
96.5093232769145
96.5476211254907
96.3504481881085
96.3836685687082
96.5637984005623
96.890934991318
96.6107706188819
96.5459929665205
96.7758920267537
96.7740340413385
96.9116786919606
96.7248940139429
96.0521999219935
96.1080432880256
96.2468481976055
96.4810368094327
96.661555792635
96.43693065603
95.9525722199044
95.7901293236914
95.6881883512935
95.5442323928163
95.4737763770475
95.6086149548797
95.8560314953377
96.0678455766667
95.9374636390361
95.7130944680622
95.9121331784276
96.1356939720557
95.9786094385541
96.1291760095378
96.4730998653953
96.6744178093624
96.6719410661731
96.7373545939392
96.7256181388889
96.7442849490017
96.5971855865873
96.103250912034
95.7223423249134
95.9096768011168
95.8203157385232
95.6119591725696
95.5819139245078
95.3580014435854
95.1233237476616
95.2901828198889
95.3224863099745
95.1225510619327
94.8979015186656
94.8063210370205
94.6242273697366
94.5797340712124
94.6381208683578
94.6398035970514
94.6585809428678
94.7014909936515
94.6106760921073
94.5838839224083
94.5232832414224
94.3868779890536
94.2782042485235
94.2559626450473
94.3314718111462
94.3592749347147
94.288650088157
94.3050133037445
94.2556818515558
94.244869263325
94.2816035704181
94.3493718540424
94.3015176815897
94.2883236453775
94.2291288727323
94.2419024082448
94.2647215855047
94.2526012056014
94.2053234512259
94.182829861434
94.1750477438856
94.2721251462044
94.2914631084541
94.2058639569472
94.1566663675058
94.2213516334629
94.1596466879001
94.1181748190353
94.1470360309559
94.1527548103172
94.1318751306158
94.1928445157262
94.2080043014404
94.1688457546893
94.1082353836478
94.121215353503
94.2183127073329
94.2441429077997
94.2170025541588
94.2749595381589
94.2869841978027
94.2517637492028
94.1882356204689
94.2094162381844
94.2611744179512
94.3645757245084
94.3986183856615
94.3205465433358
94.2418216886992
94.2375816063307
94.2620788077921
94.3199851197126
94.3236690226738
94.3291620734507
94.3493006032447
94.3551537849214
94.309501441666
94.2955650219287
94.3394920002087
94.4031184423978
94.3560661917125
94.3153620530114
94.3241529631363
94.3162511011334
94.2958016884341
94.2564582533605
94.2175130816949
94.2495080875431
94.2530423260651
94.2121466864206
94.0945378030671
94.0541572116014
94.1065627956904
94.0515860195698
93.8699529065999
93.737996229887
93.6768769276938
93.620024291199
93.510340355281
93.3802558822974
93.2434276956814
93.0912215217636
93.0277728886499
92.9758538751681
92.8512532996427
92.7403340379361
92.5725695468225
92.4188701069472
92.3596493500074
92.3088635044279
92.1910694899307
92.1024766823582
91.9206550650771
91.8518763257419
91.858111546292
91.8078993533455
91.7654511786892
91.7187700970806
91.5751183210653
91.4331849851207
91.3562767489615
91.1671455440061
91.0049267153168
91.0265363344129
90.8781456423378
90.6849716821097
90.4706951890813
90.2720495222584
90.030522551079
89.7756880415623
89.4352310236277
89.2300461474809
89.1260151012467
88.9588471065499
88.6327908622843
88.2953231911514
87.9549990272662
87.7050110653649
87.4831420942937
87.1221572303185
86.6892538458175
86.5662242373081
86.2716410462677
86.0263609941841
85.7109147508211
85.2975602719883
84.8904788674269
84.505144134332
83.9818983359403
83.7048547019351
83.595171270174
83.200840188508
82.7227881128792
82.210298050791
81.8387961612861
81.5151152852116
81.0344004347339
80.7097810444166
80.4443333996619
79.9622495274699
79.4436465462835
79.1437737004219
78.7743969634557
78.3367540515114
77.7446056244884
77.0751487226658
77.2296313292267
77.2195847399336
76.5256260633643
76.1282652737357
75.9915689703024
75.6090599119199
75.1046957300626
74.614217358309
74.0281360226294
73.8033307334613
73.9139210247633
73.5625141256139
72.9901336177581
72.5530668533586
72.2374830273634
71.8474095051125
71.6094415414873
71.3429721089546
70.7932314833018
70.3990652147361
70.3602854104329
70.0267589651953
69.5272970227073
69.0986913662569
68.7555260626172
68.4324648853508
68.0517054076958
67.7481227690795
67.4237076435415
67.0918043052182
66.7304970941979
66.4238723226724
66.1291665903799
65.8628039248341
65.568607412079
65.3189346768889
65.0539467284143
64.8478574745597
64.5934176849622
64.3512075226164
63.8708873577495
63.820215400086
64.1952816256556
63.8893070685654
63.4292435220533
63.6453246351503
63.6726411330813
63.5417073982372
63.3981492875275
62.7397191608839
62.3443646093523
64.1318938450416
64.5542973167595
64.6030126625547
64.5869513621266
64.647281000144
65.0612370315032
65.1585721060875
65.3038944419669
65.5649212563493
65.9438877617124
67.7216607091392
68.7963603044023
68.5486912401294
68.7986882669503
69.7913949631751
70.1534577211367
70.3163661740585
70.7758593172705
71.2365139860281
71.3730778441122
72.4280202174931
73.0860252435182
73.4002680206229
73.9921815747701
74.2188635739663
74.3224810260957
74.1767688079853
74.1293237843586
75.9104152223845
76.9007737336149
76.831653066456
76.6985305171741
76.8225906016097
77.3988290339574
78.0408066507695
78.0280919705951
77.9045502550022
78.3597253849124
78.9244961472805
79.2221630088614
79.2196105090863
79.2354375418992
79.3377697558393
79.269313487776
79.1735349298173
79.0383179147193
79.1978449126434
79.3520544013872
79.0042171914965
78.4797437401549
78.1935590284153
78.1369986072047
77.7393037810129
77.085885204623
76.88481091773
77.325030878309
77.0757451571659
76.6340169841571
76.1796400549672
75.9494399492229
75.8775932380977
75.6738397440993
75.3937119799824
75.1118948092291
74.6567758401761
74.509238117816
74.6199247713281
74.2761749420133
73.8250000674777
73.5328109192973
73.1912448437029
72.6999883318242
72.3091112869944
71.8052845981459
71.2308391415183
71.0750591166765
70.7930376602864
70.2706138815345
69.7094618462755
69.239277431064
68.7881271729585
68.3241398836246
68.0187763401671
67.7978769212707
67.3832159480495
67.0945082401948
66.9758757388383
66.7998543335482
66.8513300775433
66.7824505183888
66.5006542695421
66.3049219406539
66.4585305452872
66.5523147594122
66.5002365703075
66.4877801158176
66.561073240899
66.6126785429569
66.6620382022668
67.0046179208769
67.2720141174755
67.362745139827
67.5733301245232
67.7303096476466
67.8010205272322
68.190184338684
68.6520302128196
68.8836352182224
69.0470180918396
69.2970339621408
69.5956867470726
69.8577367904259
70.1258410796137
70.4033371681498
70.6636462276942
70.8944507969068
71.0350149129887
71.2663972479116
71.6826485880664
72.0059478506436
72.1979995050308
72.3358186538079
72.4810131172311
72.6412873137843
72.7861666770786
72.9033080368134
73.0264410658613
73.1094340520266
73.1846306118635
73.3128147448547
73.4277682333622
73.5135516029547
73.6153947424314
73.692883040641
73.7611504280788
73.8554713230083
73.9871847499486
74.1141851783485
74.2111193672769
74.3612928347291
74.5076927653257
74.6341369328628
74.7550454257203
74.8669790196589
74.9889243494328
75.1215673059087
75.2294145603356
75.3022710532039
75.3787338487553
75.4565874676196
75.5129338705799
75.538298840172
75.5844568484395
75.6043790404041
75.6400172090105
75.6684457964211
75.6688013440458
75.6792411003876
75.7228043935975
75.7421660824107
75.7728626407247
75.8186202572659
75.8521014123547
75.8850855520482
75.9204007703134
75.9805008778195
76.0341503421319
76.0509244036804
76.0537125527944
76.0714320637189
76.0925336702998
76.1100339085958
76.1476624988557
76.1798989329482
76.182917551801
76.1900332002331
76.2188576378827
76.2511467978754
76.3054817374279
76.364808215751
76.4203617970988
76.4892169085044
76.5723958191762
76.6433745629383
76.7149608255554
76.8054922387205
76.9400226340204
77.0686915750752
77.1669593156833
77.2673781715643
77.3680404905451
77.4809105763403
77.6224863376609
77.744764338342
77.8360986370697
77.9360198322942
78.0348700429386
78.145882956139
78.2596557713599
78.3371959675888
78.3772653800658
78.4145910667371
78.4417407448625
78.4468675082064
78.4140053246779
78.3561676419397
78.3160571018434
78.2650879970859
78.2046874863289
78.1416117234058
78.0579327455009
77.9884434438085
77.9273190633295
77.8479018951858
77.7616894557487
77.656066477391
77.5469237813124
77.4253605796782
77.3063760665398
77.1975202877532
77.0770055085128
76.9258039492968
76.7912129260671
76.6840220246811
76.5406268944647
76.3796405199438
76.2333369005183
76.0961328477334
75.9185958881207
75.7426801017563
75.5965931281342
75.4301800370887
75.2724198174858
75.1309115790977
74.9932221262909
74.8901364706314
74.788321839358
74.6903840711105
74.5870294273424
74.4777977647158
74.3648210887052
74.2383358577718
74.115512420463
73.9451806046112
73.7392350701497
73.5282272529907
73.3127243872257
73.0933310383518
72.8847151170414
72.6629775494735
72.4169552906198
72.2087241238521
72.0457139650936
71.8474073554781
71.6369104496014
71.444038090562
71.2423776888726
71.0330859156911
70.8462440804877
70.6768516529149
70.4770856665779
70.282401302805
70.09927871876
69.9025361343281
69.7371606745122
69.5651227856731
69.3903421705218
69.1883616185757
68.9724483367707
68.7996109908875
68.6373341185215
68.4543103436111
68.2977027307037
68.1749490265571
68.0347129600149
67.9035156306234
67.8024818945659
67.7149129570621
67.6503867830685
67.6176200440916
67.630136717321
67.6556503731296
67.7153807708305
67.789308349381
67.8784987877812
67.9821539779278
68.0865378741822
68.225183865856
68.4151742902656
68.6179533002848
68.840796767766
69.0855877622473
69.3391160135141
69.6219616727357
69.9294757260134
70.236299930791
70.5519501393459
70.8313970779279
71.1256550769258
71.425829785573
71.6784154326767
71.920016057596
72.2022396075806
72.4476858541429
72.656593386851
72.8709629508909
73.0664914272385
73.235853693323
73.4107827733528
73.5668467973099
73.7348679352738
73.9012549489014
74.070175741571
74.2573120622434
74.464642650359
74.739279347606
75.0121665625828
75.2474816467891
75.4528687455896
75.6500951939103
75.858005240482
76.0556693914751
76.2456858003867
76.4473321161908
76.6595190042896
76.8454100264445
77.0328339437577
77.2111733159661
77.3717865498147
77.5348060307951
77.7079895168173
77.8681574552825
77.9892698832071
78.1276995412659
78.2838045573237
78.388166802548
78.47721919108
78.5990459035523
78.7419123713244
78.8068137387421
78.8487666903897
78.9584751618486
79.0608329048039
79.1113462328191
79.1745015438968
79.2264584658756
79.2935881424548
79.3997769029489
79.4818969067379
79.5619010723143
79.6566505818623
79.730602799514
79.7746937192671
79.8005174024191
79.8403261371253
79.8980806644511
79.929818428053
79.9703795597216
79.9974054016424
80.001372008544
80.0135940597406
80.0528263731637
80.0826315744809
80.0714249059168
80.0565790791393
80.0355588307552
80.0698606214993
80.1029154238309
80.0444724110559
79.9763110148095
79.9778424434075
80.0246517753693
80.0228419382661
79.9901269054664
79.9825095882429
79.9366563412762
79.8791897043713
79.8207140106445
79.7710608642644
79.7583784807642
79.6732352111324
79.5359557706541
79.4045198351577
79.2664878636051
79.1182536099381
78.9238839635795
78.7704168805165
78.6919354873952
78.6076363121136
78.4565402978169
78.348942630417
78.2527380434546
78.1003705722753
77.9743672424092
77.8719926866126
77.69992350396
77.5326677131529
77.3632405109706
77.1976964042692
77.0642418292821
76.9573249481885
76.7716337377378
76.5994332874134
76.4811272107123
76.3267161925788
76.2097037818135
76.1333036294571
76.0233898421927
75.9111263171682
75.7806001022374
75.6878099417034
75.6188981474779
75.5181388354054
75.4195312637784
75.3445272533259
75.2133472247532
75.1074576394026
75.074646191432
75.0343955423118
74.98000683936
74.9344904517367
74.8608472940247
74.8516586131144
74.7881400418121
74.6802273176163
74.607721027395
74.5607430400046
74.4780261464555
74.3930628110188
74.3186577067892
74.2438292552516
74.1891153046921
74.1755444496397
74.1248647749169
74.0165021389622
73.9241967717586
73.8903955171175
73.8105430778526
73.6969347883175
73.5719807591328
73.4587131147414
73.3472169538161
73.2480387480924
73.1411812092677
73.0690895069673
72.93819236323
72.8251910349671
72.6429458965654
72.4843925749214
72.3819041157969
72.2370690213731
72.1001696511109
72.0436499154274
71.9369851119133
71.7760068402724
71.6100038631453
71.4542778805549
71.3010669246861
71.1546608813092
70.9690398398637
70.7705708386195
70.6127415806961
70.5628194560681
70.4866900085331
70.4157055521216
70.3016235552972
70.1678220516341
69.9956802059972
69.9040877081747
69.8456184067316
69.7249502440286
69.5546645346037
69.4732300093333
69.3384437449199
69.2144874338742
69.1027391820125
68.8608971226898
68.5750942365261
68.784129400503
68.6826027194901
68.4599984935952
68.3462373944494
68.2636058636811
68.1480266267185
68.0010516496655
67.859878982088
67.7621636176082
67.5921905603559
