1798
3999.43349933624
650.420452594757
1
128
4
97.1126770889939
97.1442878782558
97.155529462873
97.1549295367079
97.1657952967597
97.1303763586246
97.1381026442482
97.0796150452598
97.022535760733
97.1204436651802
97.2307872017469
97.1261506544849
97.0621890679511
97.1583854640771
97.2027992408367
97.1268180397478
97.0318357561957
97.0373278375117
97.0868477224571
97.1081371796405
97.136648224306
97.1584494316912
97.1032384598931
97.0709737264935
97.1537609756093
97.1353134575498
97.1334625618676
97.1593269389501
97.197600419475
97.112693984551
97.0869624535085
97.1113701756549
97.0892553698264
97.0897426449002
97.1824784117966
97.0569562791345
97.0354008946402
97.1859785636585
97.1649178211909
97.11392791321
97.0759804562021
97.0696908482348
96.9947344434943
97.0362703751623
97.3193436225531
97.340485386137
97.2457097150626
97.1888364593271
97.1088509162725
96.9972761222909
97.0017567499666
97.0068728632015
97.0770524940163
97.2664109267842
97.2414035657508
97.1226878232309
97.2165075547231
97.1268797632432
97.0135525409051
97.1215376511964
97.1648848577805
96.9972852279905
97.005559115134
97.0340299211915
96.9159141839989
97.1679876091305
97.3027613515457
97.0709067139932
96.8769065852455
96.9173893274152
97.1170420684265
97.1639089102306
97.1934875477724
97.1514611567502
97.0359839986513
96.9272415520788
96.8240420010142
96.765189527549
96.8585877399426
97.1155691466372
97.2355601614736
97.1877271111067
97.1236683016136
97.2032704491038
97.4098223507769
97.2532808154595
97.0534154526271
97.1448709829098
97.0307632652453
97.097042602701
97.2723112076631
97.2973707271366
96.8828180296889
96.7851457261677
97.2413227953956
97.0281304854935
96.6427557415582
96.7800390099759
96.9903856561702
97.2206620427488
96.7502458546581
96.6489978615954
97.3534844794155
97.4055182894388
97.0224972392875
96.7701146739809
97.1599547852751
97.5043679992775
97.53086734944
97.6916119056492
97.4813202090054
97.1026498499782
96.9856594442574
96.9907938025554
96.927304572966
97.1565412815248
97.4282553643291
97.2136223369243
96.8558933599301
96.8635973792573
97.416924699844
97.5257501681817
97.0899346713172
96.9127235978456
97.12624996822
97.4044184540165
97.4928741130378
97.2910377438719
97.1937004543867
97.2616638505112
97.2921804231136
97.1214695828471
96.9555842769036
97.0133656376023
97.286175883761
97.1033601687188
96.8834358207608
97.1823594738757
97.1670047085037
97.0229830401895
97.128438960339
97.1670664492683
97.0798881521107
97.1788491377964
97.3531071883492
97.2383687989583
97.0980886347487
97.196193401697
97.281513787712
97.2406873383793
97.2521462011262
97.3314409303295
97.2319047919977
97.1422299164105
97.1702892384687
97.3316845766884
97.5162057524278
97.3966734783537
97.164270136087
97.1481264459113
97.1915845786036
97.2414906181622
97.243582531338
97.2873328935712
97.2150707246879
97.1030448373768
97.194762531454
97.3401213837352
97.3004228575264
97.2648325377403
97.3139208979525
97.2598419124108
97.1210288718394
96.8931111979606
96.9513320430387
97.1217317186321
97.1405188461387
97.1771755388464
97.236980967953
97.209415787754
97.2815105929373
97.3072500624091
97.1063826908259
97.0867706414851
97.1939809251782
97.0343248161232
96.8485165134088
96.8417421079493
96.9791180845045
97.09568068407
97.1396643339443
97.088595074971
97.0275207911758
96.9290881500574
96.8324047800218
96.8273636068475
96.8330762908311
96.857489239674
96.850094766055
96.7561074312349
96.7664700334618
96.8159370783275
96.7519422286255
96.6793692561812
96.6595770553785
96.6933833218195
96.6204699557772
96.5148771987407
96.4709975423752
96.5342058215071
96.6305164174506
96.6014963695174
96.4558236186051
96.3329700486234
96.3798230830115
96.3927539068722
96.3011311844065
96.2647181558561
96.2163251325001
96.1197047729414
96.0555301283767
96.1002335709019
96.0346652530174
95.9443748886422
95.9945771023871
96.0547883937027
96.0407613887246
95.9285454213156
95.7911166005291
95.7836805406048
95.8036750855983
95.6906577356668
95.765900256891
95.8262466569142
95.7852670716606
95.675138767504
95.5112283103687
95.3720468995254
95.3385226610335
95.4022805750704
95.4165942898179
95.3399780701882
95.3427858927014
95.2708732865896
95.1515972400846
95.20339765906
95.244987837717
95.1550465697984
95.1914605921247
95.2738037154216
95.2416867104558
95.0915975502303
94.9671103732487
94.8796462020096
94.9206989766597
94.8918593216523
94.8083620295588
94.816111037698
94.8153691569345
94.7790593722933
94.6899403094543
94.631518678764
94.6932738864667
94.7371663409988
94.7352117742011
94.6719834799507
94.5325384848151
94.5236044016175
94.4593669546632
94.2826025703221
94.3350315808947
94.465302818693
94.4437091165653
94.3664290650813
94.3424596333227
94.3466397028326
94.2578365851973
94.0988181765189
94.1448736921399
94.16906270762
94.1092623407536
94.0677681968101
94.0331623049137
93.954795841422
93.858773054874
93.9040974722846
93.9680377875778
93.8664675906214
93.8675329321905
93.9063110016088
93.7753550097272
93.6401748892191
93.6587596406696
93.6344651536479
93.6711823148159
93.7423332248976
93.5749701515689
93.4276389628588
93.4218726839337
93.421557092611
93.3908182727312
93.2293179320238
93.1658796699372
93.1948557014235
93.1732738637852
93.1852065373754
93.1287847633871
92.9962149099119
93.0128043560978
93.0513589829299
93.076491476522
93.0195794910779
92.9645840885041
92.9222763099976
92.7884864955226
92.7416030201364
92.7173274766151
92.6856362337147
92.6528937772178
92.5633045694005
92.5319610403207
92.4876311036274
92.5221650517037
92.5093415316301
92.4055693233126
92.3484390542671
92.3420618610085
92.2739081449492
92.2330952569483
92.1279141332715
91.9855111086472
91.9617923384443
92.0344459249062
92.0472961576294
92.0265843362741
91.9765277281612
91.9885395890608
91.9701935077407
91.8632028071284
91.7285953190946
91.7117645468186
91.6302310817556
91.5882683896278
91.6773349741075
91.6699052278776
91.7037546031296
91.7568819964833
91.6576442641225
91.5852932471635
91.593181756812
91.5309430669888
91.4372890751968
91.3975750067927
91.3677599727379
91.3001591958031
91.2226412996207
91.2232146667569
91.2343650014874
91.2821439054253
91.3062449589551
91.261649103815
91.2444058443077
91.1636774273283
91.1319559223953
91.1383174782986
91.0781145520543
91.0796336805642
91.0515264143238
91.0622491139194
91.1141168023283
91.0660943771395
90.9610667737472
90.9991007351285
91.0502234183023
91.0804781111648
91.1552337326668
91.1555233406968
91.1936481750243
91.3047213929981
91.2768584416689
91.2110915338682
91.2219274546515
91.2025206929495
91.1979297194667
91.2585070459417
91.2449935124531
91.2835510532748
91.3884228326285
91.4599347966245
91.5201554133757
91.5767648840277
91.6283482012984
91.5727856038327
91.5623663552757
91.6490662475681
91.7094537401251
91.7877955867996
91.6772500870668
91.5750465741695
91.6670645011752
91.815745233229
91.8590290584274
91.8693875593621
91.8242787808183
91.908525707155
92.0415686848738
92.062345201132
92.0896482826775
92.1718028537632
92.1262867740069
92.0869730064753
92.1796375287353
92.3111220425312
92.3466993560347
92.3316363016026
92.2988842638402
92.2746651226344
92.2710229883046
92.2857761489131
92.4039097174895
92.4870020939734
92.47663523496
92.4872765381414
92.5262758118679
92.5656342482218
92.6596474799508
92.7396661322677
92.7911364647202
92.7800039891256
92.7665714105434
92.7562403839261
92.7657435176062
92.816315057151
92.8533881298589
92.8452311105664
92.7874191540867
92.8233259895295
93.020332329667
93.1252278986731
93.030369674188
92.9835584518191
93.0571465462289
93.1153612053399
93.1729904225169
93.202407661731
93.2252732964927
93.2561429779325
93.1927985144718
93.2003556438975
93.3099096550761
93.3125876306304
93.3712763966434
93.5199555580842
93.5100499919175
93.5117277391993
93.6107814282646
93.5216357277104
93.4542265632736
93.5374904735902
93.5906314908477
93.646221831293
93.6783096746244
93.6547308853378
93.6531582243904
93.7423938679977
93.8164740625583
93.838967065264
93.8841222263946
93.9775887402075
94.0488622840066
94.0470831042103
94.0659391824179
94.0109217081428
93.9876503105623
94.0106903907374
94.061564955985
94.1036214613446
94.0765355818936
94.1075120912069
94.1642424719708
94.1969296030202
94.1952819305404
94.1577088820548
94.1851976242838
94.2464312201684
94.2328159661936
94.2019190953081
94.2915398482197
94.32898820111
94.3088577842891
94.4177005729248
94.4986985964069
94.4510707823416
94.4797736080234
94.5551924222349
94.5685076645496
94.501381033129
94.4921922059169
94.5666605884476
94.6095020524513
94.6035024178327
94.6047322223228
94.6722273598904
94.7087861102285
94.6792172432602
94.6840606737565
94.6741820377228
94.6268272236632
94.6300466666473
94.7652362593883
94.8132501774199
94.7775324991325
94.8778166147243
94.9611668718573
94.9408184555493
94.9590046714325
94.9672199292845
94.9381985170356
94.9167419575261
94.9689252034335
95.0354521753535
95.000295272642
94.9829785100642
95.0248621000155
95.0904149391817
95.1346802744611
95.1077294551999
95.0859270421959
95.0844181703953
95.1325696549003
95.2279108264274
95.2570132748776
95.2032880825794
95.1738133884176
95.1937289381025
95.2500381127508
95.2761307318461
95.2595255104377
95.2803366414807
95.2565092153012
95.2657705180627
95.3117344339694
95.2741647046233
95.2501783931126
95.2533912825145
95.2502062762878
95.284499020301
95.3357220138942
95.3311030061961
95.3151732847205
95.3308316744563
95.3942951047001
95.3913567819115
95.3633930427982
95.3754711223196
95.3876753775489
95.4211994069613
95.3989244219437
95.3700458169848
95.4489345954822
95.5142284742896
95.4819868454444
95.4127855511221
95.4293651830813
95.4376998649179
95.510576492768
95.5873134963723
95.5729240800211
95.5638159115847
95.5634384684987
95.5260769589838
95.5463678389844
95.5612792482096
95.5390569229175
95.5759194114397
95.6142915706042
95.5947549148197
95.5966455984079
95.6284832363143
95.6805298237314
95.6892239783515
95.7156542151535
95.7873103437775
95.779017180648
95.7329517550905
95.7602135461963
95.7552755906053
95.7754462224102
95.8172914578137
95.8166897861403
95.8117945628577
95.7803244260734
95.7583239898335
95.7929383703275
95.8498469694963
95.8635924665729
95.827806506219
95.8421750336021
95.8342083088006
95.7987714247404
95.8117183174756
95.851781848657
95.8568524749132
95.8723279460065
95.8968147908728
95.894850739447
95.9091315784575
95.9282440699052
95.9067411407224
95.9513139092671
95.9634204524034
95.9434118779238
95.9539918150692
95.9538182284073
95.9724126087668
96.0311849558695
95.9840129980694
95.9634080298177
96.0012703335282
96.033920714233
96.0555071994528
96.0656789980955
96.1149054560074
96.1843203740917
96.1764019831672
96.1621057105623
96.155909435631
96.1077765750379
96.0454728152111
96.0171205278976
96.0700602484703
96.1778960074918
96.1853967803188
96.1423938819759
96.1398117525479
96.1528028841175
96.1103444139616
96.1094795387494
96.156467006725
96.1495334188943
96.1244303854724
96.1111047917433
96.1011880721171
96.085572872286
96.1153367234998
96.1552657090774
96.0863031457383
96.0080743256903
96.0392903591529
96.1078662311665
96.1433311891773
96.0725253325233
96.0221894928629
96.0392431990027
96.0029899274805
95.9792192596503
96.0446291993255
96.0793663034329
96.0226649219054
95.992310362896
96.0116204635284
96.0303874731924
96.0438388207651
96.0622081003677
96.0389542647348
96.0632956066782
96.0913270465709
96.0569532307267
96.0866034624141
96.0934866740284
96.0739421832272
96.076694668637
96.0700689636413
96.0504841863174
96.0030278634934
96.0042785589693
96.002900601719
95.9772355315461
95.9586285030189
95.9561892744893
95.9362718022025
95.9225278859484
95.922563735983
96.019742875432
96.1194193086335
96.1503067240245
96.1681734099629
96.2090566699848
96.2164520988697
96.2214504315469
96.2442049096806
96.2943558881253
96.348688150753
96.3557762541597
96.3428737309391
96.3936989677584
96.4424047615513
96.471991046447
96.4492007431161
96.4335729862647
96.4317236765167
96.4432004932772
96.4851703507634
96.4988610053169
96.4532075466813
96.4620501901581
96.4748711150307
96.4908692474156
96.5175864811123
96.5697451838688
96.5673514480142
96.5195318072949
96.5540822107509
96.6317092378027
96.6437551753354
96.6422849186753
96.6355619231078
96.6275870954588
96.5893245588368
96.578652364193
96.5727794193837
96.5396253091093
96.6072247290907
96.7020858670855
96.6746350284033
96.651762836293
96.6558389021603
96.6548815781713
96.6729603541041
96.6883034669784
96.7159029945444
96.7463626619624
96.7451191046622
96.7365818342258
96.7439198509419
96.79650433047
96.8518230664025
96.8638597158132
96.8164278097745
96.7965025297425
96.8649119830453
96.9605736431823
96.9461265972105
96.911862773333
96.9297702336341
96.9040904544416
96.8413963808571
96.8869955365988
96.9750127798654
97.0578498332866
97.0131061850468
96.9763314473318
97.0068595425128
97.0276999295521
97.0525621145132
97.0753349969067
97.0550540255228
97.1024362251611
97.138781162515
97.1607501508931
97.1740250128296
97.1587996850096
97.1199267051993
97.0213774399852
97.0037389910028
97.1066952999957
97.1514871017863
97.1657195882694
97.2088876257711
97.2977542556077
97.2919782209256
97.2157413722435
97.1707560713835
97.1644928547771
97.1958565360736
97.2634878677137
97.2185418626744
97.1449608499622
97.1586900655498
97.2264717334573
97.2766171016593
97.2750773266411
97.2819151655014
97.2319581547952
97.221087303444
97.294610425571
97.2400206077732
97.2169337397147
97.2593612660544
97.3079284398488
97.3719503352159
97.364192281107
97.3497009038449
97.3746295160469
97.3439794546064
97.3047625507
97.2942351461138
97.3555252465823
97.4269646985383
97.3872517670101
97.3062347215848
97.2719551273443
97.296591618771
97.3791560857819
97.3326492273921
97.1990400822061
97.1539225316288
97.2113518805501
97.2392849097504
97.207898175573
97.1974964169583
97.1586173122708
97.1095228922523
97.0846358493535
97.0721193419383
97.1255087744254
97.1422446602065
97.0874422341027
97.0829661895458
97.1072674574005
97.1483369385274
97.1880696883859
97.1689065256224
97.1135034513735
97.0932781055952
97.176864380576
97.1917504771912
97.1534310531912
97.1300794639793
97.0803228167181
97.080369564383
97.0960506475746
97.0286571304725
97.0153743315075
97.0907708684956
97.168066964558
97.1309891921419
97.1072875016819
97.0770368540652
96.987874844991
96.922693556252
96.9124771175857
96.9121216765336
96.8756138647192
96.7503608581523
96.7617950650305
96.8173831077253
96.7739862416717
96.7204255276087
96.7243447127354
96.7533330535649
96.7929203674413
96.7968171064225
96.7486040831124
96.604688220238
96.457393821785
96.3877299673634
96.3095194625088
96.1141541446726
95.8259297216409
95.574237955936
95.4761456928253
95.4503848906044
95.5464527788132
95.730977976884
95.8670530951743
96.0308970406041
96.2848973247428
96.4732274031684
96.5981343060158
96.7244695998487
96.8163106589753
96.8644531891026
97.0010058568907
97.1579653055278
97.1949689580144
97.1955591951296
97.2662047927983
97.2761357461241
97.26984792488
97.2603873403004
97.2041199431019
97.2554903820895
97.2959091715982
97.213476834336
97.1250683163954
96.994411486098
97.0121366012422
97.1623395967483
97.2139330067451
97.2260799488062
97.2305859484341
97.1821121991299
97.1652376664541
97.2032118870092
97.2137655550676
97.2167941864686
97.2552119845309
97.1952129907417
97.0684183154716
97.0641933506413
97.1704841663087
97.2320457133154
97.2583864448764
97.2573323911827
97.2899158247745
97.2625402087728
97.1984862945817
97.1974260680923
97.2372584500295
97.2930851488621
97.3392348425962
97.3692282179036
97.3913216617752
97.4316741807562
97.4683330846038
97.463542545441
97.4833347614998
97.5280725869542
97.560866776664
97.5929666088164
97.5565225519909
97.576996975879
97.7309819676997
97.8430643791362
97.9096157370103
97.9068598518724
97.8858681459096
97.9276538359492
97.9183153235574
97.7981428853411
97.8409227356244
98.0478678177319
98.1910377898836
98.2053227005099
98.2321845649728
98.2856713391299
98.2750172818182
98.2792864822915
98.3967204701526
98.3940150868213
98.3740694939925
98.4535151601255
98.5606019335091
98.5894872640817
98.5161885776732
98.4077758768173
98.5010218202916
98.7246333350757
98.5754937524871
98.4380564425903
98.7953594423487
99.0929465018391
99.201466522073
99.2568958285992
99.1728712863417
98.9088958907777
98.8625015131395
99.0677203485262
99.2052628185899
99.1892743695632
99.1679400642514
99.0526352377149
99.007661486726
99.263100181171
99.3783362136992
99.2971353865317
99.4140729784703
99.4357588487158
99.5962744116304
99.7970539881211
99.9305116668787
99.8508809809013
99.6363349214231
99.6504192568332
99.8571102762033
100.141990376934
100.128231242985
99.9798539123873
99.8953586242346
99.804165037628
99.9508791552224
100.100833244001
100.36841790397
100.641867626177
100.753509491328
100.739957611726
100.86981546982
100.630339585473
100.215810375558
99.8701744608978
99.558272746456
99.6222743817837
99.6691126428637
99.2624887099808
98.9886608772021
99.0219525481066
99.0332838016919
98.8589744031378
98.7595953344952
98.7161354245342
98.6409749886925
98.608847201717
98.5935865421835
98.4699317629521
98.2854135562295
98.1190517880732
98.1484111808721
98.1391204190336
98.0397062886641
98.1098010831556
98.2203757797673
98.2389091643338
98.1980368165482
98.1725714599683
98.1766394556749
98.0641658695727
98.0600360486132
98.2279306206152
98.2799109102937
98.1410085651492
98.0528523608169
98.0330613147155
98.0102646063943
98.073578151845
98.1067246959545
97.9916679607806
97.995555536766
98.0738352847264
98.2019624074412
98.2715330530341
98.2447737384511
98.2859071491592
98.4351312326137
98.5776997262813
98.4027401605717
98.1525398934682
98.1739741347178
98.2013944417707
98.3251371321501
98.4693791754477
98.7269123552198
98.8390797283121
98.7829995191239
98.7677004457414
98.812480754967
99.0674832510397
99.4048610219358
99.4872804487336
99.3087915364319
99.2324626108263
99.4063668644583
99.4156633129483
99.3216521346409
99.3216047287593
99.5646183230229
99.8786021407385
99.8726104272533
99.9958710395062
100.145435916312
99.8843375564548
99.6441527704011
99.6638529022513
99.9462700545046
100.134660760294
100.180842437519
99.8204618037538
99.4816849020626
99.7197797602096
100.063024188386
99.9531581489204
99.6197405908443
99.4971438403651
99.4410671892317
99.2160588486084
99.4036309954274
99.6508940630278
99.5724551067506
99.4788751794685
99.5683471544244
99.6842285840086
99.7711440567212
99.6008513826223
99.4572024392275
99.5766494148283
99.7207899159038
99.7943321613007
99.9436923040034
99.9813537211495
99.6417807956453
99.3225592724359
99.2117033749244
99.1118146885324
99.1417902908482
99.1146357065615
99.0870822518177
98.9743994160675
98.9108619577053
98.9141056496398
98.8539267292454
98.7828029040772
98.8467683161109
98.7862825799597
98.6524177561893
98.6431965983241
98.6230362937038
98.6340909583225
98.6408242294818
98.6344516190325
98.7034817434994
98.5594235288339
98.4338871574384
98.4116113423872
98.3155642060315
98.2813727821293
98.319898690804
98.2923029679878
98.3690840698043
98.4638039672242
98.410323312925
98.3575136028028
98.3194803511762
98.2043136962334
98.1793989311377
98.2535301021908
98.2629692348591
98.2134356162865
98.1938678476243
98.2069950655474
98.2001711474567
98.1455199565288
98.1931463565593
98.2381861259864
98.2383380882868
98.2216428995917
98.2044240853853
98.1355496702562
98.143108082777
98.1538191717876
98.0805186646249
98.0083157449619
97.9737254387627
98.0302140316343
98.1481377614106
98.1760606233904
98.1360258933805
98.080576672869
98.0535016163368
98.0081315442662
98.0183719043611
98.1113154023893
98.120771000189
98.0284906739602
98.0295956860333
98.0545031886476
98.0151700508941
97.9326627047918
97.9500519682348
98.0122220428563
98.0186363563917
98.0316135884748
98.029993664283
97.9438307083754
97.8919916950934
97.9246356691476
97.9671313057906
97.9446984381561
97.9015580018786
97.9519678449506
97.9872309659238
97.9547137215087
97.9313516176656
97.9448745744208
97.9616517907713
97.9256156968672
97.9030627412099
97.9091470605792
97.8913370226383
97.8430116480812
97.8345735537964
97.8538193684358
97.8242577578022
97.7982200992465
97.8145149315521
97.7934056733677
97.7857484739372
97.8201967903108
97.8031049990465
97.7641832793592
97.7672351911009
97.822901421577
97.8264672119176
97.7726666884159
97.6835543365878
97.6339769930962
97.5883641804951
97.6121236978068
97.5474603798997
97.0522616932657
95.7870552013471
94.4878613881782
94.752014647719
95.8502708253696
96.5214836731357
96.8981499248773
97.1153424991352
97.1866608718686
97.2736756482946
97.3614653270867
97.4005048911523
97.4036410713425
97.3883512599894
97.3439038949924
97.2901688888481
97.2657329846452
97.1930734547876
97.249338506584
97.3628611902254
97.2928619650886
97.2404839279191
97.1981553921178
97.1401398436679
97.0644892436555
96.9705335859961
96.8450622660251
96.8580740469033
96.8744693995488
96.8709222035396
96.8161539041959
96.7283775218577
96.6282994322193
96.5290376101604
96.4375372375391
96.2747250392425
96.14641075877
96.2344293647512
96.1301715315177
96.093337690782
96.0017599008787
95.7871645344493
95.5806843805313
95.4156556733198
95.219946228509
95.19263431887
95.188657178663
95.046062656851
94.8861990671646
94.6664139798257
94.5810601563224
94.4901935262185
94.3907470735563
94.3481492450966
94.2851735170846
94.1736683881393
94.0685536023612
94.0233220868471
93.932039325446
93.7497332759429
93.5719347665742
93.504151843208
93.663590288009
93.6005843716116
93.3982169199239
93.3622408979828
93.3928426314699
93.3357877278228
93.1892304936849
93.0352500602671
92.9581086253998
93.0834549536387
93.2070050788884
93.1601383611486
93.0661196660007
93.0434476402662
93.076878652591
93.074613776086
93.1251537124008
93.1231070302898
93.1152343327856
93.1984439327347
93.3142591887854
93.3175095480712
93.2892901896933
93.2833488920892
93.3110435016544
93.3280536630047
93.3714667473666
93.4243828742274
93.452377750755
93.4596421727652
93.4655725134543
93.5075619465177
93.5615604146455
93.6019981651703
93.6432558694362
93.6833127112701
93.6742560370987
93.6576199442068
93.6455488956914
93.6383552190231
93.6028454027828
93.6860630332496
93.7305766289355
93.6566457641959
93.6354662527986
93.7081332295794
93.6814317302797
93.6132661562634
93.5087004669232
93.3001479526304
93.3991055431913
93.6188109962103
93.5928232024508
93.5448196656408
93.4615197467045
93.4229735087754
93.3857002308255
93.2750076224174
93.1985293268159
93.0872705115361
93.1707420505212
93.3092560155366
93.2597029717009
93.0866428945506
93.0701236405162
93.0629722450957
92.9510038601323
92.8061379580219
92.7353792122997
92.6580473992575
92.5924429877686
92.6326506413988
92.5387269105726
92.4950358431111
92.4046470657694
92.2102048529026
92.0254647297372
91.8350113272522
91.8687808916962
91.9961434751676
91.9249087832162
91.7750768790258
91.6258535705461
91.535239366339
91.5619774960575
91.5209632476896
91.3272224502047
91.2447174864557
91.2742259325015
91.2421890471361
91.1638657433829
91.0628966926237
90.9561233904446
90.7850217642014
90.5799728283804
90.4363265947125
90.3031267640862
90.3241331506102
90.2853520344289
90.1559598202641
90.0614527892986
90.06486318408
89.9603491433031
89.7151296099817
89.4715681803081
89.3759322846361
89.1270323410724
88.5077805289288
87.6943058274398
86.6951985242535
85.6919920273843
84.7492675873304
83.8309691814662
82.916066049969
82.071825668134
81.0583544022643
79.9641722881074
79.0748952459244
78.7044744492326
78.8120677046688
78.6430655853182
78.0075204439735
77.1915169591919
76.4270975051151
75.6351738524597
74.847889384519
74.2106922277419
73.5019166265126
72.7543957318784
71.9789390162513
71.2164182733412
70.4361044071176
69.619004677437
68.7836932302984
67.9775526777915
67.0731184094162
66.1674542030121
65.2447194502692
64.2661605008382
63.2715083507077
62.2306804218206
61.0685943787998
59.8120013048786
58.5575946180724
57.3000534665517
56.0775953027435
54.9816300227767
54.0243412287584
53.372436419957
53.2003598294306
53.449455184262
53.8482832206771
54.4032873553972
54.9890303751261
55.5416643287989
56.1591622783859
56.8690808451143
57.5072494618259
58.0761635058694
58.6085201438818
59.1683523529272
59.7144623548602
60.2823926874605
60.8501681943872
61.422825028125
61.9595521057351
62.4578590408208
63.0019637937137
63.6596377349909
64.2383673842047
64.730747532793
65.2155396427295
65.7317009033572
66.2276417383184
66.7462973642697
67.2790086832613
67.8125729698113
68.3154726985751
68.7957021042477
69.27765921945
69.7851701057662
70.2504329823796
70.6883483482599
71.1141385135127
71.5275066530976
71.9312862589587
72.3352849636746
72.7129077154252
73.0937856833741
73.4587174936553
73.8214977510297
74.1607130381644
74.5098731088627
74.8439630579232
75.1686304126866
75.4967224637623
75.8333870660946
76.1409400479023
76.4320985060981
76.711978150588
76.9911202044181
77.2742295777293
77.5573093488191
77.8076391654455
78.0680901698913
78.3007274099806
78.5204873241245
78.7592725371038
79.0086428028904
79.2266253619757
79.445959550326
79.6536634254054
79.8493715654368
80.0367946407221
80.1960079668645
80.33041730537
80.4986066997238
80.6882832556206
80.8673533301826
81.0274378521973
81.2027929687154
81.3605561481468
81.4980032583554
81.6312869493388
81.74483934964
81.8465361371157
81.965118928277
82.0562615338314
82.1133655160568
82.1384433040289
82.1558989537049
82.137187125919
82.0770989972509
81.9725140666786
81.783504510841
81.518387480724
81.2170719900151
80.7701613301252
80.2095499444456
79.5789176840015
78.8692008686816
78.0669396126285
77.2599240234351
76.5411616267612
75.9383550461491
75.5087475389269
75.3614645531799
75.4994154634995
75.8948750904457
76.511209137738
77.2264980685221
77.8427316693105
78.3055632993355
78.582994879502
78.6799268005468
78.6014996802386
78.365245703654
78.0118741560695
77.5434950917848
76.9646833415761
76.2903304911006
75.533134085492
74.7585138492893
74.0227181809694
73.328960115832
72.6571458016698
72.0328993312123
71.4349380383402
70.8409433261315
70.223674269276
69.6164109550437
68.9715581791682
68.2891191389605
67.6072655743934
66.9712587552726
66.430207604952
66.1026526727454
66.0268324232209
66.1591400909804
66.2141425012048
65.9175445218169
65.2529968824691
64.5311989093859
64.1221416098364
64.2499343441661
64.7607998875389
65.3954297781307
65.9569843377006
66.3636750560988
66.6002021890264
66.6840369753136
66.5970560893704
66.3941133904717
66.0754953555215
65.6883372227186
65.2821354093763
64.9113444562684
64.6277944415005
64.5342185776568
64.6087824716501
64.8921172485338
65.3959983749582
66.0839775940325
66.9089319981597
67.8268415106032
68.7730370771581
69.7229389405259
70.6855184169431
71.6517018464692
72.5848735654431
73.4998657042079
74.3808335289993
75.2379815546779
76.0135647894005
76.7235641009781
77.4351542867205
78.1159594161587
78.7110476972445
79.2851771218753
79.8298201297155
80.3651857731004
80.8363287314436
81.1404313691429
81.4677038717009
81.9932638450245
82.4749762122298
82.8875586952246
83.2718998889823
83.6179905020945
83.9536888662669
84.2712785515877
84.5486010551785
84.8018115793065
85.0338831857567
85.2803639490494
85.5287661666282
85.7285815656739
85.8931334896484
86.0665126169101
86.2426206237394
86.4182647621808
86.5788957117152
86.7289549178271
86.8857459620199
87.0384259872467
87.1436020994476
87.1992305936577
87.2084636937479
87.1952888377594
87.2537263615665
87.3930000116377
87.550339544452
87.7504285706614
87.911400439915
88.0089994984783
88.1204948235144
88.2711274186907
88.3650131539509
88.3560308436862
88.2707942472553
88.3182618044401
88.5432738416423
88.7817042315299
88.9613982668289
89.1162685505142
89.2427942880861
89.3945707417217
89.5234309497579
89.585216837368
89.6733479167427
89.7763111304001
89.8410584797728
89.91360183124
89.9864728086405
90.0680401400463
90.1331477081021
90.1795462014297
90.2256945143047
90.2740524041011
90.3198807731031
90.3786693374395
90.4418847276464
90.5136982738839
90.5594320703501
90.6135302765317
90.6682253983008
90.7048034572393
90.7249352670168
90.7506861467021
90.7955052015143
90.8457161540268
90.879476181819
90.8859928020536
90.8939703301073
90.9241538874664
90.9679196368202
91.0327870461942
91.0554850105538
91.0593389000249
91.108280749135
91.1297864861473
91.1215372769494
91.1359561047569
91.1346560094465
91.15776268916
91.1943853578294
91.1648054322459
91.1484774910968
91.2018770390514
91.1867046288697
91.1447211304291
91.1067752251171
91.0233158963388
90.9180015910564
90.8316184149568
90.6919142666463
90.5453367992246
90.4044537907579
90.2292217972868
90.0351075287799
89.8748787600926
89.7677745354677
89.6977479787999
89.6429638683104
89.6186681776804
89.5962503354485
89.6211224065582
89.6742344025847
89.7508194029294
89.8532579416081
89.9698872190422
90.0336375922645
90.1082440901529
90.1934710749176
90.2532757652372
90.2563943281555
90.1293436011743
89.9268170857793
89.6806282486337
89.2829684261698
88.3743802966221
85.6038670674544
79.4548592644845
72.0599232594239
69.5314216883352
73.5264636263911
79.3600615948731
83.5383910448086
85.9207375281397
87.1519814103909
87.6748559287527
87.8699010975613
88.2285764158426
88.6052423215674
88.7728677713809
88.8296046683303
88.8459960635923
88.7985334920626
88.7642768434088
88.7676681684667
88.7607254144387
88.6903217592771
88.5855237421899
88.4857937490706
88.4306779129474
88.3295718366419
88.2156727339723
88.1231528462778
87.9961148235842
87.8236562673334
87.687588733891
87.5099984432578
87.2932712848892
87.0886333624899
86.8897460066168
86.5932525018539
86.2462244147435
85.9825868322507
85.7642030602768
85.5438722923374
85.3852921301374
85.2347868182799
85.15524967162
85.1407506989252
85.1556837330903
85.2262824096038
85.3540125216652
85.4654692024902
85.6095446563578
85.7295506978927
85.7840205482005
85.813240416883
85.9050964469089
86.0354887769428
86.1525817955531
86.2322407253163
86.2757569555528
86.310256435171
86.3847973988962
86.4350392954961
86.4263513720758
86.390734906262
86.3405917245827
86.3579613095465
86.4246495222047
86.4033206476182
86.393893099039
86.4318731655852
86.4310712145104
86.3707878715834
86.3405038946253
86.3389446028281
86.3419403324787
86.3179700420228
86.3717757795738
86.4275960047764
86.4396796712057
86.4084368589087
86.4234951283917
86.4577979384888
86.4542444892227
86.4682208093115
86.4728941811663
86.4317826970875
86.4626214637273
86.3882522741259
86.2277716681908
86.0084050345819
85.9100913615107
85.4550559896879
84.3631886810979
82.491730902191
80.0351181667182
78.1251041965347
78.1008665876997
79.7492821306323
81.5084263268678
82.5018937008674
