1798
3999.43349933624
650.420452594757
1
128
4
94.1943381956747
94.1871376080137
94.177009959701
94.2073214905613
94.2089875438425
94.1935054679616
94.1229213558527
94.1597555203622
94.1472698383902
94.1443330638261
94.1516851021637
94.146413393219
94.1558913106965
94.2500155374048
94.225052124815
94.1363781570567
94.0516491747037
94.1581954688935
94.1890029700778
94.1504326579506
94.1729751053313
94.1826793906125
94.1582445862903
94.2060379282886
94.2166596864511
94.2660734487194
94.1663854781897
94.1667474540145
94.2148303567305
94.2251547926903
94.1411421413467
94.0582642750885
94.076752305392
94.2530455568891
94.2860072799859
94.2089991387466
94.2299354793587
94.3271852437584
94.3174663982155
94.3667963731636
94.3268321709146
94.2471032287424
94.2227402307086
94.2994930984394
94.1937571815929
94.1198133230968
94.2230297187041
94.3200678518482
94.3020551241506
94.3627249382173
94.465261222751
94.4115344900777
94.2938023292022
94.2863724698277
94.1971694233314
94.2287627884499
94.3170317411023
94.3398596775729
94.3283790032365
94.3809853573525
94.4556149311312
94.3985809900391
94.2855960102184
94.3453648259886
94.2909682939539
94.3115068354446
94.4786743712648
94.5722304267999
94.4882547592491
94.3355391843642
94.1793861404987
94.2034496236513
94.262566783543
94.3766578743458
94.4344258742569
94.5151546167112
94.583197971661
94.575325450062
94.3138494868727
94.0729117756905
94.0701784145844
94.1941765529423
94.2901431121226
94.3488605602716
94.4487555653421
94.5993010234874
94.6509643122701
94.4700401352484
94.2169419350171
94.2011303891774
94.3310431431589
94.4542017176689
94.5254299119722
94.6236106493603
94.6990983440178
94.530412360569
94.3072660440706
94.4081341513195
94.4449075576406
94.4467360621288
94.5502389981119
94.5539661666016
94.5182346322427
94.4784009991685
94.4178322432045
94.5290192537852
94.6127068523317
94.52951417923
94.565790200701
94.6487098063593
94.5181863660736
94.3931110823214
94.4830572762785
94.6208166498469
94.6282010294005
94.6632679406762
94.6869795969905
94.6829928958105
94.5348912085857
94.3484693295655
94.4124680767734
94.5508595781876
94.6054661391361
94.6252203513859
94.5699075996388
94.6476109691741
94.6370498367442
94.5958271259088
94.6799492494573
94.6575501068518
94.5919580908159
94.7099383522289
94.826376267522
94.837359532591
94.7194002195603
94.6563012744701
94.6566435887726
94.5050409228159
94.4962978256388
94.6162072636063
94.571428816912
94.5834568511754
94.5699005162437
94.5570357934157
94.66128881862
94.7627548540643
94.7143902763826
94.6348701992979
94.6086966154133
94.6376267678458
94.6855965091602
94.8748611035577
94.9564134991538
94.9773155035987
94.8452711012616
94.6674386480254
94.5818849157575
94.6755125332694
94.8249538333505
94.9270597870713
94.8401135178292
94.7383399663468
94.6760170532472
94.8011339836822
94.9098111737705
94.9321978474855
94.9007851619346
94.6885460585443
94.5603781251235
94.7213373631153
94.8198821718486
94.9806258082628
95.1178179317018
95.094659726912
94.792655147542
94.6039297457359
94.6870619365349
94.7426624994956
94.6059849058094
94.6333210922182
94.7787175373104
94.7390781535438
94.7703933257579
94.8225853479223
94.67661143914
94.708975554218
94.7313865439952
94.6672870803282
94.4661904255186
94.2678523366276
94.190732216064
94.2839754940464
94.3802041273222
94.409788080315
94.4228758105215
94.398706593807
94.4122540196354
94.5153833155209
94.3720086317313
93.9656104806089
93.8734089940193
93.9851411388009
93.9499703940661
94.0231465602412
94.0034415749393
93.8094311763293
93.776359412604
93.7527926681114
93.5987729858983
93.5945698269847
93.5431679050783
93.4829889324705
93.4137883041539
93.4181986292301
93.4305108924729
93.3826508458229
93.2978323429355
93.2301857757956
93.1682376302034
93.1913026963222
93.1295182055081
93.1093642593097
93.0286103984611
92.9417680565557
92.9134562426383
92.8565216965292
92.7349425805809
92.8603359954211
92.9230504062576
92.7983246318994
92.7238786482015
92.7004980998476
92.5453780603685
92.3823438037928
92.2635586482213
92.3117633279948
92.3385691656293
92.2748679429523
92.2074977265197
92.2111393203833
92.1238105689725
92.088165308635
92.0823112879827
91.9488390087561
91.7808138799681
91.8185265832264
91.8202341600301
91.7739184161554
91.7659668708775
91.8054121678636
91.7483911864586
91.5796593923234
91.4374074931954
91.4641250948516
91.3522996086608
91.2201912084664
91.1260232151521
91.1741027067399
91.0511180809832
90.9068628006935
90.9502541381957
91.0692149018329
91.0786334827838
90.974396877077
90.9278867872764
90.8848082211176
90.8636958211407
90.8090267865026
90.6364521572192
90.529808726362
90.4174204103582
90.4415458622225
90.5350714858898
90.4824443791683
90.3112584837486
90.2067941871736
90.0524741119947
90.0533938171533
90.0882199512817
90.0327033432513
89.9080147891755
89.8997559800764
89.8763110413554
89.7742877514089
89.7278883422576
89.7355235681547
89.6480269452708
89.6071001266776
89.5268007640438
89.4597281121419
89.3997661015547
89.3655772182756
89.3571519904772
89.3517061746772
89.2441045902182
89.1971959881657
89.1206791349575
89.1365017432389
89.2334323577819
89.1544600641009
88.9248920730826
88.880647108959
88.8763228555622
88.8788519853342
88.7951974202036
88.6970798523416
88.6369685729305
88.6990934778632
88.6216786323785
88.5904194671738
88.5097561450677
88.4061587771552
88.3282341678581
88.3167756309082
88.300882907229
88.3233465940121
88.3265540321095
88.2221427241552
88.21119282077
88.294686168475
88.1982060505426
87.9838156115148
87.9050606339148
87.9702481839009
87.9615949320972
87.9570299916875
87.8248926431385
87.8280124115807
87.8484906297062
87.7265121197345
87.7070011175862
87.7801518315172
87.7926574214328
87.7644401698593
87.6770075330287
87.6988221121452
87.6855559884052
87.6493381365834
87.5692884822859
87.4535646540013
87.3679771129519
87.3960909177773
87.4450766435488
87.5311121303315
87.4171597903839
87.3078890895569
87.2551810545518
87.287505601044
87.3028570109326
87.3223987043334
87.2670958135921
87.2230301466346
87.2113183830359
87.2820118930171
87.2865027384908
87.1622668399059
87.1063507884254
87.1859726928664
87.1006978847195
87.0965972843636
87.0684728244
87.0992385832214
87.1618710016795
87.1663325489514
87.1073907131399
87.1286249960101
87.1482028988204
87.1667854680528
87.1142749199349
87.0934028617384
87.1123153566603
87.1841842864086
87.2317524149593
87.155776452227
87.0609114558287
87.0355792804554
87.0251801493476
87.1329935276942
87.1879257412187
87.1243139698696
87.000313247016
87.0351811669995
87.0638977828161
87.030971743759
86.9662968156476
87.0057877685323
87.0664474600316
87.0804133432246
86.9679216760329
86.9781760043554
87.0770989072872
87.0639208962274
86.9915655004894
87.031514024644
87.0303162939943
87.0012587724724
86.9842981184055
87.0080519481814
87.0246478188197
87.0290228916865
87.0009692374164
87.0321168315155
87.1018719462825
87.0812908745932
87.0077018084229
86.9871867834504
86.9215624964585
86.9404297042788
86.9719838577316
87.0376372480369
87.0414184956917
87.0372760744521
86.9867319623976
86.9661426779094
86.996950250218
87.0356255022292
87.0269003122557
87.0099337819838
87.0182500484503
87.0846235104421
87.0942242703167
87.1490672409606
87.1892822497809
87.1457634819787
87.0921583405038
87.2080619810726
87.3001641763611
87.319734678518
87.2537373335219
87.1138501875783
87.0695185945188
87.1657744655406
87.2485920503598
87.2527930766534
87.1949559742703
87.2360888917402
87.2967204413497
87.3269498240158
87.3448231882224
87.427902173527
87.4018634674035
87.3526437142587
87.3753143142929
87.5233296638525
87.5814931103202
87.5987982086073
87.6770106985617
87.6999052087416
87.6205617760719
87.6395079907632
87.7018519987311
87.7529292453467
87.8236050842224
87.9100793161849
87.9081897865037
87.9143623626297
87.9070886855567
87.9075341256473
87.8544320138125
87.8863105070638
87.9743503033565
88.0670583039889
88.0699906948081
88.1052371835563
88.1241888338709
88.1206748820186
88.1637008086506
88.2220094097832
88.2319000801512
88.2764167101742
88.2658154653773
88.2985682659662
88.4230135020069
88.5421903534373
88.4873265256317
88.438257285269
88.4804255229933
88.5415281343676
88.5013601707779
88.5471063254114
88.5466809731023
88.5360847162262
88.5583916837144
88.5868576508699
88.565316986857
88.6466859437189
88.7153947074969
88.808551083497
88.8059339063259
88.81598089619
88.8841022883538
88.8995415565527
88.8711783497226
88.9108869214266
88.9248497031084
88.9208325750489
88.8526430890409
88.8644532452104
88.9603136031613
89.0493764362672
89.0957087066772
89.1538187774526
89.1176052656778
89.1186581419266
89.1635074544004
89.1665062417209
89.1599866857884
89.2577086334718
89.2549437177015
89.2382798403602
89.2408990278071
89.3302627989157
89.3876804454534
89.3684373876961
89.3852500207162
89.4375024117
89.4775485814062
89.5439245611555
89.5396698813266
89.5349241323017
89.5267547326805
89.4856554570281
89.456720681817
89.53804333507
89.6206338506438
89.6251073750728
89.6156108245222
89.6741595247996
89.7208089263278
89.7433139616094
89.7525144494822
89.7952100049588
89.7409757732649
89.7404232903795
89.7771921846411
89.8338244775203
89.8505182212187
89.9124541608081
89.8883662396363
89.8741312108101
89.8860278368204
89.877784088282
89.8239455853999
89.7872174278246
89.7312625340919
89.7002133506376
89.7743294198635
89.8506928326524
89.8068384487798
89.7919842021082
89.7040086089908
89.6057367566729
89.5892055318149
89.6352294128282
89.5645899948418
89.5319144511052
89.543106169804
89.5316450373482
89.5193267583868
89.5052518377999
89.4725378664896
89.505531529798
89.5296809407841
89.5284369766677
89.4937054682342
89.489778498755
89.4547332656376
89.446270557026
89.4008444111074
89.3391845937094
89.2987939578785
89.2391382992851
89.2200539223907
89.3008945179437
89.3279525716735
89.3054251524112
89.2299328616691
89.2442196810585
89.2587477784368
89.2673468897199
89.3483659004886
89.4971298763114
89.5815283125583
89.5790953866772
89.6075141233282
89.7043847963054
89.7481121343582
89.7365732851212
89.7559118376457
89.786751282751
89.7530858062994
89.7918081710231
89.8427466376686
89.8437088880318
89.8486932163724
89.8968567800862
89.9551935983689
90.0175066908541
90.0443828597695
90.0918655655791
90.1387580432101
90.1229828186256
90.0380900781654
90.09028811195
90.1505167688462
90.1564985451077
90.0998907705751
90.1190626837528
90.2155938777208
90.2646895972387
90.2760201212256
90.2972000280598
90.3048648493781
90.3212353600011
90.3195325877773
90.3644006251685
90.4376626297994
90.4526223814606
90.4927180318586
90.5046274846692
90.4835161218656
90.5788717519427
90.6660204241674
90.6713314581289
90.7021012071237
90.763103922973
90.8009296646527
90.8580547871513
90.9021896984727
90.9090736105493
90.9119838339527
90.9209638865954
90.9303722272975
90.9778721343994
91.0233730871263
91.033875277119
91.020583732855
91.036650745309
91.0435541108248
91.0540731634315
91.1035448310785
91.1675484701777
91.1756810835216
91.1727098143014
91.1786228671961
91.2236129279043
91.2127191283
91.1852738301038
91.2478977053771
91.3680721822376
91.365700092133
91.3152015387482
91.2788304192415
91.2768460038074
91.3239214029351
91.3538938878317
91.4017876618122
91.4590751679
91.4172567461023
91.4190715868591
91.4748560588082
91.4635545116764
91.437777862846
91.4762464169701
91.4937212119696
91.5053104707338
91.537707531314
91.526642218507
91.5087630631779
91.5241174058526
91.5841830781541
91.6215419640328
91.5944554222333
91.5948763976004
91.5873791155426
91.5862746835395
91.6539137229057
91.7133766150707
91.7073148897718
91.703200633134
91.7184549760491
91.7143417362705
91.6787591674916
91.6572039473493
91.6976993367643
91.7633943584746
91.8274092537338
91.8675304303174
91.8554302228483
91.8302428418856
91.8237805667837
91.8761453143115
91.9023729079211
91.8932848494678
91.8863084260111
91.9182949970549
91.9449587306119
91.944253338799
91.8836486442535
91.8769558325743
91.8872019667014
91.9238849680217
91.9731305777897
92.0322372048148
92.0470553800249
92.0416769320655
92.0279781262912
91.9539270810989
91.9448085603118
92.0290615477848
92.057674326688
92.0948051433425
92.1165207158573
92.1213597866647
92.1399182482107
92.1299860866811
92.0914592162309
92.0812675371563
92.1050051998905
92.1311393052193
92.1030345768929
92.1200855392512
92.169270626064
92.2304309725485
92.2440265260808
92.2605426579075
92.3046974500571
92.2684704588651
92.2408390678274
92.2646490142556
92.3380057871538
92.3441976760764
92.3378923652931
92.401549685325
92.3866404344683
92.3481111243262
92.3615929128531
92.3829128944947
92.4426375900056
92.52180241308
92.5369967321566
92.5198575975763
92.5471659529715
92.5847527647498
92.621026102532
92.6316457199329
92.6931224324141
92.7163844073866
92.6391556223375
92.6894466172869
92.7121565591022
92.6751039947289
92.7455306466949
92.8067550539399
92.7839733093773
92.8224924635715
92.810082209546
92.8150344955595
92.8685539051704
92.8217891443679
92.8249152139314
92.8642562874723
92.9005044398071
92.9523537108925
92.9601879991015
92.9871939317445
92.963792910194
92.9137121249553
92.9606317424343
93.0732846243341
93.0522586481032
93.0522846728211
93.0655005908809
93.0412304385227
93.045026798876
93.1604758595275
93.2190513525297
93.1153284242669
93.0802326958174
93.123366254877
93.1241179273182
93.0957603100466
93.1218311349874
93.1457107595388
93.1643687193863
93.205445579193
93.2263452412011
93.2116075770644
93.2726860776093
93.2760389256
93.2083870195512
93.2805200422185
93.306546391275
93.1955791907178
93.185410491822
93.3082874681826
93.3891463542182
93.3777519510002
93.359078442523
93.3414676341431
93.2314062985905
93.2135612223867
93.3752224734236
93.4613301295691
93.3233631596861
93.2510792282706
93.2529408546415
93.2606114009351
93.3880366381828
93.3923806914342
93.3056122840054
93.2788721286976
93.2623209854958
93.30604528761
93.4006851321671
93.4857837683321
93.4627442921361
93.434297323298
93.4407371179179
93.3717333417959
93.3359227932348
93.4440364639401
93.4476475423231
93.4093718686474
93.4083205063801
93.4610315345623
93.4188698433888
93.347997618851
93.4214612143206
93.4814810946866
93.495383943723
93.493238030009
93.4240356068448
93.4310886273319
93.4941828961995
93.5017938660969
93.5520758671662
93.580328051706
93.5405700430079
93.5470341312528
93.5639336805032
93.5268524011076
93.4679411606076
93.5757971870092
93.6940223567459
93.6721141134032
93.5988571668312
93.5107951167848
93.5375418237591
93.6380135311274
93.6074200860412
93.5759564739343
93.5755576193695
93.5780040485055
93.5840833548695
93.5450379702
93.5583523276485
93.6190009878687
93.5735490611813
93.5861461154878
93.6603546042375
93.5788190221903
93.5217002076998
93.4982471757831
93.5065353855608
93.6079235682664
93.6677928251765
93.6231162909576
93.6160274902881
93.6279018965841
93.6123762574708
93.6506787499297
93.784226887687
93.7858352083244
93.6740327813386
93.6182679646143
93.6706603818376
93.7597926465732
93.7747106297449
93.7406525385352
93.7041299892324
93.6599912417827
93.6254807443952
93.6367576892882
93.6507345987939
93.7195228275769
93.8111665848095
93.8011271326633
93.7237578644646
93.6632713063773
93.7288729437546
93.6835164732764
93.6261408272016
93.6183070329695
93.6145320958008
93.6285447311538
93.6163412709552
93.6224145400531
93.6441855587796
93.583331709942
93.5928417483166
93.6155908168438
93.611495248001
93.7192139313464
93.7042794161539
93.7550004307889
93.8100669177136
93.7233579565407
93.6832340862489
93.7284328524548
93.7913327156926
93.806165087453
93.8269445228077
93.8803271615361
93.8884730154302
93.8950127508134
93.8316343990405
93.7642993717525
93.7597440335649
93.8017089640665
93.9538923776596
94.0688417750153
94.1106288195115
94.1046811823882
94.1011871969198
94.2798280833622
94.3084105544987
94.2513437502628
94.3458671258159
94.4342032951673
94.5303999327973
94.4852930967975
94.4803463639516
94.5336591512794
94.5277999474944
94.6122622200355
94.7789064912703
94.8293425329772
94.733299942506
94.7036755459089
94.7524066523029
94.7506955475427
94.9238497832039
95.0581083917574
94.9655052372947
94.789210531442
94.7761260795886
94.9367112101987
95.0767773292566
94.969021410523
94.9383195405261
94.984793171993
95.0184061935584
95.2129256081349
95.4383842435099
95.5330096762675
95.6145900241924
95.452401344504
95.3336291994066
95.5948912237677
95.9795328535966
95.8457442815184
95.6698176077815
95.5688358323481
95.3962019594595
95.5600460596105
95.8614740639019
95.8749150157825
95.8105620658135
95.6363523582773
95.8036789935253
96.0841465843371
95.9458717167626
95.8635677825994
96.2017606889238
96.3937752581566
96.4761271127288
96.5535403003655
96.2067507267094
96.0223888436804
96.3294843105044
96.4244660194374
96.6129233900369
96.8829903868635
97.0050126332082
96.9691081261894
96.9785938503406
97.2329646356147
97.8477870161709
97.4116488178675
96.618108197865
96.684281605351
96.8933500082683
96.5944865234225
96.333280850278
96.2159766870996
95.9603925963177
95.8121773203821
95.8548566942965
95.6984726577155
95.8171472343716
95.8762643949437
95.5581372126703
95.4658153992587
95.6979546024674
95.4717750586774
95.0722488653998
95.0392193414768
95.1945529830418
95.2473459048987
95.1862965682909
95.0144666348299
95.1139834653847
95.1273062002282
95.0211888278745
94.992773622475
95.108498560546
95.1620984714495
95.1459667604215
95.2352246393262
95.3336222953139
95.3856689720618
95.3285410137638
95.1385436973147
94.9882319808875
95.0862886078062
95.226579629212
95.3084674761904
95.3576038670521
95.2692734281161
95.3105901061489
95.2817885461239
95.2962097456352
95.5283611323755
95.6445043430336
95.6030009963962
95.619025078342
95.6547678614302
95.6992195705695
95.8137996129185
95.8587383276918
95.8581731185574
96.0141150602728
96.079979704382
96.0049691336
96.0598232513988
96.3721698984974
96.6210688659938
96.9374656941362
97.1501156564169
97.1720035401772
96.9159646158567
96.8095220395996
96.9952339809824
97.3177740139625
97.408441677193
97.3318188113719
97.2690978155359
97.1823711386969
97.2998168831261
97.4472636867761
97.3230138890669
97.232478433498
97.0609546432633
96.8693422996448
96.9721530515362
97.0982056364992
97.0023519833647
96.8699708796014
97.0321736126458
97.0467178021253
96.7772334457641
96.796917870313
96.8726338113915
96.8198845253127
96.5512906114377
96.4309598227634
96.4600538257969
96.6113918712572
96.8770859204898
97.1686939128064
97.0366407811042
96.8231982367467
96.957227882716
97.364368372959
97.22788671428
97.1342146159447
97.0239632105522
96.7723262729168
96.9878229283796
96.9590689112755
96.9688347305113
96.8859049503779
96.6834501205426
96.633579118923
96.7339526451562
96.9886673348284
96.6702801553212
96.2060242410995
96.1910371474763
96.290717706518
96.0413558046434
96.1576385214592
96.2215114903924
96.1312248709934
96.0729190590992
95.9975232559454
96.0295808994109
95.957613950479
95.7996244099299
95.7921357749244
95.8129938740466
95.8094619831521
95.7686587077713
95.8389965069511
95.7296810859223
95.5622870336421
95.6742598159315
95.7641775882689
95.6551235651921
95.5916150260901
95.6341713445584
95.6425158860849
95.6747983105663
95.6937829636328
95.5876279362475
95.5192133935986
95.5232942996581
95.5524367688619
95.5209136617856
95.5248588916001
95.5499090822244
95.5250671430542
95.5762116291098
95.5930261614121
95.476878234634
95.4870884408153
95.5239066224301
95.4961754590456
95.5482923574196
95.6428471898704
95.6437514576323
95.5811126193578
95.5460019749563
95.5647889665377
95.5913089601729
95.5900001722006
95.556643747559
95.554888041678
95.5330487039651
95.5128362120377
95.4834904482388
95.5180241754013
95.5365841966461
95.6076804123806
95.6096885605059
95.5324057588355
95.5356068649764
95.55520967631
95.5699813831785
95.5789110259757
95.6142078961038
95.7140769392765
95.6913608827376
95.6430163938
95.6340224870443
95.5949263727425
95.5573995322302
95.6036813306292
95.6521964593873
95.6754099836615
95.6919825986256
95.7061904670719
95.6341179105786
95.5965127937706
95.6482042090389
95.682033796365
95.6721500097667
95.6906905067004
95.6808449767704
95.6205854362226
95.6009383650612
95.6493867574442
95.6258736362945
95.533736115
95.4446173055527
95.4247969770231
95.4150557841093
95.4139851202481
95.3692999081473
95.3140746104264
95.28333005821
95.2413398818805
95.1806782325118
95.1005783052138
94.951234876842
94.8779558773199
94.8119265376721
94.7081750363961
94.6564067029633
94.6024386724779
94.518785642601
94.49398051334
94.4565086823697
94.4305557015595
94.4024647268505
94.3079995265928
94.1523254937057
94.1030710681768
94.1171335807035
94.0855740218567
94.0159186258196
93.9438554308807
93.921712662864
93.9672067450882
93.763733982545
93.5504381927933
93.5512152094417
93.4676884016935
93.3601900529948
93.3306561670551
93.260604614238
93.1592642474896
93.0104636909754
92.7422996797618
92.4849756194354
92.329609233606
92.2017901028479
92.0951463815343
91.9619430036832
91.8094313058114
91.6100830432323
91.5236822859044
91.2876968747842
90.9304259100251
90.8077505240285
90.4951669101398
90.2906973338991
90.2865014332613
90.1304918424166
89.8877188941402
89.6574028149036
89.2306069921284
88.9041379262983
88.88794395656
88.7323705129738
88.4845688927895
88.125444560837
87.9026665700973
87.6682001367771
87.2948826623438
87.0344635529517
86.8969324005023
86.6368304892746
86.323346945161
86.1351946530721
86.0079496478799
85.8125692814975
85.4669949631152
84.775900529928
84.6755047653152
84.7339717989737
84.3961450415517
84.0473365885259
83.9421379346034
83.7879311145153
83.5721851453236
83.3041311436892
82.8432188908426
82.4934705646265
82.466373962565
82.3168922581541
82.0742560750706
81.8100571136481
81.5471144865379
81.2120865059956
81.0272433275047
80.8611134788065
80.4623411493451
80.0687983262954
80.006211311231
79.8393512613863
79.546000559634
79.2606240560529
78.999060515402
78.7430931273467
78.5160387310765
78.3115729205799
78.1005385065228
77.8833759522019
77.6722881462674
77.4471122604137
77.2568511999474
77.0750110494913
76.9264569962266
76.7796926731787
76.6313957122123
76.4944900571711
76.3808118233265
76.2507855750042
75.9611400847835
75.9003353580704
76.0893636932596
75.9658947722998
75.7396590265324
75.8330872968617
75.9452072745634
75.9905398964502
75.9379999213412
75.4511289070745
75.547820008149
76.2813953428865
76.5893442552462
76.7503128954569
76.9115156160792
77.1606239562959
77.4516040087329
77.585986434831
77.7172202162762
77.8071487809223
78.290008712651
79.165681316686
79.5841466804243
79.6514997978418
80.0697915348055
80.5181796971307
80.7479092912379
80.9304998338456
81.228109893677
81.4291361942734
81.7076022326577
82.1348384034643
82.3527814503883
82.6666899584872
82.958740448534
83.1507498308689
83.2201332252001
83.0652412421664
83.5094982527387
84.317791283875
84.6216628811551
84.6548714824479
84.7133964405782
84.9012789566807
85.2595320209127
85.4697345521345
85.4171567756659
85.5038522533344
85.7813468599629
86.0280031794625
86.1310813513887
86.1677723142476
86.2537239810976
86.2799210942665
86.229728248133
86.1377067022667
85.9921901076543
86.0327221229518
85.9899337322678
85.7523816254578
85.4953886032314
85.4386682084655
85.3404885148776
85.0263094010237
84.5798753174296
84.5718038529415
84.6584295662823
84.481011664014
84.2480178218752
84.0198368510675
83.916298201283
83.8552090228384
83.7256120134879
83.5722159295895
83.3313168358917
83.0063395322856
82.9465368687172
82.9004040063273
82.6441620994138
82.3467132910674
82.1474572317553
81.9137809002036
81.5923441990126
81.3284629837973
80.9490601698241
80.5770078644326
80.4234665653545
80.1685602743223
79.8330553206709
79.5173078021536
79.2500620900959
78.9870350748257
78.7181901517333
78.5180520433543
78.37529378205
78.1222406620707
77.9763152411372
77.8724931692937
77.7699863378834
77.8068154958307
77.7648361969964
77.5897991465254
77.5459613402834
77.6466948611736
77.6763820373022
77.6906692276931
77.7194786794834
77.7640096443259
77.7856208207743
77.8771891782994
78.0944546271114
78.2216746133387
78.3180354057602
78.4646198113391
78.5602102387004
78.6937293026399
78.9444750496921
79.1437429181913
79.2741896569136
79.4162489637232
79.6161861476582
79.8126194543663
79.972359943709
80.1372498485795
80.325911167156
80.504358492238
80.616022955362
80.7118786077353
80.8843673241166
81.0872826558109
81.252946231822
81.3633612474926
81.452970908912
81.5418185724356
81.6456465644715
81.7466733847151
81.8226040262909
81.8658688142965
81.9093853286751
81.9655583597529
82.0487664887496
82.1083642721991
82.1632598671177
82.238518711746
82.3054378169282
82.3867468389501
82.4522493719594
82.4958251650902
82.5745322525659
82.6665367683443
82.7461839319252
82.8345979684031
82.9168180295351
82.994116493361
83.0642027236201
83.1333565053196
83.2036859893298
83.2719881393667
83.3279825776489
83.3643228140793
83.3925605943255
83.43013061816
83.4603476536479
83.4530405604017
83.4591602557429
83.4962929745733
83.5253873860559
83.5372584345046
83.5610046451492
83.5810495764437
83.5760598579094
83.58963625461
83.6293212525573
83.6520897000824
83.6641889284845
83.6988835547682
83.7241990744952
83.7474167724279
83.7663613392679
83.7841391385081
83.8079260652974
83.821125900799
83.8216827573261
83.8221112619911
83.8491959257777
83.8749088108993
83.8955789355597
83.9240625195886
83.9512371936718
83.9572033131471
84.0023580953104
84.0726740075804
84.1303997526948
84.1930028486783
84.2526951103191
84.3058608793456
84.3659686234693
84.4352122199592
84.5141811759828
84.5997995058514
84.6688833128414
84.723357987224
84.7723620739912
84.8539451879736
84.9441829040206
85.0166979937532
85.0832324474295
85.1327206098062
85.1922103690733
85.2251275107515
85.2522528915042
85.2958721457437
85.3152954881383
85.3006950624715
85.298888327313
85.2868021847516
85.2476422543613
85.1986805890609
85.1599874036566
85.1302505339611
85.0992471098861
85.0577653764276
85.0035255594785
84.9442310254085
84.8791849487984
84.8027527821844
84.7248249609044
84.6485597150631
84.5852782932908
84.5023688167361
84.4174356752677
84.3397650430713
84.2657682967904
84.1655897254018
84.0584921617398
83.9439851238481
83.8629538957695
83.773475077191
83.6521201373566
83.5281127831255
83.4269758159617
83.3296868814576
83.2192049434195
83.1279637519782
83.0623994044384
82.99290901725
82.9174576874646
82.8245419306413
82.7509193465201
82.6866250786385
82.6099207501771
82.5398628255076
82.4469413983037
82.3255272025847
82.1704798966735
82.016189067246
81.9007023100064
81.7391309877943
81.5713327530009
81.4324267711329
81.3019895140266
81.1909932437295
81.0627607304589
80.910521432722
80.7868622460847
80.649558241966
80.5224887424326
80.3831936490326
80.2404050797558
80.0894700837836
79.9656198871567
79.8585103231641
79.7235905635586
79.5825139090757
79.4582263696983
79.356701027766
79.2414522443376
79.077180075313
78.9317083230258
78.7797100583405
78.6470830743525
78.5404797309311
78.4172809797607
78.3116098717327
78.2264290180625
78.1339251971288
78.0636239756842
78.0098846831565
77.9658011274582
77.9407194608066
77.9539006307786
77.9613288468212
77.9776427424867
78.0150358614864
78.0729220572351
78.1393793062129
78.2211406235945
78.3006905441389
78.3963242320947
78.5255716653954
78.6738733093916
78.8378063905796
79.0201974270765
79.2038882092035
79.3667338811855
79.5175109419277
79.7217274784341
79.9173139702549
80.0863261006731
80.259650980728
80.4420225619498
80.6244770002841
80.8087587168604
80.9760259307828
81.0904679319871
81.2029411606807
81.3485984975919
81.4495325539266
81.5507819814646
81.674107538807
81.7801644089009
81.8806432072181
81.993747110291
82.1395991053618
82.2656563159274
82.3991884823131
82.5586785406189
82.7043199077481
82.8471341524304
82.9775476659467
83.0813481172895
83.2016084695892
83.3492871782999
83.4869458297444
83.5908847647029
83.6964871291855
83.8217148535392
83.9278159477555
84.0479865040994
84.1870995239671
84.2911976088674
84.3558132872671
84.4691526242423
84.5765842822388
84.6357471523744
84.7269313402349
84.812246741523
84.8885231337965
84.9667397116051
85.0271647843238
85.0952638161398
85.1308461663657
85.1586059773551
85.2026947122272
85.2485268854649
85.2949193995938
85.3503463897483
85.4165050826737
85.4868298313354
85.5587910444422
85.6160884311828
85.6162424406118
85.6371367994816
85.7079850280485
85.7431177812407
85.7645222998153
85.7933324004736
85.8207975359275
85.854217034298
85.8700697510023
85.9168848166536
85.9614178890702
85.9687686934255
85.961703559713
85.9555680849368
85.9469378249404
85.9417739965774
85.9297760027304
85.9084857871687
85.9037408926852
85.92323507972
85.9257663905157
85.9021146539054
85.92604702745
85.9344307624638
85.8850204534517
85.8918252490312
85.9034155677188
85.8505997397539
85.8035010475515
85.7585119782517
85.669548529527
85.5914561168908
85.5297246260986
85.4526412211095
85.3573572908733
85.2402365396947
85.1751056500397
85.1472434210822
85.0644103783551
84.9650560666106
84.8806949110631
84.7873503004717
84.7184440985642
84.6511160356538
84.5531998083197
84.4531795396329
84.3383499693751
84.2562955682001
84.1451941180963
84.027867810324
83.9396401034493
83.8708760920943
83.7972342254906
83.6980625062275
83.5924883718199
83.5261966926521
83.4660062983964
83.4286687568207
83.3374030422565
83.2473405400398
83.1846098231621
83.1863083192171
83.1366122438024
83.0710733986993
83.0211124102171
82.9821731904117
82.9509242349293
82.9251185762584
82.8746036271688
82.8099207382654
82.7943936245366
82.8027450742637
82.7532827227667
82.7189743860856
82.6927369275134
82.6253949176604
82.5580535980965
82.5222228884348
82.5065377225767
82.47273434736
82.3910866184633
82.3649032210286
82.3603379500996
82.3115842328129
82.2417342083102
82.2248802420161
82.1880002949598
82.131906101721
82.0795261487582
82.0235150410042
81.9360168388488
81.8732090346012
81.7819905431167
81.7174517938106
81.6339170480547
81.5522190431502
81.5023675789834
81.4029498837621
81.2899205429535
81.213122377985
81.1431042084055
81.0664686680279
80.9538309217881
80.8662200163054
80.7583637341527
80.6450298365342
80.5645449170555
80.4838255257407
80.3707926652442
80.2189658291583
80.0879927252679
80.0119155168027
79.9534612612672
79.9327591694997
79.8617061147128
79.8012365061583
79.7175828788125
79.6210816794903
79.5172182093058
79.4139695714189
79.3304678070653
79.2957395993625
79.2179550536705
79.1346471949372
79.0419640344986
78.9520053885387
78.7200011942623
78.78841902179
78.7946287462198
78.563171219075
78.4421997254565
78.3307677209854
78.2432108348622
78.2359973158225
78.1318565476848
78.0306791110007
77.946340516598
