1798
3999.43349933624
650.420452594757
1
128
4
93.7842612046573
93.8193344461987
93.7673585340016
93.7901245172434
93.8824297712009
93.873255551321
93.8382540423873
93.8673421389508
93.8142435004522
93.7484559977553
93.7449442956654
93.84222081749
93.8358458858646
93.8189736707076
93.8013812981189
93.8331008931139
93.8469818650858
93.8515636909113
93.8032736161313
93.894354902806
93.8961805336172
93.8819131112867
93.8834895731905
93.8581255238455
93.7766690448243
93.7906913101855
93.8636398256213
93.875178825413
93.7630182894912
93.7443868186306
93.8864802172314
94.0081049122691
93.9227490518941
93.8503637543811
93.8228521852458
93.8011057910363
93.8680012631713
93.8922640855893
93.7963274283401
93.839645892699
93.8866058808789
93.9254977056051
93.889125072008
93.9054616422656
93.9268624352455
93.9872015976244
94.0201906053569
94.0778663221709
93.9447944078017
93.8485136275204
93.8936015239512
93.8764257600237
93.9119756517914
94.1206845809617
94.1145348079865
94.0647925805645
94.0457475326299
94.0132523095978
93.9206371558281
93.9057482021716
93.938420496539
94.0441561061586
94.0852122027966
94.0581318198592
94.0250414574707
94.0654156543646
94.0747928726772
93.9980352965341
93.9633963012874
94.0862986667549
94.0369178537043
93.9818739219551
94.0498837399171
94.1944479547356
94.1519789529496
94.0354301671372
93.9726106001388
93.9648018404842
93.9158354586202
94.0647502095558
94.2483085400412
94.2999836664055
94.2048432412953
94.1871891085809
94.058949178648
93.8477534301707
93.8526452209978
94.0671538388506
94.1474517667837
94.2812306379275
94.3364620278408
94.297413042432
94.3008940594542
94.3235949041021
94.1823755352616
94.1218995552175
94.0923890772343
94.1547339804283
94.260731999952
94.3365615412675
94.3148136961343
94.3025418148886
94.2029488544149
94.1459159691316
94.1566396303614
94.111344099867
94.0908823175414
94.1606555100589
94.1882584212739
94.3819552701214
94.4357283210488
94.406253203049
94.36468123145
94.3297926065031
94.2455825155185
94.2487254837836
94.2963991738077
94.2894377640855
94.3425595346433
94.4406162844043
94.4829850239028
94.4167073525807
94.2328174697448
94.256120717903
94.3623018903414
94.3545252653413
94.2998485005768
94.4087311557799
94.4665081483732
94.3815467158004
94.2599381106277
94.1682505772198
94.0800731190211
94.173392025384
94.2486726705914
94.2941141802316
94.4718683565645
94.518492627932
94.3316374306609
94.4319325921366
94.405674392112
94.211624065626
94.1684263954808
94.4911280246932
94.6218711864175
94.5871982848587
94.5163521708356
94.4837782258832
94.5160660751859
94.5583168047247
94.3636432790776
94.4065520814676
94.5050719354276
94.5867832536686
94.5340564053247
94.3255746777278
94.3110601395035
94.4653835641469
94.5385855746426
94.6542478766263
94.597379895398
94.533586636017
94.5761947127158
94.5504965622108
94.4788082598751
94.5373355237663
94.4935494351306
94.5322343850678
94.6117717387526
94.6172498431771
94.4949618619141
94.4311916277482
94.3621894854203
94.284788655511
94.2726977320087
94.3595321549376
94.3936714573111
94.4896131015195
94.5165053431633
94.436790952164
94.2639824133373
94.2248715185853
94.2144166157432
94.2075175700827
94.1223296097017
94.0165518371399
93.8962919023741
93.9580981105116
93.9956155964426
93.9632347399927
93.9128182459966
93.8794701920037
93.7476934006199
93.5723795465688
93.5423283705767
93.5243892635555
93.3577763886752
93.2153360113624
93.2407668389081
93.286856935673
93.1745525477164
93.2159138160071
93.0286139208564
92.8631799001778
92.8654607359835
92.8227084021197
92.7754013282892
92.7488870499944
92.6196278992906
92.5055024274691
92.3278088076625
92.1934895102763
92.1524317463153
92.2925659936844
92.2694821260599
92.0689809652073
91.8568453021346
91.7826908025095
91.7462168234184
91.697044231924
91.5669679380223
91.5263435581405
91.4686726975141
91.4600060964905
91.345933105461
91.2667614490996
91.2327672837843
91.1817541576791
90.9980899531178
90.9157639257174
90.8500772474338
90.8065564342388
90.6395048380099
90.5972768798388
90.6457272935723
90.6871896404408
90.4884801815955
90.3217176696976
90.2019792062156
90.1694983222242
90.1426082708219
90.0811594729932
89.9583001817683
89.9703678506518
89.8437470429571
89.7219284635356
89.6403690496111
89.5522319926329
89.4486851758401
89.3548504009707
89.2057014643975
89.1352828405465
89.0821802540737
89.0458051137893
88.9643607885397
88.9820384591291
88.8738373772493
88.8155428708747
88.7295621016736
88.572394029043
88.4219862129529
88.409875576763
88.2840868612347
88.1806837665063
88.0890629346714
88.0885992324192
88.0763757323265
87.9916262186978
87.814647929056
87.7458758691774
87.6261530468531
87.5360107500265
87.487591415525
87.5792766730754
87.549664215474
87.3808846953942
87.2054853490165
87.1215444131781
86.9837048394227
86.910958612322
86.9467384692836
86.9581392124938
86.8396590633788
86.7400521427948
86.6290657215442
86.6086927775198
86.524792075085
86.3956807295432
86.320056211259
86.3395486286979
86.2896728427481
86.2197294814915
86.0963506376527
85.9858924262295
85.8056065466052
85.7648996121921
85.7737990613896
85.7585493627796
85.6814682553658
85.5734729834901
85.4361017811411
85.4301502352004
85.4923374185919
85.47438728493
85.2498956387562
85.0627569879477
85.0116635199955
85.0970624692267
85.0420263980462
84.979067882628
84.9016813431354
84.7518878856515
84.7000479968491
84.7137628152122
84.5908944872354
84.5563451262715
84.511055455744
84.5080681179597
84.4143272902764
84.3558709225093
84.259209338199
84.1603915744778
83.9682732055639
84.0465916024779
84.1419812805823
84.0317079671012
83.8736365412192
83.8585311245318
83.8580110073751
83.8522586535577
83.8019856965048
83.7552140741149
83.6047902618779
83.6362165702667
83.6981858619106
83.6555629432242
83.5300063035485
83.4556589838826
83.4394492583126
83.4192292077908
83.3044532281009
83.2106305235402
83.19109621396
83.2597474172992
83.2292222002652
83.2365194192451
83.2165633347003
83.197225568114
83.0766089677534
83.0634522270176
83.0783237806191
83.1200454561176
83.1178796909143
83.0537354591724
82.9841763186301
83.0116895777033
82.9569871058686
82.9737094335674
82.9045563999985
82.7766056557792
82.8478942542743
83.0005303295988
82.9508360045357
82.9571610871947
82.8421935828953
82.8282413651502
82.8445546323019
82.8905251871379
82.889314611627
82.8943156777826
82.8539582338553
82.8690481156472
82.7895463031644
82.7756252332553
82.7217824550911
82.7675303494983
82.8105564156013
82.7741067834852
82.7035820580851
82.6869653622308
82.6718323287505
82.7216818267047
82.6840997138819
82.685247213321
82.6627902402109
82.6512112284124
82.6316200321086
82.6732421729697
82.6791147948116
82.651689327604
82.6323427339526
82.7516648458675
82.7230811599211
82.608784681596
82.5288259873529
82.5662977758465
82.5547703715661
82.5616261844479
82.6011341854615
82.6246730467519
82.5924079362616
82.7012515392368
82.720035303362
82.7267119407027
82.6738724720269
82.6358604311528
82.5785783237465
82.5941909461352
82.6338117876753
82.7651009468026
82.7973888599573
82.7755061306075
82.6898976223881
82.6406206458855
82.5924627898565
82.6873343093525
82.6285089392628
82.591869253573
82.6606262108048
82.7226671750151
82.6460385811544
82.6751294835183
82.728019727715
82.7893712944316
82.7975938622927
82.8045467049072
82.7963762007282
82.8538277876969
82.8734290819836
82.8535962521649
82.8560129733689
82.9031865818763
82.9510155039619
83.0487194414924
83.0273005743584
83.0592688238257
83.0413579566863
83.0560099514885
83.0364962017805
83.0503226270595
83.1215653883529
83.2142816394458
83.135979992892
83.1685021219602
83.3526850879165
83.4199495012254
83.2832547847351
83.278847369624
83.3730555323738
83.4763475202416
83.4974527199228
83.5564528080966
83.54538301173
83.5865468548254
83.7221523485769
83.8004106320025
83.7507350963233
83.7858285022483
83.8217234083548
83.8840974729749
83.9669698315545
84.0781627616936
84.0964744108271
84.1139522587719
84.0706394146964
84.1375212012834
84.1688110258566
84.1822086401433
84.2199131795436
84.2507314749799
84.2929943649486
84.3921098466484
84.4655981864206
84.6273386248266
84.6602682910473
84.5433222198308
84.4907847369775
84.6308113278268
84.6558695096068
84.6437848743724
84.6072521251503
84.6577868322015
84.7267986056527
84.8158636421762
84.8111795621774
84.8519438646788
84.8356263968129
84.8323826355353
84.8955316508318
84.9281050766555
84.9791409345746
85.1171688686197
85.2166710749463
85.2736511164153
85.2657857128975
85.259593470153
85.2054620769617
85.2133893954071
85.2614635450046
85.3494392013761
85.371617669814
85.3776946763391
85.3445466618952
85.3795284000889
85.4235655070835
85.531713911873
85.5494963542965
85.5428269361942
85.6502597924413
85.7740381050447
85.7778709990555
85.8223641499347
85.8540612812825
85.900851716259
85.9149181496937
85.8952739697465
85.9235492218253
86.0770685495802
86.142804959697
86.1278525961905
86.0838696076987
86.125265053285
86.1838144509586
86.2353862640029
86.2462874293112
86.3221585742206
86.2980065081604
86.3326508311485
86.462677003205
86.4821700831301
86.4714200167691
86.4752865386064
86.5248393880651
86.5385115047279
86.4822827393398
86.466639199067
86.4904132396619
86.5245201977776
86.5755501563441
86.6215032622595
86.6097617123942
86.6257731886561
86.6349609943492
86.587276763112
86.5204539839055
86.4730194636172
86.4044369799848
86.3819677883086
86.3541247678445
86.389525145547
86.4032496831194
86.4227817171214
86.3524042119979
86.3360522653242
86.3311218656331
86.3276122662567
86.2622400421616
86.2347540848734
86.1910781618728
86.1311113728991
86.1185892271725
86.136703347791
86.127693187001
86.109052006094
86.09801655432
86.1836077610262
86.121987833378
86.0035552340988
85.9775976686414
85.9831468088404
85.9098901102751
85.929899929257
85.8715474529789
85.8582105515817
85.9170185666306
85.9422379455496
85.9153844434995
85.9069688951897
85.9309494283935
86.0394185458908
86.0768457459541
86.1598357229187
86.2812797875586
86.3670914928855
86.3825064329222
86.4644056922581
86.5091499812765
86.4878060246593
86.5301445427751
86.6317107343313
86.681672455262
86.7190639630548
86.7570038489866
86.8549680747601
86.9120930441182
86.9679638096921
87.0002480699798
87.0327076880274
87.0594423655977
87.0126185145034
87.0008156392196
87.0929160465359
87.1257385764568
87.1387765942265
87.1769938008984
87.2188525282183
87.2264109496407
87.2469028874818
87.2848474379205
87.3232890970129
87.353222857556
87.4122332021509
87.4646513295487
87.5172127801703
87.5056885427517
87.538069976495
87.6278535529845
87.7015507311912
87.7186088493461
87.7264807001734
87.7656866489028
87.8467677890813
87.9332683232924
88.0363500857254
88.0970923994031
88.1512895692727
88.1691454177981
88.2494802203565
88.2888189283908
88.3065864732727
88.3085253835788
88.3269860170906
88.3526175625233
88.4075502979014
88.4696815877269
88.523539342814
88.503974610701
88.5243814901418
88.594366057912
88.6587868246603
88.6966229347023
88.7110219581607
88.718757773354
88.741069600315
88.7814563215637
88.8466665361948
88.8522849290351
88.8644332877598
88.8662959995521
88.9532422786638
88.9959659471537
88.9753823334792
88.9830994739385
89.0091989586208
89.0196657023028
89.0654048931808
89.1089571192099
89.1555665664269
89.1999371975024
89.2226533053265
89.2207561010463
89.2616036177924
89.2547601478316
89.2799632922102
89.321423092079
89.3154855680071
89.322399295707
89.2941229803492
89.2912301647339
89.3746350687887
89.3915978425863
89.4291621063507
89.5053573764023
89.5296866857623
89.5332732649804
89.5213163468358
89.4859747104294
89.5078221967294
89.523846093423
89.5726964206693
89.6175321779576
89.613241554951
89.6062763132736
89.6500127492113
89.6482249209141
89.6627729356815
89.6958201261203
89.6922799120091
89.7452543310738
89.8203311540926
89.8033105260183
89.8027752683052
89.8229881229639
89.8818860295269
89.9078079100637
89.915031662823
89.9310453259075
89.9421288027072
89.981124449609
89.9977540174578
90.0098020556917
90.0038362339326
89.9822127769251
89.9933769997182
90.0136293802717
90.045573676428
90.066559325972
90.0717997737878
90.0898376087674
90.1545493139741
90.20291256493
90.2041936909154
90.222057454086
90.2487378305173
90.2751858215837
90.2647046695569
90.2457822414612
90.2424195509652
90.2468389438731
90.2674059102219
90.2737989755249
90.2556965203354
90.2408712184636
90.2579457621298
90.2883888712978
90.3289393696108
90.3359584286535
90.3528823858606
90.3605367569859
90.4059736435693
90.4300107783856
90.4378443916385
90.4795576226993
90.509274927438
90.5598060863192
90.613021897117
90.6361421091017
90.68090592134
90.7010252079119
90.6669256473838
90.6759851393334
90.7024454512411
90.7839558405556
90.8750607834187
90.8614368962531
90.883729883968
90.8935051023024
90.9302423426029
90.9778440837551
90.9970816067143
90.9527576305264
90.9353902080811
90.9937180187178
91.0990016585985
91.1776809665209
91.2023097341445
91.1341789707482
91.180557281531
91.2753499518325
91.3107668279782
91.3627802212089
91.3842430640327
91.3349061917848
91.3186418302836
91.287279776575
91.3023865762988
91.425668666324
91.5213624956989
91.4425891738876
91.3869670058505
91.5049710234119
91.520311453528
91.4553845455576
91.5292127224991
91.6209762969717
91.6367765179247
91.6450190607765
91.6748186805433
91.6695065905749
91.7202656049802
91.800274349197
91.7542698534192
91.678109141999
91.6627174192783
91.7089038230424
91.7515000048603
91.8465356741775
91.8341326161931
91.7049634385167
91.6787036716281
91.8748474989275
91.9948835239648
91.9248788923958
91.9364413281279
91.9439126538763
91.9261407686643
91.9577661991838
92.0013001178061
92.0006240941883
92.0605276898149
92.0140017080629
91.9083144009153
91.8941381102025
91.9210740824103
91.9829819431807
92.084430701829
92.0594452125004
92.0194918510252
92.0521007194171
92.0644168459083
92.1190249524199
92.2061125376393
92.165163025244
92.1165180775725
92.1482578974744
92.1277246539434
92.1310890819764
92.2282979352707
92.2641543802197
92.1956793092162
92.1670961235867
92.2237742327207
92.2036598848143
92.1956410325255
92.2435468226716
92.2880186136377
92.3072563871423
92.2903886283905
92.2456779776541
92.213666190208
92.2353122582853
92.2497619824886
92.2729551976019
92.3186111468417
92.3739972509279
92.3723461058702
92.3456474718535
92.3445814575134
92.3510237660642
92.3652618729013
92.4013570162308
92.4286266617466
92.3860604973617
92.3922852316539
92.4874734257619
92.577322182598
92.4778748834132
92.3746806363175
92.3896550352118
92.411699187128
92.4750231070253
92.5607925255115
92.4884149555347
92.4398303952903
92.4858828878591
92.5145482979998
92.5102977021008
92.5014692885734
92.4350099879755
92.438811150447
92.5394545205664
92.5220202676118
92.5095742573049
92.4933074623156
92.4957568591846
92.5269337217415
92.4806836723426
92.4128097746631
92.4037006579393
92.4204286191068
92.4500146728169
92.4841298572857
92.4450745363296
92.3739443122782
92.3272974712799
92.4175937918259
92.5020294565664
92.5757628739964
92.6750740894545
92.7009418066231
92.5817227826815
92.5460793680048
92.6445021500877
92.6963622419292
92.6772191128768
92.629601483166
92.4995893324291
92.3122608234499
92.2648332303869
92.3183760823114
92.3842743636246
92.4030147748463
92.4514234012087
92.5608482096899
92.6150604445911
92.600275866301
92.5601907390507
92.4560177441889
92.2994286821864
92.1785241031766
92.2129124298522
92.2428541923219
92.3282074202604
92.4403022725386
92.493737867032
92.5079140608063
92.4895646010578
92.4611523527807
92.5059010469038
92.538978784572
92.5411236264438
92.5715782078032
92.6141533797878
92.6309387502172
92.6227408560712
92.6243954273817
92.6757341150332
92.6925136533445
92.7031909883838
92.7363420834794
92.7347909222871
92.7397061597553
92.9358564521824
93.0840264098985
93.0818659347125
93.1035214221096
93.0828300065673
93.0870788416098
93.1839123118818
93.3596266158737
93.4541253877408
93.3524099335208
93.403962793983
93.576853822612
93.5017845607029
93.3814035391353
93.5589641112519
93.7416165331596
93.7155990925676
93.7457189979128
93.833401783698
93.8658241757423
94.0679869662258
94.1597681757924
94.1883869689421
94.1692245686027
94.136149867087
94.2088404259664
94.3225873637943
94.2980599333782
94.2904047351928
94.3558499030556
94.4864966942416
94.5121675063378
94.6241071656323
94.6739766242327
94.5524957919004
94.4726980627845
94.5384151984042
94.5861462118249
94.7897951366031
94.9618906125954
94.9708054766026
94.912594815511
94.9915366271503
94.9527309145524
94.9027047286582
94.8958924503383
95.0234839951824
95.2610864687698
95.2319019694883
95.1245077506601
95.4045975184634
95.4586194313047
95.4462607568002
95.6713264014832
95.7286711723339
95.6714905217541
95.6658164838654
95.8575125084094
96.0055639691021
95.9385378689747
96.1624793333094
96.4253308847714
96.4811733466388
96.540626648909
96.6950857437804
97.1366151501494
97.233258994562
96.9774470275819
96.9850014660872
96.645628207039
96.0391811889159
95.6751680462856
95.5910567575701
95.767702432961
95.6842639056031
95.5742623299775
95.5046801235295
95.4030922369692
95.3462340212455
95.1727900687604
94.9608504979615
94.8344217202444
94.7863786253557
94.7455207721114
94.7058812881425
94.731028452333
94.5110308630415
94.3037165464468
94.3795293669152
94.3236135970975
94.311263149204
94.3145058315739
94.1969743875361
94.2867961281628
94.4734282494034
94.486689506851
94.3010095916451
94.2317979855728
94.2948324207808
94.4010419238026
94.5418451307152
94.5977045087731
94.6896683658181
94.6645748864508
94.5626799708262
94.5744393986931
94.6407341591141
94.4987401620967
94.4015569454478
94.4467904757651
94.734924337656
94.8388396812453
94.7442399588579
94.6379323128491
94.7803194080233
94.9547617354109
95.0442196551493
95.1379724409976
95.2813765946587
95.1664984892888
94.9255519706727
95.1006736773929
95.4563392697891
95.539510448991
95.6483142657148
95.8077625592859
96.1312994042863
96.4489291024173
96.4116937364516
96.3217822056398
96.5734177535278
96.8403191025139
96.7143499105737
96.6571323556528
97.1555867410761
97.1183610874596
97.09706913019
97.0647952619991
97.1928629147621
97.1933232705542
96.6586040990624
96.6601015822347
96.9265890247411
96.7861255691947
96.7219605079067
96.9676886937594
97.0025831301486
96.840055692916
96.7479407195993
96.3627386034385
96.0146970839337
96.2045477676015
96.5150197686133
96.3731770893545
96.168343653616
96.0752010243696
96.0508926054307
96.2012395147569
96.2798795595435
96.3538828066298
96.234445200244
96.1955920622361
96.6541216824115
97.2916247757335
97.3355037131536
96.8916504861488
96.860499110718
97.1448541671808
97.348281892023
96.9089795967084
96.3669537829113
96.1295834315169
96.1809585920539
96.079383562626
95.9632275404899
95.9547216700497
95.9602214710776
95.9371451357444
95.799486048334
95.8076002884485
95.748384978383
95.5908524317724
95.6672546955325
95.5837345173072
95.460497553278
95.2929789350619
95.1976560024414
95.3071546493338
95.4587940042274
95.4553234375024
95.4187756492656
95.3068616817658
95.2473799321413
95.2117136068749
95.1312787937885
95.0562949652778
94.9667582259321
95.0745414450433
95.1742600932459
95.0327954039095
94.9995353476561
95.0128811803843
94.9742203434547
94.910309049718
94.9084959783467
94.9661667155533
94.9808297219215
94.8767138679371
94.9363794382591
94.9960912154213
94.9405346971006
94.8862583391819
94.8990381172523
94.8668819819461
94.8756112749706
94.8968931741194
94.9254288292689
95.0131468087212
94.956320503855
94.9520480574648
94.9920639800107
94.8976023827259
94.8829548513395
94.9632026248936
95.0429092319923
95.0034022388628
94.9645491892476
94.9311217154204
94.9131546288428
94.9277298371748
94.9487647270371
94.9932110681291
94.9773124300543
94.9121489866683
94.9900805709124
95.1520671106631
95.144167787489
95.0495138858819
95.057218267952
95.0618810371876
95.0933766033067
95.05821501323
95.0198404295864
95.0470627015037
95.0444659675279
95.1198935508887
95.1849034084416
95.1344959392634
95.1152634547877
95.1254582658077
95.1270853083515
95.0891000913072
95.0420735841146
95.0830032358834
95.0873337911798
95.0544209748237
95.0653782119395
95.0223197158455
94.9378968367471
94.8983105627992
94.876118227499
94.84184821588
94.8301036246301
94.822442633063
94.7896149702988
94.6866076628613
94.5714959951485
94.4690608209858
94.3752270267951
94.3065104678354
94.2399834847116
94.1302184232958
93.9634932879002
93.8922313572665
93.8619776540343
93.7145649003299
93.6345392865218
93.5162152824545
93.3987912644384
93.3189177107869
93.2352265514824
93.1584881212834
93.1380779460148
93.0047933735458
92.8887063251816
92.8724180553462
92.8763685483898
92.7690135531993
92.6548003077526
92.552189011927
92.4536518164724
92.4349592771304
92.2876673857809
92.0967578091771
92.1658277106569
92.0861844571911
91.9111635644925
91.7241132692289
91.4960709608913
91.2841301402646
91.0746976857782
90.7854330710852
90.5728067218505
90.4313896362493
90.348216847171
90.1293991905806
89.837586033518
89.5199765312601
89.2101971930326
89.0034686867783
88.7334081062888
88.4022975263643
88.3453401134404
88.0564181642422
87.8107340896056
87.589807010956
87.2549280153688
86.914716811534
86.5741768313789
86.1158577699206
85.8452453428866
85.7771316314207
85.4872229501378
85.0978694301821
84.6337886446329
84.3026233790755
84.0171221072944
83.5997134631441
83.2971367733235
83.0660781202051
82.7230308168498
82.2948081607287
82.0026493621759
81.6898662269096
81.3175210172897
80.8689214191735
80.3582944713749
80.3877172155949
80.4110803767516
79.8746604584842
79.5041121455913
79.3427783551236
79.0561142890477
78.6364206658112
78.2048561617481
77.7130696797084
77.4981530093754
77.5585969380266
77.2805308798648
76.8224246049738
76.4563206620121
76.1478820109464
75.7839563972179
75.604318220731
75.3834518686272
74.9066675771367
74.5657017721877
74.4840767696685
74.1946073629298
73.7747326679103
73.4039652283645
73.1034963429434
72.845873671284
72.4827288069771
72.179047980018
71.9031423740781
71.6271359643848
71.3177162826391
71.0624360736169
70.8386327251058
70.617672963736
70.3600570308235
70.1773384802517
69.929579593229
69.6848313845117
69.478593442729
69.2918960084702
68.8845451307353
68.8224477779917
69.1492201433205
68.9464981768656
68.5616944377065
68.6841932829593
68.7333852866321
68.6497527607451
68.5245801858848
67.9936412334938
67.6330493624953
69.0023458358034
69.4152309432307
69.5208163183025
69.5676425997451
69.6135409071658
69.9087046240685
69.9634111530676
70.0715048664484
70.3408076779871
70.6485965732524
72.0209849158049
72.9397983526102
72.792513976064
72.9855142661629
73.7604820844808
74.0567032494637
74.1674478023101
74.495187069426
74.88345947543
75.0415011513383
75.8522660344905
76.3585358647939
76.635021421683
77.0657792219823
77.2007434400765
77.2649511680858
77.116568393434
77.0344338014403
78.4812933652803
79.3555392608408
79.3032327917504
79.1310281537317
79.1500647824582
79.5995652247386
80.1286234268212
80.1251651827108
80.0212154340522
80.3932128779265
80.8771303568186
81.1175398163549
81.0933200134286
81.0902929636499
81.1638371146307
81.0743889993815
80.9914828749574
80.894677361244
81.0640849620487
81.2376341696837
80.9524087760728
80.498366522485
80.2479864852398
80.2093964742454
79.883294610357
79.3425030849661
79.1220906562497
79.4922243571611
79.3595095510525
79.0117343106244
78.6066299546428
78.3894055114452
78.2999770455993
78.115993337979
77.881956455487
77.6157605342156
77.2124260426181
77.0392053221192
77.1339590300194
76.8846177023821
76.5037953054134
76.2155729255975
75.9265540569056
75.5028330858378
75.1502667544406
74.7075634708989
74.2413149698285
74.1373881647895
73.8987584006003
73.4401859307644
72.9688395934358
72.5581014723925
72.1819438883465
71.8013988276334
71.5371240798641
71.365805862283
71.0055940806625
70.7518711629809
70.6422107624492
70.4825865254002
70.5134830468141
70.4631412896052
70.2251389467158
70.0463450196803
70.193132500331
70.2827384642336
70.242947049977
70.2386470812588
70.2541041432818
70.251615928308
70.2727196530468
70.5727752677549
70.8274835488849
70.9108318415145
71.0797744523733
71.2117570226984
71.2535187173599
71.5595039515023
71.967958415857
72.1958112263119
72.3520303345226
72.548368621731
72.7778610543991
72.996640191068
73.2153053975189
73.4402800888282
73.6707953601435
73.9017202168395
74.0298921027963
74.2261401760887
74.5899708190876
74.8675236438817
75.0364915675625
75.1525766222147
75.2883065965635
75.4218943974917
75.5538039287664
75.6880334378248
75.7868466961968
75.8270366706683
75.9075107597916
76.0334485114908
76.1232054140995
76.1721034363693
76.265190612416
76.37346099514
76.4650216126257
76.5669787425051
76.6751946781225
76.7642631475384
76.8521032481344
76.9625598969476
77.1077646657326
77.2437117521604
77.3626010624104
77.4670491535899
77.5615422686501
77.6548090510138
77.7721192149301
77.8619277492006
77.9215135267826
77.9770204839237
78.0262737660643
78.068922429531
78.0996359501544
78.143753497104
78.19533590708
78.2266315137815
78.2515021117081
78.2613815206394
78.2711428831968
78.3050270685168
78.363362297315
78.4071442710776
78.4659201317225
78.5038689997744
78.5130604089129
78.5288092580488
78.5743430631697
78.5936223026466
78.6238276485302
78.6473369837693
78.6617977139226
78.6780435277181
78.7017698551924
78.7051905223781
78.6907723850916
78.709423701221
78.7477053071425
78.7726469257027
78.8161980196008
78.8369709947497
78.8612811026639
78.9039976925709
78.9611730997298
79.0258447524339
79.1050191373304
79.1599514915146
79.2157069629333
79.3033964508477
79.4080585292993
79.5012910651142
79.5863731611663
79.6565067438234
79.7432418193416
79.8509008353413
79.9528274059844
80.0362443785215
80.1251979598441
80.2099059030756
80.2657902425782
80.3375497979402
80.39278848553
80.4051022672611
80.4217233750946
80.4495214840938
80.436090996298
80.415796258408
80.3891246107806
80.3076183115932
80.2395275057772
80.231416125351
80.1864599864699
80.1028864630299
80.0407367691079
79.972490119626
79.8920653312801
79.8183028593091
79.7645661158742
79.6733236107078
79.5665922453647
79.4626431328379
79.3598533015701
79.2730790113459
79.1622939072709
79.0339061907438
78.9305115507635
78.8119365221402
78.6872166494726
78.5535800093217
78.3914837368922
78.2094216790308
78.047183779427
77.9130370476851
77.8017798330708
77.6844432738183
77.551400162106
77.4269395807639
77.3441443819068
77.2479816679669
77.1445385635081
77.037366748052
76.9105512020433
76.7686790929753
76.6338859042959
76.467888071142
76.2557952884995
76.0533921390681
75.864028785735
75.6623497572396
75.4638986842892
75.2449638524441
75.0479321867351
74.8711441207325
74.6738274069259
74.4630082225385
74.2715466086406
74.0843820763814
73.8694631007394
73.6504361267399
73.5012207017735
73.3351376547207
73.1284538748563
72.9430279480632
72.7566701161462
72.5632448287344
72.3866810516079
72.2058967252133
72.0175611488124
71.8274709080079
71.6524084927477
71.4779648310028
71.3148532736363
71.143327819785
70.958875169396
70.8217281146675
70.7149042347276
70.5840356026468
70.4561601824418
70.3607507792078
70.3093303739227
70.2985408365522
70.2609798654049
70.2265821536943
70.2513637244436
70.282021301651
70.339869436954
70.4177791952833
70.4826964977048
70.59206149185
70.7396928670983
70.8948582903142
71.0516030372139
71.2136867658704
71.4266660303875
71.6457486586092
71.8859752967231
72.1344574608652
72.3909104383742
72.6469731361816
72.893268088601
73.1421553730695
73.3734467671749
73.5911432014125
73.8373637197683
74.0719182210488
74.291453754494
74.4775907925105
74.6443821625863
74.8027331998883
74.9584604001338
75.0852167802624
75.2415330377541
75.416752648949
75.5826272438365
75.7507908645379
75.9219139639994
76.1168822136171
76.3569716956735
76.5638306108248
76.7171267797551
76.882682209923
77.0576680885844
77.2112072802144
77.3782566390706
77.5547251154192
77.7479446527173
77.9336043080171
78.0473190309984
78.1722425089717
78.324262606857
78.4729850557304
78.6440338651136
78.8000426703153
78.9450762321887
79.0540252730574
79.1949957463005
79.3175639707706
79.4181021893669
79.5176600358087
79.6037935414076
79.7029919161664
79.8007833461282
79.8513248050228
79.9063704364391
79.9970517301391
80.0983688609434
80.1417655691826
80.199978657489
80.29958684496
80.3957027426624
80.4855824782652
80.5537379150161
80.6015296223085
80.6587964786902
80.7221824426805
80.7936465867281
80.8500478070329
80.8692793182718
80.9055805889112
80.9491787869559
80.9722337033099
81.0189036153889
81.0277763674233
81.0154982685203
81.022950299845
81.0073622089996
80.9869261234907
80.9558704292099
80.8989381069827
80.8564510229469
80.8018279350939
80.7662746575089
80.7726481175027
80.7918203709067
80.8035401130373
80.8041775965209
80.8102665212538
80.8181221702212
80.8224872754884
80.8036537548261
80.7731094441938
80.7176521335009
80.6647100192819
80.5793216143481
80.4506558273662
80.3520266825487
80.2284565893739
80.1222689197238
80.0373210044766
79.9457689709265
79.8513872945665
79.7489001489757
79.6522517931737
79.5896585770718
79.478793463807
79.3546067810714
79.2489568188194
79.1529521184542
79.0251531393618
78.8842657312438
78.7378232616417
78.609659058697
78.4679695153137
78.3334641852748
78.2048681035105
78.1083633567953
78.0324995367586
77.9265575823405
77.8341577057709
77.7539142648067
77.6856651221183
77.5928638948169
77.471503448303
77.3714396930025
77.3052628689757
77.244457888813
77.1832489868786
77.1763786982612
77.1525807651861
77.0774214397983
77.016095623839
76.9874145391216
76.9481300409193
76.868923299635
76.7812494728581
76.7384820763815
76.6822173217435
76.6592247450937
76.6309354702839
76.5774299406201
76.5309066067605
76.4702336917498
76.3677019094697
76.3113450932189
76.2561098712442
76.1817873188596
76.1531608227827
76.1278826189691
76.0356101441661
75.972608956972
75.9208345922853
75.8317723122358
75.7480094107947
75.7072830585038
75.6079410245123
75.4576997709567
75.3306801497713
75.2538447058591
75.1769729125797
75.099381346336
74.9890512826763
74.8733042546226
74.7418243112117
74.6626800489821
74.549894649139
74.3871979875423
74.2358530212758
74.1282036165578
74.0198521264671
73.917099346296
73.7871409194214
73.6185437852248
73.4971867276698
73.4234076799841
73.2804904880931
73.1824667149327
73.1200084422433
73.0186758474466
72.9755261814101
72.9041998554308
72.7519598106986
72.6478431419662
72.5245112390702
72.4339675455905
72.3310213096673
72.2052239384839
72.0473825752531
71.8688123371439
71.6997944805712
71.9891898832982
71.8788355691403
71.6189669771238
71.504704922212
71.4427057609409
71.3298061223833
71.2245164050062
71.1064803982422
70.9823026369393
70.8448092434693
