1798
3999.43349933624
650.420452594757
1
128
4
93.8269071385613
93.8762387219574
93.9178436163407
93.9117093951387
93.8522878376154
93.8008891774867
93.7234292502991
93.719686008703
93.761309726506
93.8726396357399
93.9632003199268
93.9666005150731
93.974482409581
94.0217469783258
93.8655888401816
93.7996436680186
93.903248648744
93.9591216367938
93.9136367945926
93.8879059499045
93.9089355033823
93.9027685003832
93.8889265909513
93.9756216670737
94.0288836253876
94.0538946863104
93.9976692544478
93.9700648584531
93.9443498167441
93.9805117186171
94.0137684494465
94.0419739132793
93.9866052943715
94.0013370697691
94.0366945095388
94.0159582456598
93.9930671753677
93.9880170467625
93.8503638797369
93.9051966899834
94.018399494818
94.035494679181
94.0229165047837
94.1064517779443
94.1590630878844
94.0670969992829
93.9145045523503
93.9611904470516
94.1016396151056
94.1038847359694
94.0573410795577
94.0105963905883
93.8848428313364
94.0263387347816
94.1231715040382
94.0510864414381
93.9656391399188
94.0523650740206
94.1452664960298
94.1382867521197
94.0888860051097
94.0632559396752
93.9638685989137
94.0778256436253
94.1503072104052
94.1122085939601
94.1599673033368
94.1520647359141
94.094134637862
94.1879028900959
94.162755494786
94.0452202534156
94.1094283650888
94.2498603804542
94.2733558993681
94.2113789775193
94.0548645480055
94.1230457176919
94.2708499305784
94.3151677076279
94.2215323001749
94.2426334241389
94.2349068313268
94.2634464937156
94.1934914425387
94.1923946140208
94.1843179666367
94.174597889691
94.228634311201
94.2775453116706
94.2441588258503
94.340449757746
94.4499715102717
94.4330812780207
94.3077304289303
94.3179566314749
94.2848049656117
94.2513609945581
94.3859805220374
94.3653185663688
94.3173231750357
94.3706215944991
94.3569991402108
94.4544988160831
94.3501597350213
94.3795478116435
94.4308301663016
94.2697704579102
94.1958635870597
94.3364690934573
94.3982058582088
94.475759221436
94.4237148321713
94.4472924566797
94.4889016258165
94.5509426612861
94.4897481867486
94.5116338973254
94.5552523139294
94.5020880293663
94.5352994613662
94.6292627070921
94.5579619552707
94.5672015879919
94.589955325116
94.5523329060332
94.4381242738613
94.3507427582741
94.3829993440927
94.5510238622031
94.5469680348723
94.5424669621512
94.5433558811277
94.5845928606419
94.4956150198578
94.3099116656418
94.3484026355606
94.4706899387817
94.4643071443529
94.515448432214
94.4819307546029
94.4587296806897
94.5985846823437
94.7799701774008
94.7165888562262
94.7284437728656
94.6512888675901
94.5987763837705
94.6610744626071
94.6558120993557
94.6092413095739
94.6605332912519
94.7607715324323
94.7329008066832
94.540767376829
94.4140116502274
94.4687067931826
94.5662048797368
94.5846328476546
94.7338001533389
94.7845041536536
94.7633663371815
94.707800800249
94.7165791529364
94.7461906168749
94.7921438567591
94.8298385783881
94.741644742793
94.5773688588954
94.5775580726598
94.5586292604112
94.6721635066511
94.7827508682281
94.7589622613854
94.72780928182
94.7285231446093
94.5393974257844
94.3526697723062
94.2949549153651
94.3698033577687
94.4435765689272
94.5034832964094
94.429964391296
94.4710427527046
94.5467646875562
94.384045178765
94.3499103418477
94.4568217377374
94.2437495435799
93.9711439704897
93.8931905030274
93.9702002855894
93.9219166376237
93.9582294919015
94.0301000975892
94.0421823215268
93.905814819412
93.7531694362484
93.6400487840199
93.6065431871617
93.5248067093926
93.5314684086922
93.4133167248982
93.4320985783972
93.3712048806781
93.2409507447417
93.1025965355158
93.0447511616211
92.9009670507052
92.8015197396103
92.8537281788704
92.8282559907985
92.813871587054
92.8080786359084
92.6239418614416
92.5157073983092
92.3717878048203
92.3668430017712
92.4222026577455
92.3666057018889
92.1989171641408
92.0599874917676
91.9193702414717
91.830664942966
91.7379847776668
91.7165869603098
91.7015880639257
91.7202237872241
91.6246571405144
91.4478022217593
91.3568860114609
91.3203365565626
91.2749922748753
91.1631366582267
91.0256312596839
91.0324538247093
90.9283563665179
90.8889336244697
90.8949834693648
90.8959073072494
90.7604251536963
90.6031514018394
90.4503220783145
90.4425139504063
90.4042831564572
90.2866902438357
90.2034165294396
90.2011920929192
90.0227734598988
89.9665416470236
89.9626197722063
89.914842770564
89.7345416496967
89.7776975249638
89.7277016016041
89.6184832210647
89.5349486535194
89.4103338191408
89.2678255994976
89.2449588130284
89.1333277943713
89.0950285651241
89.1129723966817
88.9562251937714
88.6920517815869
88.7316686660295
88.7581386759051
88.7036564283125
88.574386520116
88.4847945908696
88.3521885862832
88.321395029276
88.1948513400901
88.1611668298001
88.1057785441261
87.9871038250401
87.8918207050113
87.8473526084037
87.6968746389051
87.6820868948648
87.670429367035
87.5933044676725
87.4872031009933
87.4402094928423
87.2995757731809
87.2340057227477
87.1127765057169
86.9410197419369
86.9331582996382
87.0473153932891
86.921408378164
86.8398586258623
86.8030479183685
86.7254321672712
86.565610505377
86.4979252251401
86.4334601942976
86.3511950516563
86.2906332735633
86.2756541421452
86.2442714017253
86.1236851039633
85.8983170586196
85.9226978203153
86.0063064941816
86.0395237792534
85.9046553134535
85.7596989056521
85.6500326526461
85.6637330243415
85.5813236478334
85.3940805379793
85.296679902043
85.3972726532217
85.3616336242422
85.3533360903961
85.2766557164961
85.1409498038967
85.0998206525506
85.0699182422779
84.9037103477803
84.8625687541935
84.8187586524374
84.8571914666101
84.7654702308589
84.7308259567339
84.7422945103889
84.6899186418123
84.5391009489045
84.4483662625512
84.4050399173781
84.3967327129433
84.3932643371971
84.3807176376753
84.2879612455313
84.3331105757557
84.3010030279934
84.2696254600841
84.2082809646566
84.1963141309204
84.2027880979316
84.2017729388332
84.0259410297512
83.9115673324817
83.8999676402077
83.9736743198812
83.9918144265413
84.0300769913385
83.9464945884211
83.8674488675557
83.8362731031817
83.8669387672337
83.8270078510628
83.8513675894395
83.8530618627262
83.8637670781678
83.7194687592205
83.6957374792274
83.6682805690594
83.5911860858212
83.5761088321273
83.7173970274057
83.7117436058626
83.6627256774018
83.657835661413
83.6749519350927
83.6070369158437
83.5210284280399
83.5294276147173
83.6618810187835
83.6772343800179
83.6831772741274
83.7318551317362
83.6832602157338
83.5608041344749
83.5993619389272
83.597635381684
83.5894732906407
83.5691164864562
83.5439351648971
83.4522723478285
83.4621963848128
83.5614081555175
83.5814010259233
83.4995670928605
83.5407008199044
83.4749649302295
83.5325853140486
83.6279381016362
83.5697479423831
83.4950054072937
83.5419621866045
83.4937115789774
83.517530960584
83.4578009148667
83.4618510580494
83.5275079138794
83.5490563632807
83.5301196112157
83.5195011660686
83.4698139986169
83.4917280741191
83.459701042228
83.5472004394635
83.5804510777139
83.4944751528206
83.3942391249692
83.5388593816041
83.6096782794048
83.5433724406408
83.4735197156095
83.5566261367034
83.6224735483971
83.6937565984976
83.7086803372036
83.6153502745847
83.5601660295973
83.6457990533805
83.5935951373139
83.6419549071907
83.6605780279545
83.6930606102106
83.6935822250842
83.6774242241992
83.6852035802981
83.7014165888521
83.6738698565835
83.7359348690134
83.7650959852044
83.7802197683069
83.8205550861133
83.9487964243688
83.9451751114768
83.9265989035629
83.9335226216841
83.9429991238459
83.8714077598581
83.9840590607977
84.0495497989955
84.0895983302026
84.1039224478727
84.0628979829529
84.1691065503039
84.3323487280273
84.2899161313912
84.324541009865
84.3549210850362
84.2965315704126
84.2751100603377
84.4297214925063
84.4643396831145
84.392643953363
84.4907028492849
84.6515944611828
84.6648221944748
84.6749158588737
84.611356209465
84.5987536755294
84.6479635136909
84.7295544212572
84.8585528637399
85.0357474930567
85.0687324083745
85.0135178241555
84.9888885624171
85.0236431270407
84.992476968139
85.053247312275
85.153785777007
85.2517255245661
85.2863636662842
85.3886659523564
85.4466110691769
85.5175763078596
85.5454486806577
85.5190401040008
85.4570378075595
85.5482469424252
85.5907438931105
85.5835257736301
85.5681277695575
85.5999021433958
85.6410555823141
85.7492639904575
85.7946000586278
85.7991557187398
85.8150265832647
85.8957430492715
85.9250039272555
85.9574785509831
86.0140464274383
86.0963416493338
86.0648550413272
86.0873251893388
86.1540720940145
86.1411850352403
86.0325948822552
86.0657028357855
86.1677594758417
86.2309045151099
86.3342984391485
86.3800768020472
86.3369028591788
86.3854266359914
86.3933886826217
86.4202726089662
86.4797860179632
86.5392191320748
86.5274594616687
86.574522379394
86.6468154609024
86.7779039913837
86.8461597488237
86.9118318541056
86.9647075821378
86.9140533212387
86.8197453918641
86.8792146685196
86.9900565929788
87.0248041965425
86.9589409111634
87.0451703292506
87.1317145795201
87.134115518641
87.1646414689254
87.2163451451964
87.1387231184655
87.1541191425149
87.2188260364087
87.34124156757
87.431317175293
87.4253538387925
87.3630590070295
87.3337370919989
87.3607514081567
87.4192871215166
87.4121717129544
87.4172689915126
87.3876746518544
87.371709532667
87.3759015989809
87.4254968858594
87.4753570810904
87.5232290356808
87.435049664662
87.4191461327909
87.4190465808739
87.3171993135352
87.2432468452867
87.2734188824943
87.2423150166047
87.2510570426621
87.2054282485806
87.1491112613563
87.13497317847
87.1078836667959
87.0966124346503
87.0800306454187
87.0637171209498
87.1405941883499
87.0682336008881
86.9865596110924
87.0205546292745
87.0444564111305
87.008625644959
87.0114195556654
86.9914219382272
86.9946920004417
86.9102958533959
86.8198384777524
86.7843405314744
86.7562768046689
86.7824146045674
86.820686212685
86.7776634285994
86.8331899030691
86.832131876653
86.870434028293
86.8870461371808
86.9016006302768
86.9791577904444
87.067374494366
87.1018182857145
87.1471449221843
87.2133666608513
87.2494136532663
87.222496980266
87.3231436053251
87.3888081774517
87.4404719672566
87.4818403518782
87.5358211517504
87.6281174780078
87.6646383804752
87.7194733021139
87.8047748513696
87.7739079026835
87.7734355743213
87.8171065022875
87.8269528408399
87.7944977048688
87.842395224436
87.8760212088268
87.9371006330156
88.0799507914303
88.0919933149084
87.9884703958454
88.0069974390714
88.0900564295666
88.1072752591582
88.0419101327925
88.126590188825
88.2750990982178
88.3176789049318
88.2769606971304
88.3028525151822
88.4033310335961
88.5066556182915
88.521466535054
88.5505519623579
88.5858290255761
88.6304928363587
88.6399598563111
88.7063703360131
88.820496435239
88.89268846861
88.9048962717327
88.893658562337
88.9558293961798
89.0086762930293
89.0243149373094
89.0837368138534
89.1190441689668
89.1947043875066
89.2362903608657
89.174327673432
89.1388573692586
89.2176287472519
89.316790690692
89.3606299600911
89.348073592617
89.3794226563093
89.4229706489222
89.4728851584382
89.5299983796152
89.5820209059386
89.6131567676393
89.6224793735715
89.6057941233892
89.7263077372295
89.7813288784654
89.751693257942
89.7462637419196
89.7344254981062
89.7330285492434
89.7511910598661
89.742658534493
89.8224963701769
89.9048952694401
89.9541418700454
89.946149957689
89.9455555707095
89.9304448268439
89.9146591374221
89.9679419314293
89.9938988786083
89.9949650548248
90.0440765133056
90.0826706190964
90.0900068248602
90.077556543825
90.1383953613801
90.1629807584158
90.1634063656459
90.201880849522
90.2250063378429
90.1940574311775
90.188982631763
90.2223061764589
90.275971127579
90.3039853173592
90.2830694330005
90.2793298900006
90.3653043238952
90.3936593288821
90.4434449048999
90.4946142796643
90.4679254780244
90.4512474099784
90.4775365837231
90.4571986441024
90.4649656862821
90.4950460034285
90.5161760271361
90.5408504051948
90.5939399207334
90.6037037710007
90.6110272193486
90.6300133535569
90.6677650196713
90.6946233316543
90.7054826287856
90.7075673143269
90.7150034001476
90.7043389912409
90.7227909823909
90.7633843990411
90.7699532355189
90.7533019477589
90.8069429385685
90.8764361164123
90.8837600779174
90.8563795884354
90.8888605564127
90.9011276790135
90.8893855047865
90.9038774820171
90.9566015978585
91.0009468367027
90.9866078381383
90.9510023886221
90.9624247381263
90.9881570465539
90.9764981211653
90.9993020758357
91.060625444888
91.0938987541859
91.1144152970428
91.0953470360806
91.1062724736782
91.1780759227688
91.2472399126392
91.1934114788518
91.2270904412676
91.2908116372839
91.3117416041446
91.3140086343796
91.2976079267533
91.2991753302468
91.370657476897
91.4548904629442
91.4890444549141
91.4834126765184
91.5185387508549
91.5128416543229
91.5818603383565
91.6275641634608
91.6286370329567
91.6623853877681
91.7158519942694
91.7391848997419
91.7069865652357
91.7099337098846
91.7967570677696
91.8446313673136
91.8585526081974
91.8562996980739
91.8975168738384
91.931287020953
91.9208700179526
91.9372192032105
91.9357889614136
91.8937715117835
91.9467261411511
92.024464155945
92.0684381891255
92.1133042160971
92.1195377900619
92.1606253859686
92.1969335223374
92.1838555542895
92.2137307937548
92.1920478199971
92.1715391778567
92.2301909374415
92.2905265185493
92.3393022439502
92.3561298985577
92.3686500819335
92.281888442883
92.2044806958141
92.352540598291
92.3701419847216
92.3272760435246
92.3493490766582
92.3073997694162
92.2459873587704
92.2790684792505
92.3446071146106
92.4218219975719
92.4717412938371
92.4596649983884
92.4807136105862
92.4775533625115
92.4359944205883
92.485180864966
92.5984054192917
92.6357565167884
92.524884242808
92.3916617606101
92.4361536484335
92.5381889240982
92.4943854936934
92.4922621691614
92.6273649567308
92.6644176030451
92.5816821889272
92.5552947092096
92.5510404936847
92.5981795042653
92.6409532455052
92.7106363395537
92.6893751172413
92.5817600687985
92.5971096813385
92.7688802970852
92.7295318110367
92.6091986639685
92.6565504558682
92.7183453483167
92.7518838543028
92.8488862740215
92.8328592746115
92.7666637670226
92.6831124547813
92.6285175710864
92.7010753816787
92.7294445930481
92.7122361611687
92.7790356451544
92.7078212544794
92.6479588514287
92.7722434166607
92.8043963758872
92.7886557748089
92.8094702705457
92.8447590526897
92.9562302011044
92.9918959374589
92.8950327250914
92.9524551677122
93.0127851923157
92.9640311062701
92.9850627412316
93.0316793904513
92.9753421466976
92.9220461010378
92.8378434316
92.8246932996081
92.9632679144839
93.046634075114
92.9669464129832
92.9157830528745
92.9043483434345
92.8775546908786
92.935540515999
93.0177726669597
92.9977889411596
92.998039134437
92.9927600934135
92.9588795874425
92.947220157231
92.9679501045265
93.003095691316
93.0109046268304
93.0029175923532
93.0307644258882
93.0431139026812
93.0207696130016
92.9834050558
92.9613096315103
93.0090764584711
93.0692429246834
93.1281408756148
93.1021877140241
93.1256806765852
93.1819574630038
93.1195162125893
93.1322415412106
93.1706043076808
93.1809356868065
93.0605154880306
93.0084319057148
93.1507324931947
93.3087651422946
93.215409335186
93.0414575658794
92.9573793404068
92.9919142082795
93.0754957141207
93.1418348205904
93.1860693134825
93.1559343866909
93.0613440021165
93.0343279994382
93.0056390883485
93.1073689408377
93.1703212263587
93.0108373789541
92.89135373092
92.9164985333301
92.9621459112567
93.0529042403208
93.0050934618651
92.9715648316008
93.0264986659252
93.0782255300912
93.1799667944498
93.2751839356688
93.1861677455423
93.1311374336282
93.1357312176496
93.2272650442153
93.3144066514587
93.3563217371413
93.3462656696863
93.2912638490091
93.2721038173322
93.3814745908025
93.4759600827097
93.4808776272751
93.4536298297951
93.4957296499149
93.5964435949647
93.717774349517
93.6897227705158
93.7090866117363
93.8182282946929
93.9352163446173
93.9114974699311
93.9035049009997
94.038345657987
94.2043379718242
94.2200005966131
94.3243988234109
94.3995799177134
94.365539902465
94.2634282538833
94.300053426162
94.3213936036867
94.288156183578
94.5522207971247
94.7676417934609
94.5459490861124
94.5586455449107
94.7904435201384
94.7570760609279
94.5297374539288
94.5847033546967
94.9161405706693
94.9055405955235
94.8721273407068
94.9945690720109
94.8171821861358
94.8529730368593
95.0856458657547
95.1709092288594
95.2325916564965
95.4629703557197
95.3689861271814
95.2112726859738
95.4338912877403
95.5525207390032
95.3963787952888
95.5075979206429
95.6282560451806
95.5068850826174
95.5282094763743
95.7164220193756
95.7781511034898
95.8560436251689
95.7609529865103
95.8772552812558
96.1233291003876
96.3372417643039
96.2587003686176
96.2741517682847
96.551178882521
96.8428567838566
96.8840780531457
96.9963881379018
96.6719176722369
96.3832468589808
96.399489471414
96.8996431726337
97.2202157220488
97.2130498645961
97.4564078709219
98.0414780300616
97.8085967145402
97.3310530766276
96.7277022046681
96.2114299235003
96.2627084191016
96.4865508187083
96.2766942538732
96.054988846477
95.928564455193
95.9064745452179
95.6568147160679
95.6774401200284
95.778387036908
95.7502057167761
95.4429883312025
95.2222051875631
95.0384697975832
95.1476263543646
95.2483644257122
95.1357264570341
94.9341454517496
94.965697034506
94.9735130686821
94.8782453298903
94.8118431230835
94.8638005649598
94.837746452148
94.8095395373051
94.8370348090579
94.9160806126649
94.9879786335463
95.1620825194469
95.1969841696457
95.180979873058
95.1004366271808
95.0633811508925
95.0579733089707
95.242079404542
95.2965584228783
95.1756528980093
95.2548066292118
95.3574033482115
95.3227081187514
95.4122232797239
95.4309263662383
95.4410768337467
95.4346415020002
95.576142953628
95.7279532924577
95.8234476659843
95.7206828545697
95.6575673078129
95.7269523833362
95.9980006396167
96.1323054487974
96.1737276983821
96.2109280189677
96.3177824364704
96.6445761850818
96.7961858418882
96.7452941871732
97.0615665972146
97.2549673940096
97.4198780855193
97.6883644220161
97.8228488311898
97.581857018082
97.7178594747353
97.7322312982031
97.8250752435549
97.8849750985531
97.7406399349922
97.7206243558803
97.644836770186
97.8833616477822
97.6913114733686
97.0898409173915
97.2463161054692
97.6450009273914
97.3898426540688
97.170773593828
97.3962568598229
97.4283418109517
97.1888618287294
96.8037463860082
96.8077007910374
97.0613860630398
97.1995142606449
97.0249029000915
96.9905982715239
96.9456750766241
96.9940457367071
97.2659528910439
97.4551968258859
97.1826837506752
97.3093911606517
97.7986752587353
98.1702728395325
97.7111579620968
97.4363359984801
97.3873306481104
97.1640505639812
97.0687501830929
97.0598792487132
96.9452295742977
96.7706346880133
96.7107021710799
96.7529544401603
96.6289108984771
96.4263781529332
96.2827596302649
96.2848980997199
96.300658823671
96.4081997571615
96.2692650020316
96.150328084387
96.0801471770602
95.9632936722062
95.9372666016168
96.0752461276828
95.9950588713172
95.888563603491
95.7915112085133
95.742889971454
95.650704755788
95.6372076057824
95.7573857673227
95.8359420016594
95.8432046410319
95.6816415164946
95.5050294425113
95.5820962916185
95.6062429075904
95.5369741610589
95.5109023286337
95.588915192395
95.5603100308445
95.5577471385309
95.5415986948587
95.5011257338136
95.5482854143145
95.7013491545791
95.6090186689184
95.464460987415
95.4425397159842
95.5425378951708
95.4941628818113
95.3955825491195
95.3876168343388
95.4945034999406
95.4447146861316
95.4368202927682
95.492785596641
95.583304781462
95.5621844518518
95.5533492332911
95.4864884391777
95.4505362780454
95.4270671459235
95.4806950979706
95.4190866065667
95.3588651102853
95.3939915885529
95.4708476871237
95.4946537199031
95.516696006698
95.5316589950983
95.517124394789
95.4796718801493
95.4903824403457
95.4887897434831
95.4538812119996
95.4561351101894
95.5028630940047
95.5197567035134
95.5693829166072
95.6040173705492
95.5629652023827
95.5089716619054
95.5723338707848
95.5905418413379
95.53936109019
95.5486964594163
95.5868257389592
95.551852892111
95.5031736315881
95.4796936232194
95.5022236851605
95.5019825428737
95.4942664680639
95.464365126823
95.4546826681838
95.4223831626397
95.3769172612397
95.3097464004146
95.3047623286164
95.265593744138
95.1623261294496
95.1160585700126
95.0898698817639
95.0134906961192
94.9385713170484
94.8486347220772
94.7859489597312
94.6963405738034
94.5723245846707
94.4636818606319
94.4029317432976
94.2904706792443
94.215164472563
94.0695148015646
93.9520423105943
93.8741831348392
93.8085927562593
93.7058771185805
93.6792891104783
93.6189359044472
93.5595326290515
93.4772982837622
93.3914553393006
93.2841343048997
93.1928786153716
93.1373175317753
93.1287740923133
93.0513827219452
92.9100014965275
92.7144788146819
92.7065552474021
92.5635341488042
92.3796024537845
92.234446462856
92.1381249890054
91.988719474472
91.8008982739223
91.5379568785221
91.3747075252755
91.2505081514457
91.0180325283
90.7318122669299
90.4845216886573
90.2365431012701
90.0608711007011
89.8985438689702
89.6319101920784
89.2547430715675
89.1733066295574
88.859831498577
88.6072283107884
88.3833657695555
88.0387984110132
87.7446173917677
87.4913153222177
87.1511453465602
86.8995798135653
86.7623199943274
86.3971854837969
85.994373277903
85.5875791440858
85.3722398472401
85.129770736777
84.6836360835211
84.414940882229
84.2287876301343
83.8534222410308
83.413643409874
83.1915840687027
82.9579769027697
82.6269686731293
82.1956603227328
81.73591295061
81.8639104580251
81.8096164218458
81.1151286285701
80.6683693172188
80.6212100091795
80.4117931415656
80.0200788296593
79.6591092896386
79.2049103428202
78.9731696309349
79.0111753254271
78.703034530222
78.2678198090347
77.9006315596408
77.6299209619529
77.3311954795281
77.1632678154149
76.9723378056763
76.4866091584781
76.1212004160967
76.080682239321
75.7911235478586
75.3577268809832
75.045887979076
74.7697456182653
74.4847278006081
74.1679509640111
73.9142792005443
73.6317536225276
73.3820969702226
73.1001526159824
72.8869523695693
72.6550055532216
72.4420074288866
72.2082164590888
72.0170302439019
71.8191965711681
71.6728477650683
71.4807375220215
71.2931420071969
70.9059065322352
70.8867303216034
71.2076496703006
70.9679082800442
70.5778995051972
70.7129331830159
70.8258825736408
70.7701113579858
70.6993684172172
70.1988639423268
69.9989985562177
71.2771508612771
71.5914543153076
71.5758060188812
71.682847960672
71.7627953303318
72.1089744069312
72.2665618531309
72.4577761131651
72.6605633641254
72.9468466558595
74.0696390564771
74.9317181037535
74.802004050217
74.9626889599532
75.6572351408627
75.9868150301123
76.1930390495344
76.5510204897392
76.8882545269723
76.9943806671325
77.6327199323295
78.0725148248079
78.2765477258457
78.7050154841408
78.8985015836802
79.0423409239547
78.9619530448999
78.894988803524
79.9363214886562
80.6858640384966
80.6850988713351
80.5969445536447
80.6715499830659
81.1074987676452
81.6087150969565
81.6268708336663
81.5348227348291
81.8375335042168
82.1878749017947
82.374723976942
82.4284977405396
82.5314257815086
82.6213078124218
82.5871294799521
82.5216940223717
82.4001844110194
82.4833859751947
82.5913391893989
82.3577798693578
81.9737260129948
81.8041419571625
81.8062319575964
81.4855329683384
81.012156588405
80.8237842721307
81.0731426898342
80.8466502654936
80.5045989872152
80.1693694101348
79.9836983420746
79.8889703861234
79.7355045733386
79.5616749537045
79.34524794452
78.9640003861241
78.8138781281265
78.8667635540801
78.5696138840949
78.2076276594354
77.9491136861905
77.7093687731599
77.3354983941348
77.0490583504112
76.6649466925528
76.1929424710628
76.0430297889
75.7799886845869
75.3641085458908
74.9423947236072
74.5815392655934
74.2398072750666
73.8730906724235
73.6092282869589
73.4472066625207
73.1472040967436
72.9043811903744
72.7875135944448
72.5987830936413
72.6554737913858
72.6318306119209
72.3880431677401
72.1997496392658
72.3180806750205
72.3939628038362
72.3631339523781
72.363956534315
72.3688035147951
72.395184333558
72.4524238400233
72.6875315822698
72.8850282594533
72.9732853726697
73.126845234631
73.2544275126154
73.3411005396664
73.6334183887138
73.9730375764985
74.1411596928905
74.2860831437476
74.4925587605492
74.7089731106021
74.9151746098117
75.1517334730387
75.3997738963799
75.6220085447621
75.8176976714995
75.9477595290745
76.1220119421748
76.4356602584373
76.7058991564514
76.872778487574
76.9890596625145
77.1125295182248
77.227855263863
77.3800619085918
77.5180903758659
77.612615455404
77.6865097236369
77.761176850875
77.867267191808
77.9421330925522
77.9942661447515
78.1061786902982
78.2036183342781
78.2651970793339
78.3366297336211
78.4346172402696
78.5433206466697
78.6471337591656
78.7572770332008
78.8530899366867
78.9520627763092
79.068082429491
79.1758851451166
79.2567412575134
79.346970275808
79.4499765954607
79.5395155096091
79.5940850273286
79.6424697208816
79.7124415569029
79.7858744361831
79.8331769840809
79.8241559326882
79.8318076229518
79.8775579902021
79.9141836237341
79.9263527572131
79.9472894212368
79.9696531795283
80.0093501900007
80.06824278332
80.0999554605827
80.1357611637359
80.1671727628898
80.1790773166376
80.2115196245402
80.2758448190635
80.3187788776984
80.3264057132429
80.3382351796574
80.3549617680567
80.3617483320878
80.3533593435797
80.3604090254865
80.3954589377825
80.4192198547853
80.4336115072611
80.4651031118912
80.5150124157232
80.53729300812
80.5739377810623
80.6314112596725
80.6896170252031
80.7696995084516
80.8310487713135
80.8895224937119
80.9616723818053
81.0448906363549
81.1237886843328
81.1922433644526
81.2798714679262
81.3821818292932
81.4772642617897
81.5665652601865
81.6577776002757
81.7501761346534
81.8352531312609
81.9003303054211
81.9577364769684
82.0193822017449
82.0442706028036
82.0424312973145
82.040080466512
82.0412685268124
82.0298334576991
81.9869719266877
81.9412600778754
81.9075110172069
81.8596121785043
81.8009329329298
81.7520201219671
81.7120104034496
81.656071763108
81.5792675337475
81.496078659107
81.4250290889244
81.3558275014736
81.2778833366483
81.1778710170056
81.0721695235713
80.9761502528422
80.8584553507156
80.7458394107135
80.6694009546196
80.5661278176564
80.4209183170192
80.2827132779154
80.1474611339854
80.0037167364117
79.8690828666695
79.7269019981462
79.5878937703461
79.4714760500113
79.3599287809591
79.2492908771973
79.1424974477483
79.0369688630939
78.9343835588589
78.8437796086306
78.7272180332812
78.5789883941106
78.4418232671588
78.2751620746051
78.0905401754145
77.9234108183524
77.7461129204879
77.5360969119123
77.3349037747851
77.1225847998726
76.9249901852109
76.732299091425
76.5374689372926
76.3601446033821
76.188623022645
76.0013894769379
75.8092749997089
75.6255680067564
75.4566978658041
75.2815762567819
75.0747369817165
74.8934870423964
74.746151945935
74.5918913724626
74.4042001237992
74.2027462312295
74.0362986284585
73.8711300551709
73.7067921501176
73.5085827218467
73.2861559160832
73.138005942877
73.0436985973516
72.9012566053319
72.7598077618686
72.6357252085388
72.5281188621562
72.4503708699134
72.3955722303468
72.3557436730733
72.3378151031081
72.3213184084879
72.3443989361948
72.3814232674954
72.4207931214133
72.4497037689545
72.5330828574308
72.6537575237883
72.7782273873203
72.8837863572916
73.023299965555
73.2156829670104
73.4228493186781
73.6186973493846
73.8324725066456
74.0687627721483
74.31027729196
74.5244080046301
74.7280052249216
74.9396335283308
75.1554841616085
75.3870886904206
75.6409062219621
75.8603332477586
76.062970027976
76.2615086518886
76.4428337779876
76.6053970685888
76.7511039471087
76.8977522369723
77.063138474464
77.217688209125
77.3675363425512
77.5383111134633
77.7251356293381
77.9130855227711
78.1306211960039
78.3239456245313
78.4951957512291
78.656305817625
78.8140376931938
78.9693048060462
79.1240565138111
79.2870857924915
79.4492332410197
79.5987288800818
79.7420106116207
79.895220162253
80.0536855209812
80.2093584167934
80.3874718847706
80.5030268082862
80.6266859397653
80.7643222903802
80.8797196686526
81.0098387894195
81.1047824652192
81.1844014357607
81.3092251548924
81.4234394908768
81.4868974124858
81.5570045787524
81.6403446809466
81.7072055390714
81.7969092882677
81.8950993891028
81.9750451377834
82.0378286954522
82.1068122275599
82.1997691901885
82.2867297272672
82.3590045540177
82.4169638336978
82.4921283911501
82.5347711032394
82.5336579730767
82.5880729180767
82.6373191154089
82.6693308857484
82.6907279067917
82.7050391201534
82.7302103198589
82.7584690534683
82.7635967257681
82.7764135745813
82.7642444426875
82.7276544076316
82.6825007766807
82.636524739921
82.5945697734062
82.5663583154167
82.5608338245924
82.5554502714124
82.5113219840079
82.5100724744518
82.5436826694581
82.5855121619811
82.5997183158583
82.5979680630021
82.5694261146595
82.5386940722593
82.4817747593348
82.3854936390694
82.2848701870318
82.2112771256653
82.1156783987651
81.9816589277133
81.8312440925573
81.7233840667414
81.653186119566
81.6066265842622
81.5385927215047
81.43172077987
81.3054132354465
81.2212446053305
81.1543848580097
81.0533174741932
80.9252198026193
80.8072983744976
80.7008775196347
80.5631906139828
80.4439127393552
80.3383959725956
80.2240166025787
80.1009548098762
80.027121878076
79.9596923751819
79.8643621455102
79.7472030033945
79.666790421899
79.5936972023803
79.5072731910698
79.4452743527889
79.4134299162748
79.3620234723733
79.3339693568623
79.3154458600881
79.2483546233618
79.1878799134312
79.1209618935801
79.0899652187839
79.0623824206785
79.0093259397566
78.9307324056618
78.8731259698102
78.8605152817496
78.8460174966787
78.807907928103
78.7592173519695
78.6997168779972
78.6694653646619
78.6285744307018
78.5828067854967
78.5586367361576
78.5339152374437
78.4701317662733
78.3667554498346
78.2888337316549
78.2865103677046
78.2390296515963
78.1753310152987
78.1269100203354
78.0062241121389
77.8854246835775
77.8488578963783
77.7826327959757
77.6653242577941
77.5674080530469
77.5120701039894
77.4153595387309
77.3061837823978
77.2085923533527
77.1518189175967
77.0425861784696
76.8918245854885
76.7648704550652
76.6961055550351
76.6112535569783
76.4583062393986
76.3196467029387
76.2170396214824
76.0771295764526
75.9724165485868
75.9108743944816
75.860931837491
75.7359509537781
75.6536723269907
75.5762120758036
75.4902045392013
75.3904735871363
75.3248043885297
75.2590564848118
75.1788834574896
75.0784607725894
74.9850854299626
74.8850303099673
74.7578037071691
74.5460417758528
74.8520674339439
74.7175568711113
74.4289023548642
74.3381838914302
74.288879046139
74.2184243092107
74.1128343858733
74.0165352209403
73.8714663489926
73.7711354951592
