1798
3999.43349933624
650.420452594757
1
128
4
98.0142598121401
97.947491168667
98.0865163818903
98.139894759768
98.0501735885204
98.042278561145
98.0474336318978
98.0005701579948
97.9854837917144
98.0461417944572
98.0303142813518
98.0299617979197
98.1079495772853
98.1481055863229
98.1217104897993
98.111553942138
98.1138832495753
98.1081114263788
98.1261078227774
98.0894292707298
98.0533873626397
98.0598381279796
98.0625344596652
98.0323281066251
98.0136149546334
98.0764143751347
98.0903244608875
98.1073590943461
98.1101434066069
98.0615617171851
97.9774474254449
98.0176173267424
98.0671692755071
98.0835135403823
98.067890823573
98.0971299894028
98.117321493847
98.1368395351969
98.1717085867703
98.2301781311577
98.1393340218251
97.9945223461301
97.997870545373
98.1521547263561
98.188444346971
98.1013855663665
98.0243864801555
98.0715271269973
98.1085877050852
98.0861441088201
98.0830394403026
98.1366610060975
98.1086861381644
98.0749978078776
98.0260271249916
97.9724402613366
98.0358822924498
98.1381391537054
98.1365616088333
98.1481389937195
98.1221591142585
98.0912602783609
98.1089462511613
98.1184270465825
98.1272600528903
98.1130511662886
98.0988788694565
98.0904241591638
98.0686034449971
98.0739808702016
98.0128970451186
97.9909311940421
98.0591250269199
98.1640770872421
98.2138389121914
98.213621775097
98.1171080294961
98.0484801632494
98.0854184979822
98.1783845451987
98.0921616609139
97.9546715830882
97.9972870991046
98.1025445843327
98.1602064045973
98.1596487755738
98.0617650853811
97.9615967922475
97.9541735541697
98.0920908439928
98.1271641302196
97.9877003359961
98.0137170598979
98.1083085791085
98.0739803275808
98.0855446549803
98.1444790575307
98.1213435893567
98.1206449434228
98.051991386521
97.9849537329146
97.9877453126607
98.0618602056035
98.1783591175072
98.2123242435575
98.1138300069345
98.1010516700941
98.1481607601707
97.9786571015811
97.9857917726154
98.0743147254742
98.1315361657171
98.124097475591
98.1759416269481
98.2252846814479
98.1677169366943
98.1017682556806
98.1178746287167
98.2257716198433
98.2117698717462
98.1083228441801
98.0992616670296
98.0976111031895
98.1732681558356
98.1714152759859
98.1113571299776
98.0969180046909
98.1294821776801
98.1323804255092
98.2168326129395
98.2465136350331
98.2773739772693
98.317985910111
98.3181359192733
98.1837751420323
98.0249393695387
97.9451768892654
97.9434613178259
97.9913847880821
98.0700614702728
98.0892275909374
98.0686680632004
97.9485083862267
97.8904947529972
97.9258862535835
98.006330940513
97.9886534298581
98.0073999688549
98.1078056633065
98.1368785353289
98.1622715537358
98.2176835262054
98.1997637345215
98.191936192688
98.0420733633827
98.0761473799787
98.1723441202899
98.0632161219113
98.0550796599778
98.1312709186649
98.1813859632193
98.14320414433
98.1206498644824
98.2702060665536
98.2836903765751
98.0790569489843
97.9127762229595
97.9304753215829
98.0546185771685
98.1449471396777
98.1574785390736
98.2021463109842
98.2113720030925
98.1819909929965
98.0836588422918
97.9909918396034
97.9836461748362
98.1672615191466
98.1352310021411
97.9529070501762
97.9017462651434
98.0090521437003
98.1371017805637
98.3040567315917
98.3171736469803
98.1905502584337
98.0164964393849
97.9258715802628
97.9646477634152
98.0847556532696
98.0406493118424
97.9300233635714
97.8773364215889
97.9209807993696
97.9675353922622
97.9757649390957
97.9984703841032
97.9452337048999
98.0172942449621
98.1914742937518
98.0537760699965
97.9423385464684
97.8601958736761
97.7760891900749
97.661665697454
97.6993353240324
97.7113754936346
97.7085690920013
97.6610280463505
97.7553532213939
97.6858880075919
97.6055402498028
97.7199337291072
97.7489667399595
97.7596581414477
97.7688429990613
97.6508216952706
97.6475766865879
97.6545347529832
97.6208574604587
97.6236591243392
97.6453780286327
97.5144194409082
97.3933795926608
97.3832402961296
97.4328698266307
97.5593878725817
97.6208942130999
97.5254146853
97.4837895161004
97.4080045710944
97.3087805893357
97.2949132097
97.3463421267662
97.4132491658962
97.3763749146656
97.2291705860865
97.2037257293452
97.1678364745157
97.2585728276366
97.2845409219179
97.1923018322276
97.082873596736
97.0603339517606
97.0758377873679
97.1426017835483
97.0884550851258
96.9710676462841
96.9625750445292
97.0466239099406
97.0164555070578
96.9706118516725
96.9408313904259
96.9403703505246
96.9457021507428
96.8723536667743
96.9126080397085
96.8990797077861
96.7892434985152
96.7953671295344
96.7744223101123
96.7649766182882
96.8408219555331
96.7781365284218
96.6782872607503
96.684374402599
96.7080319681819
96.717513402901
96.5655656339549
96.5391449160529
96.6874961950494
96.6608919679158
96.4654068552554
96.4226125311013
96.5534766138846
96.6137597937693
96.5768683237271
96.5544497184274
96.4872797353406
96.495433130351
96.4643139231018
96.4871567485846
96.5012993599667
96.4022886510178
96.3490602461461
96.3060738001421
96.2620919030848
96.2716991594503
96.3571879893402
96.3528717931526
96.2606694137715
96.3049451479237
96.2755854842148
96.17427282728
96.1978366721734
96.2019602329157
96.1297145432137
96.1106157000083
96.153051677502
96.1708860464929
96.0920697361589
96.0508478934194
96.0365641608375
96.0188365372662
95.9775194386734
95.9425216205402
95.9337290132863
95.8882485137174
95.848754337321
95.8784674733236
95.8889755942392
95.8207610316856
95.7556236796513
95.7867918134711
95.8281899766084
95.8772349950403
95.80783111196
95.720124537245
95.7645498241319
95.8291401716926
95.7940494463646
95.6804512235827
95.6356854816079
95.7696702624805
95.7681705661258
95.6705714005853
95.649945623549
95.7507992085064
95.663961170984
95.5508021249096
95.5370789522683
95.5927001942361
95.6025084456908
95.6008943328974
95.6272827929066
95.5810541271109
95.5159909372193
95.5618599199488
95.5808399593067
95.5128887535154
95.5208491913994
95.5392111497597
95.579866306249
95.6011259888526
95.5459168199905
95.4679483119337
95.3486579161163
95.3531577247105
95.3952788306437
95.4074905371386
95.3773183244405
95.3956131166711
95.4570235119099
95.458321245325
95.4380879594631
95.3527970677918
95.3316152270791
95.333198369467
95.3074484939218
95.4126798198631
95.3690840122907
95.3035567625697
95.4082625014628
95.4707310961794
95.4260395983655
95.4413813966755
95.4283636977926
95.4149808474577
95.3566114603228
95.3400597978197
95.368710937333
95.3708196038657
95.3711511256704
95.4349483495671
95.4203179045406
95.3903129620675
95.4109696602957
95.440949805887
95.4103082272539
95.3657387674686
95.4015459880005
95.4762679046664
95.4490969396861
95.4094052175349
95.442572229533
95.4878744459038
95.3743681184683
95.2695108286985
95.3508690376432
95.5343411544507
95.5426856263069
95.4694635472106
95.4348906960789
95.4722549193802
95.491784507837
95.5248461635018
95.5185391234576
95.4978471385575
95.4464909673381
95.4343047404032
95.4147525664363
95.4301271373785
95.5324230137623
95.5779246499278
95.4806281715969
95.5125888009413
95.5273876275522
95.5086269283816
95.6113209023063
95.6640851344052
95.6872445886239
95.6664556929969
95.6515117273267
95.6281733025736
95.6092033112492
95.6023033724728
95.6197249473711
95.7037770960967
95.7466755194961
95.6831344147959
95.5909893285375
95.6507998519495
95.6846683921477
95.6694378871666
95.636001610055
95.6428867808856
95.7039922618908
95.7458180236788
95.7426233405241
95.6696570142171
95.6339655986352
95.7248300196129
95.781414622945
95.8189962367884
95.7676335781869
95.7968520318062
95.8423190942599
95.8048217615747
95.7843771727934
95.907064494203
95.9186722351643
95.7982515315048
95.7285962615368
95.793875248705
95.8588904336864
95.8126147229873
95.7605334564822
95.8660783771882
95.9584343253969
96.0143852614002
95.9644799355958
95.9375687657037
96.0090643525995
95.989296175267
95.9028468893199
95.945081997461
96.0429550779467
96.0791638376875
96.0835923353401
96.0170390740593
95.9818666843335
96.024443724575
96.0966748035711
96.1029515290139
96.134751266548
96.2558456160997
96.2349610979354
96.0835274715674
96.0234445489506
96.1260699322848
96.2372154514125
96.2322765023738
96.252272110855
96.251587930435
96.2201927344007
96.270877719571
96.2258264682406
96.2178782717718
96.2522570173445
96.3119972637253
96.3078230137906
96.2513080502167
96.2579165378148
96.3069392142579
96.2974430723964
96.3096486898139
96.330247806736
96.3902397859995
96.3199037240553
96.2855414856339
96.3559410297235
96.3804177512628
96.3726622504135
96.3889110370465
96.3915041672335
96.4069022684383
96.4054760953771
96.4239904903989
96.4690166388435
96.4908357625244
96.4436436925615
96.4780662221215
96.5795913611712
96.5182165661586
96.4396245811306
96.4878012118775
96.5515269468257
96.5916958241836
96.5801963407355
96.5785779097433
96.5302024269907
96.5113516255904
96.5237048916151
96.5698044674619
96.6091827452469
96.6299437812633
96.6089639581228
96.5604029711174
96.544727682657
96.6440532063794
96.6986937929321
96.6643775567624
96.6377914421399
96.6340108481045
96.6538848895593
96.6534230796148
96.672759402261
96.6777496514093
96.7133779114941
96.8027785092767
96.780618232654
96.7236372888066
96.7019795945168
96.7666600633191
96.8447327659529
96.8133511459068
96.7414233716991
96.7334930575464
96.7830474433095
96.787109665817
96.7615707883836
96.7533130147474
96.7825847628418
96.8330935532992
96.8692390741113
96.8784238922767
96.8636261027865
96.8370193204379
96.7789182205702
96.7510197881628
96.792580135523
96.8338165072999
96.8111737020748
96.771880769154
96.7768295427748
96.7928175749255
96.8020486693137
96.8612623421735
96.8717449208871
96.8471856900157
96.8543495215908
96.8822640737724
96.8923472063899
96.8586875774115
96.8792014317545
96.9258338403289
96.9462728962442
96.9927922447265
97.016933905354
97.0103963278753
97.013929217162
97.0011290869407
97.0155748793062
97.0904275936266
97.1466460194645
97.1779726443603
97.2065421148454
97.2746067422472
97.3178180124684
97.2525136879377
97.1439344155408
97.1582477630756
97.2109365179918
97.2147785496482
97.1963663990461
97.1181127058821
97.1154156210435
97.2224345030561
97.2506872713627
97.2298313343116
97.1800059884501
97.1660626271323
97.1685751014056
97.1880050140929
97.1482635282169
97.1289007202358
97.183180165521
97.2164112392999
97.2085685731116
97.1749535027829
97.1036899135469
97.0481420931924
97.0777429666489
97.1738260677046
97.2638525392481
97.2523419115251
97.235805160475
97.3156956040465
97.283502048495
97.202733986324
97.212969320719
97.2950412617674
97.3196011996535
97.388985478056
97.4755725513583
97.4665081342268
97.3990109763324
97.3923363610226
97.4646360438397
97.4526391012443
97.3740344494126
97.3757928107879
97.3936977560262
97.4428756023982
97.4146747933778
97.3747315658955
97.4122041044239
97.3967821940707
97.3239833507585
97.3738635581494
97.4410200589783
97.4361876977162
97.3877282416958
97.3757216526439
97.3787646813544
97.3954804510271
97.4368536818605
97.4649014049374
97.4137338222099
97.408099703967
97.455779494771
97.4287994369674
97.3705149741505
97.3722372560629
97.4008773645822
97.3993331927862
97.3708142680815
97.3456766206722
97.3380195123711
97.3802057117576
97.4538358585223
97.4525035299697
97.3369404619827
97.3318025690778
97.3871776377006
97.3598257877865
97.3493432321594
97.3689296816181
97.3693937930822
97.4080170474378
97.4017458279081
97.4074889686374
97.4114647953174
97.4021499378229
97.4468227699022
97.4487175553238
97.4424716277732
97.4593734117776
97.4225400426872
97.4029963919646
97.4035916482967
97.4325189664892
97.492495049489
97.5043002850972
97.4119459249208
97.3730929408357
97.39727423152
97.4200809933657
97.4212156086775
97.3921221644718
97.3788984518589
97.3902401414497
97.3835336623956
97.4125385815793
97.483923131231
97.5075791199648
97.5216272892583
97.5423868205801
97.5431475526718
97.5789788569132
97.6024823378897
97.6221591232308
97.6650256725139
97.6767779175437
97.6671683777659
97.6812796464712
97.6805482517839
97.6920542061098
97.7044131621015
97.6968052652716
97.729603124692
97.7703294793909
97.7764028631653
97.7432950795503
97.6819937987791
97.7581298922838
97.8064682697853
97.7528195537933
97.7860168982816
97.8313947931276
97.859774088271
97.894723603058
97.8936248869345
97.8297121483591
97.7912608966492
97.7870904940712
97.7999625806907
97.8089343285828
97.8082282896233
97.8305233997958
97.8249524104617
97.7943170260214
97.8444660898453
97.885963073236
97.8153637836408
97.7766363964356
97.8079614922827
97.8229144075872
97.8638863588558
97.8393600628242
97.8447060735575
97.8742467291208
97.8566934970556
97.9035654759776
97.9715971335747
97.9308490229648
97.8745699842946
97.9368108542584
97.986460274414
98.0103170937325
98.0931349351709
98.0947991625163
98.0344470294612
97.953858937183
97.9140116554888
97.9069708730497
98.0012236270621
98.0479578157293
98.0445938935834
98.0723867908132
98.0703468215082
98.1002182988226
98.1498865722889
98.1154197329087
98.1278777891888
98.128445645222
98.1384286108851
98.1702561056862
98.1610407701603
98.1620442711985
98.1591688369709
98.1881563388218
98.2175228827696
98.2400867126019
98.2626143464059
98.2964059384153
98.2535965584824
98.1861192185357
98.1988932626738
98.2086460101291
98.2347271981166
98.222933710641
98.2519411912699
98.3189352286635
98.321882492197
98.35351261429
98.3552377910246
98.2825746903708
98.246481088968
98.2289096497017
98.2623419253538
98.2488301006007
98.1574877669427
98.2300165138884
98.3907182260839
98.382257099337
98.2874032593978
98.2884607727445
98.352128236855
98.3850328195062
98.3501889314334
98.2391791036821
98.2565707977368
98.3054478623767
98.3674734085578
98.4059924246345
98.3316597043088
98.3394044668525
98.3564823297918
98.295503173884
98.3209387544533
98.4237602946098
98.3708737258467
98.3068646349681
98.3273449240268
98.3527707096664
98.3144550636567
98.2323490208171
98.1830855735047
98.2727587410813
98.3290770548702
98.2157569321765
98.1180440166705
98.2102447169449
98.2781672202218
98.2135936956785
98.162581880181
98.1772273055009
98.2421033460308
98.2033787929355
98.1459951016787
98.2034578796245
98.2604226069906
98.2854618781854
98.2633270560424
98.2287716303723
98.3181021341057
98.2928641294122
98.2606304063979
98.3220378154692
98.295684659583
98.1572629365352
98.112431833125
98.1623770176666
98.2203965445777
98.2416639567463
98.2059705736366
98.2014710899263
98.2755628854589
98.368040619741
98.3472264631177
98.2284537211602
98.1737742161649
98.1500237182934
98.1055727407953
98.0694912518692
98.0038902161968
98.0014392322723
98.0735615384325
98.0994783318761
98.1115089515288
98.1281843796013
98.1433308491076
98.1578293667586
98.1131014084935
98.0291745151877
97.9464880601958
97.9020375597483
97.8046682809588
97.5837937793133
97.371343074518
97.2593638316065
97.2466847858593
97.2994401655546
97.43458969452
97.5469440580578
97.6264543881342
97.7412477350473
97.8677722682605
98.0209697121173
98.1992229849284
98.3205304393019
98.3209993562223
98.3689472268765
98.5141746403837
98.535574990771
98.5349926794505
98.5506468429725
98.4488055823555
98.4247903030305
98.4298656412515
98.3839851410462
98.4776395348092
98.3606226371459
98.2721111703395
98.3362865057225
98.3396649859358
98.3674633688132
98.3944285918884
98.3801739518653
98.3178759215981
98.3425656559982
98.4687652247011
98.4995492906265
98.4131295701905
98.4222297461606
98.4809379871499
98.3730983776032
98.2390048925913
98.2241800856366
98.268450077755
98.3322231771841
98.4247015034626
98.4536512974121
98.423850996465
98.408417301714
98.4763941099155
98.4856090185234
98.4691901950768
98.4718679308367
98.5130178458362
98.5446855062413
98.5274868026915
98.5958741043127
98.6439451073604
98.5848218858332
98.5670938506979
98.6581292888215
98.6640115978054
98.5693770583523
98.6340511267693
98.8261279579138
98.9049635029412
98.8624957142628
99.0252300574757
99.1026936721123
98.967103553699
98.8984171118591
98.9734655020751
99.0750314989019
99.0791865779247
99.0233782995804
99.0503619461336
99.1198135040054
99.2108590363692
99.3388492393962
99.472329026513
99.2827736203505
99.0795315293221
99.2482810178186
99.4126512026961
99.5097778358458
99.4723687433144
99.5330767500516
99.6349908501603
99.6087336673736
99.610864288895
99.592125273327
99.731362536359
99.8340565305962
99.7859465897758
99.6868931779527
99.5191150908067
99.7389832685766
100.004136395651
99.9565722492711
99.8243066196542
99.733200690296
100.039045851957
100.375540079474
100.240872680853
99.8143158916689
99.7708868809789
100.122114691596
100.344718400454
100.16367564544
99.9714144255131
100.050132263503
100.153176835658
100.086919964955
100.230147114108
100.208425574554
100.081439597678
100.040146826289
100.028274978754
100.296151708927
100.007681495722
99.6447884142861
99.855177812157
100.067247880722
100.20619609659
100.290502744268
100.56217246106
100.314652818468
100.077921304645
100.18071880034
100.42349954656
100.779826600618
101.126681358143
100.836525166269
100.375865187716
100.075214044446
99.8251953989368
99.6103753658548
99.6067404230838
99.7783287951644
99.7313523635268
99.4580267416494
99.5344258503414
99.7286313102225
99.7825907100168
99.7219533327503
99.4627475432631
99.2437129060755
99.1732892060297
99.2627251748862
99.2814124034904
99.0521277795354
98.9918365325367
98.9249373811868
98.9228762195355
99.0217492986229
99.0159121236491
98.9991189511102
98.962968658046
98.9197580741187
98.9203130031874
99.0361202997082
99.1027995649436
99.079076057096
98.9175118258828
98.8284682219499
98.9629622442661
98.9704196355088
98.8702202961699
98.8332632910686
98.8774212143438
98.9565857616946
98.9939230302046
99.0885439337632
99.0652449188368
99.0342445643104
99.1208069212227
99.1713314488102
99.1506835235187
99.1260521240063
99.102233949531
99.1584969910405
99.324994351442
99.3058883064407
99.1624853630251
99.3320460140949
99.4268967517571
99.3212580046383
99.3046458653664
99.3871996854186
99.4525887169395
99.6447037618743
99.911699898883
99.8823763523573
99.8477753570293
99.8926156781574
100.097698612915
99.8728990259767
99.6689869802411
99.80487330285
99.8881070180347
100.101089202247
100.329661267716
100.304361074037
99.8414450342874
99.4713573902119
99.7967294539035
100.305774546518
100.430398365636
100.082728622446
99.7090141484548
99.554807923912
99.8738480039817
99.9582744759459
99.9113357191976
100.005886353899
100.039531668595
99.9181933233043
99.8302877359566
99.9150762391901
99.8455006557543
99.6921455144085
99.7791815020331
99.7001825964894
99.5352880000239
99.8184088175909
100.040313632239
99.9514732658456
100.013482011405
100.138939008269
100.301083306698
100.369894524704
99.9568019351119
99.7242768903563
99.8252035827117
99.685453696859
99.4288593798055
99.7445098337569
99.8898961483345
99.7533613865237
99.6066803342729
99.5043837237227
99.4324065466474
99.4488706604523
99.509734209493
99.4308396423532
99.3979546208049
99.4328478172155
99.2766979109018
99.0538516152588
99.2072900581587
99.1701749453762
99.1669757737232
99.3136318668794
99.3198497831736
99.3026145973352
99.2976860244025
99.2597093492542
99.2898490599811
99.3087093078603
99.2341798169911
99.1198768645969
99.1000565389917
99.1110013155442
99.04911469034
99.0679355257301
99.1859732014168
99.1768090225284
99.0901881001604
99.1075440813743
99.1398502000557
99.061913203158
98.997610145799
99.0228034894727
99.0641202395856
99.0359694897656
99.0681605412103
99.0434939296594
98.9658702281134
98.926889751954
98.9407138400238
98.917767190041
98.9599409861439
98.9416365655112
98.9272043551629
98.956475664448
98.9407993079143
98.9095344951505
98.9606798956085
98.9386181163023
98.989786789205
98.9693106016656
98.9024773210783
98.9041459754686
98.9355814769804
98.9848043425207
99.0176593054205
98.9715584815163
98.9919252614588
98.9958755605267
98.9689501965697
98.9430265854585
98.9031256900466
98.9491172244891
98.9911637550312
98.9889897894594
98.9990490096865
98.9876719306009
98.9274660823061
98.913498502695
98.872583108674
98.8041798002184
98.8196885869984
98.8518603182057
98.8810572938822
98.9063854786274
98.9406730440655
98.8891837631652
98.8300293977637
98.8510964372286
98.8334714494809
98.8191221723313
98.8097420032521
98.8141728081967
98.8395937333868
98.8566711129178
98.8431970834228
98.7772705074993
98.7286029179041
98.7608136783586
98.7932826443569
98.7722371279091
98.6925453545396
98.6804337807371
98.6988787335106
98.705183113556
98.7003717906634
98.7257635484344
98.7143541475888
98.6986279563191
98.7725331270311
98.7321492076538
98.4713031903003
97.675586627947
96.7146824978515
96.7499429462919
97.3516473716222
97.8126420389945
98.1846234472292
98.3380707449848
98.4074251750009
98.4826753470853
98.5442568660821
98.5655293458012
98.5605467014612
98.5905407068124
98.5915807083325
98.5713303127625
98.5439376260227
98.4637856780486
98.4181097533042
98.3695549576975
98.3748892102729
98.3359597890011
98.313455856507
98.2575295469782
98.2338740910767
98.2220108519285
98.1914585160587
98.1166309232754
98.07938312854
98.0470959809881
97.9865346884377
97.9101975300428
97.8221254146637
97.7536097706172
97.705605809188
97.5179173599579
97.42066232369
97.3303521328078
97.2162468931904
97.1264148365857
97.0365116313059
96.9256384107877
96.794987308205
96.6676914786582
96.5161601938025
96.4978184619555
96.3374690480908
96.185778503583
96.0392367673199
95.934357321148
95.8587257676634
95.6983143917672
95.5135828309551
95.433739316623
95.3617145633292
95.2185932504234
95.1722110061455
95.191139842205
95.0837826966222
94.9470162602657
94.7961478450477
94.8615759479219
94.970255915337
94.797126242544
94.5830653406054
94.5716455533635
94.5998557654552
94.5224205814883
94.4457958007661
94.3482166387718
94.3222978967237
94.4913303746503
94.48707808347
94.3897331657932
94.3463604574666
94.3996929381285
94.3902337869093
94.4291604103609
94.4961321765193
94.4240763302485
94.3412055027833
94.4652262463506
94.4897929692578
94.4477339167806
94.4284608685594
94.4133423235257
94.4704247099715
94.5168664363753
94.5513088558346
94.6068927954338
94.6179573382747
94.5801106267294
94.6044192801477
94.6523602869871
94.6582690723892
94.6263580112931
94.6352356098165
94.647619625207
94.6663906744149
94.6684015574917
94.6543544783019
94.5414933765187
94.4800852778723
94.550867943645
94.4761887942964
94.3079043138679
94.2728278786887
94.2766737382354
94.200995596388
94.085987807694
93.8839822170974
93.677534499934
93.7686497169608
93.7318573019988
93.5393951810332
93.4038312749264
93.2761139014653
93.1759013220873
93.0116232106845
92.8768249309621
92.7292365245372
92.5790673329094
92.5740299583411
92.537869515881
92.2908939546162
92.0706300996683
92.0143666110561
91.8921395856896
91.7251319927678
91.5315470949559
91.4026054598219
91.2404068951119
91.1800037430015
91.0233180790851
90.8415783533378
90.7517368241389
90.575358951335
90.3757022849593
90.1274063731053
89.871201167269
89.9955431139563
89.9859563022007
89.7404812190717
89.5182495492736
89.417289111121
89.4116939035177
89.4070716982687
89.2111832094455
89.0092550471356
89.0250941379912
89.0543494170277
89.0324629525511
88.9636289279852
88.9109894038875
88.9029255481628
88.7963123655961
88.7099600478221
88.6603257330767
88.7379512038629
88.818877671003
88.6952291282416
88.5090587587918
88.4889701705578
88.5828568140644
88.4650725225427
88.2210878132432
88.09523385382
88.2159278458996
87.9660033144274
87.5143684588177
86.9352355696134
86.3424980677163
85.7576819872392
85.1359742694691
84.5076084056929
83.9141686796925
83.3238151011451
82.8314012913487
82.3212798677129
81.5650420135155
81.1024379260424
81.1485373878788
81.1128816292654
80.7005443335076
80.2315127177633
79.7051680529239
79.1530255451602
78.8348720296999
78.4144083179719
77.794451458437
77.1827245048216
76.6633108471445
76.1679055059346
75.6271794099304
75.1080591387988
74.5995827922212
74.0176661711257
73.4667320744584
73.0205307224115
72.5025786320196
72.0953390496244
71.5362372389026
70.8518679406941
70.1989332721853
69.7269113969055
69.1701550192543
68.5383752126452
67.9822181453346
67.5297644120134
67.1025852662952
66.7729131755579
66.8516143911481
67.0708880574393
67.262935304945
67.6325030558313
68.0068013723077
68.3088359427695
68.8344226650867
69.4524852011927
69.875557492066
70.235137724392
70.6354834254477
71.0626689063501
71.4319264821506
71.8211678664613
72.2226004446773
72.6146638273346
72.9737829933703
73.2821421258389
73.649279616754
74.1526200609521
74.5770573957809
74.8761476554994
75.1560911296001
75.4866538275006
75.7904171804627
76.1250110858969
76.4585516382786
76.7500398917028
77.019778285852
77.3351953886278
77.6729714244884
77.9757439653484
78.2532418581065
78.5680212719648
78.8588642992093
79.1418943892443
79.4235818075813
79.6994096598155
79.968612294307
80.2118525482418
80.4388638676829
80.6853374118935
80.9361425252407
81.1853175102335
81.4129492812301
81.6438940983294
81.8744312247293
82.1331735676142
82.3547280685636
82.5551571218542
82.7586331365826
82.9456166901606
83.1221101960416
83.2910950453635
83.4444283943826
83.6217422942913
83.7795937531843
83.9528768946793
84.1144548136385
84.2616390398848
84.4070895554764
84.5664204200587
84.7133168849733
84.8378586181277
84.9806381040359
85.1103586099124
85.2104204768832
85.3325636390001
85.4746230232912
85.5933251183918
85.6859892341755
85.8078124762848
85.9148556953815
86.0078184968452
86.1057743462954
86.2132845257163
86.2814928151259
86.3266358851002
86.3687799504129
86.4270781042182
86.4837188830267
86.4989295314166
86.4812689744823
86.4261838805975
86.3031271855327
86.079651661742
85.7719600107328
85.3833143760399
84.8914356360111
84.3232918671435
83.6824414116515
83.0121904774986
82.3384751452738
81.7014055153685
81.1091126658965
80.533903498738
80.0177962844744
79.5830039858797
79.1552476125219
78.770222530364
78.4106581144538
78.0445506347148
77.6796810271756
77.3190121881525
76.9114527127144
76.5206719589061
76.1215715387027
75.6965438502581
75.232643495781
74.7408305643869
74.2529605535597
73.7493027572649
73.1942578680558
72.6351606390651
72.0827668765034
71.5072528757159
70.8822187684212
70.2534601388667
69.6335319056784
68.9858863833543
68.2802980333447
67.558499175577
66.7804623445624
65.9760283397621
65.2016898214128
64.4685168894595
63.754212366627
63.2535587543671
63.1004533205194
63.27579693043
63.5888766812378
63.8441325893658
63.9249778933485
63.9267844330562
63.8763395653366
63.8326235338974
63.7871485464001
63.7632376139919
63.7379125639871
63.6977472453292
63.6666313851532
63.7251879129791
63.8544580876
64.0764971305379
64.3951562323302
64.8533337303391
65.4603440087206
66.3026826932615
67.3510112346463
68.6336782236405
70.0806400640395
71.58020864655
72.9832912947506
74.2849918880908
75.454233654938
76.4941810248982
77.4276550273211
78.2847698237504
79.0547952366357
79.8364505951848
80.6105047245017
81.3592025717004
82.0778388785637
82.7008613649435
83.2602480343221
83.8226219455514
84.3352653756602
84.8101762562921
85.2373219392722
85.62456135523
85.9951758113295
86.3356758507548
86.6085230250958
86.7616174221913
86.9317329293311
87.2465734875872
87.5545768906885
87.8146920110379
88.0729486934393
88.3395810221549
88.5685584335308
88.8077128451736
89.0130887609518
89.1788605831314
89.3346676028021
89.5122604555498
89.7094063115502
89.8713692636341
89.9911421953448
90.1242980857472
90.2517292383692
90.3702349335821
90.4728879572662
90.5902968857628
90.6940928151794
90.8107120144661
90.9292365147667
91.0092947544397
91.0368118121788
90.9484344633578
90.4653526973681
88.9074812127631
86.7219455460771
86.3804131505731
88.0522392146148
89.611182428252
90.440267507763
90.8907434237919
91.1689876087732
91.379588956125
91.5502515090145
91.6608514216101
91.7510914915684
91.8278575019786
91.9099744447943
92.0161820255136
92.0990504875044
92.1438776584846
92.2135143785356
92.2840642997578
92.3407273089781
92.403721247866
92.4776125247816
92.5435929251014
92.5560096805321
92.5850957625575
92.6282988843767
92.6813810503556
92.721397326587
92.7358352319115
92.7780717605509
92.8173854340744
92.8411349119176
92.8700002491627
92.9248119470387
92.9537529945103
92.9492747945519
92.9645829483766
93.0125696331861
93.0475439241077
93.050841914406
93.0731952708207
93.0939590341532
93.113355584338
93.1526290499667
93.1656071374477
93.1680113950533
93.2318720156878
93.2836442612247
93.2814832846332
93.2750593148876
93.2933785981376
93.2991817975991
93.2895842970605
93.2890207782281
93.2782265481877
93.2743915969722
93.278943015664
93.2854876316665
93.2435149596117
93.1397552943052
93.0373922710877
92.9241456016738
92.7022747468261
92.4402990902101
92.1476465391331
91.773313951796
91.4347675478592
91.1315407804151
90.8276336774041
90.5113326708329
90.249684541002
90.0353733117175
89.873820222879
89.7837093048607
89.776558542458
89.8886914818761
90.122159140958
90.4066774575628
90.7821957172298
91.2011962759149
91.5481138956209
91.8058283709829
92.0209611635603
92.1607698464771
92.2478559337494
92.2525056177176
92.2154328172237
92.1535145123121
92.0848260167233
91.9248996629595
91.4335218063702
89.9511083915028
86.3030223748147
81.3404049149144
78.9335947549602
80.9345888643645
84.6747201523258
87.5869672003575
89.3134426103407
90.279554920148
90.7766452463585
90.9428158974106
91.2005832860349
91.4600413846353
91.5889330905842
91.6696273427484
91.7098954586276
91.7456591257924
91.7505825222537
91.7647079025951
91.7507002241505
91.6708001281238
91.6276976421755
91.6015977564447
91.6144774106855
91.591504957572
91.606880673923
91.609371138334
91.5628949204017
91.5392888194062
91.5345489995889
91.5366680010556
91.47284668991
91.396709599144
91.3681793849721
91.3973630908135
91.3576578238083
91.2879926842537
91.2501771016204
91.1465770445078
91.0932879780191
91.0584615105103
91.0311735790265
91.0023039751318
90.9474781720641
90.8987055263526
90.9198994190235
90.8944417938562
90.8596968192803
90.861034401461
90.8191592927579
90.7298729827657
90.7128527622181
90.7012511085642
90.6876654037328
90.6152264489374
90.5409555084505
90.5643260475328
90.5850656798408
90.5375408934635
90.4754359662934
90.3925006110168
90.2956360226914
90.2934302090384
90.3454849836895
90.3097608006059
90.2555081895363
90.2080731689197
90.1643072170139
90.126848456886
90.0657824651146
89.9653328608498
89.8864202920154
89.8633291628175
89.8777965591429
89.8783625267964
89.9529768297661
89.9989771206322
90.0034780745783
89.9934896998446
89.9954367684431
90.0173614386407
90.0404243978744
89.9973828936846
90.039869845759
90.0410018521388
89.968945903591
89.832621509629
89.9322215093736
89.9009984158133
89.7204729825175
89.4884912631307
89.1648825242821
88.7935228739452
88.6375108338095
88.7229037770529
88.7978962989635
88.6306312922038
