1798
3999.43349933624
650.420452594757
1
128
4
97.3592607719347
97.3061570081856
97.2311426156152
97.2427956087714
97.2593149258872
97.1883845956995
97.1542516138312
97.1914564723564
97.2451923486663
97.2821035351673
97.2732664851305
97.3326047274285
97.2984059623566
97.2104855377426
97.2970351979596
97.4253403860819
97.3826716998109
97.1884141042146
97.2185404968321
97.3013562067482
97.2974247060374
97.2808126105114
97.2423398570342
97.2279408092294
97.2115379029796
97.2349281665344
97.2817218808014
97.2050925407255
97.2315573869668
97.3578262682563
97.3728507768174
97.251890371689
97.1983180906618
97.2553394414726
97.2595223809733
97.2822981847783
97.3117723358244
97.261501851215
97.2451884298383
97.1673988655315
97.1353140967353
97.2719052379068
97.361954839873
97.3205121795316
97.1661666730228
97.156653561686
97.3583499436876
97.4340659499252
97.4382662074142
97.4320545397191
97.2685932269908
97.1982739750124
97.2187945129689
97.0127030959784
96.8713660336287
96.9952824228567
97.0956124781357
97.1046165348281
97.195938762545
97.4454459923813
97.6071512488833
97.5219151987032
97.3070864325887
97.2715583801379
97.2003097327379
97.2450294810548
97.4518305613098
97.3776583323536
97.3793557784362
97.5536492467076
97.2121332156709
97.0183876525603
97.2014706352925
97.2589436020445
97.2793040291917
97.3544319443828
97.466544663157
97.3319216181898
97.0243995561995
97.2212566955339
97.4591640223649
97.3850314327949
97.2661479433606
97.0967956018493
96.9539949318072
97.0011663239647
97.2933093198686
97.5840648336054
98.0432773714891
97.8793653379187
97.5197179425034
97.3229516172469
96.9665856896776
96.6650429610396
97.2052374315707
97.6929443834512
97.4224201440499
96.9903444748651
96.9225179091264
97.1950173519597
97.5147142717093
97.6033708846697
97.482697227172
97.2351392365341
97.1089138031167
97.1425594495589
97.1255184518983
96.9650493643228
97.0903362618187
97.3349373394486
97.520584702379
97.4307424933469
97.2005330541897
97.1979413780353
97.1403702000951
97.219173022942
97.3952376872665
97.4142318142783
97.5140572466496
97.5353522205406
97.2035019627337
97.1860837503362
97.5315478556857
97.4261838058209
97.2063461886065
97.2682381850946
97.38957101186
97.3846926753193
97.3492027919911
97.308260644035
97.2753125431285
97.2418989007686
97.2566476034844
97.2854527565157
97.2159562848668
97.2068998205584
97.1032217260696
97.1595685103759
97.1192921004632
97.1698841410914
97.3216903410304
97.4305899638504
97.1179023255312
96.9556230221284
97.1950128667665
97.3561304984182
97.4592704502671
97.3708517613981
97.2775645643139
97.3601442168791
97.3980834157581
97.518852474239
97.3697324753663
97.2979680048227
97.2460338526352
97.1721038735958
97.2503296777817
97.3399078247572
97.3641938912921
97.3382287512392
97.32408661913
97.4271020956523
97.4953972620026
97.3525230049105
97.3432081477454
97.4148616826521
97.3901882956892
97.2098122568213
97.2265564617779
97.4276451720375
97.5586313324283
97.5183277280773
97.357716362831
97.2298484872039
97.2829210047404
97.2541082938483
97.1227770572433
96.9740759607325
97.0208110092562
97.1659545505754
97.3820567243045
97.4475113202877
97.3331660718633
97.3763660154359
97.4447070006298
97.3510645298481
97.4491702661707
97.5569607146958
97.2394536793925
96.9088088823613
97.0069714638662
97.2552814628804
97.3426124255389
97.3465129433327
97.2723239746629
97.1936997154519
97.2307894426585
97.3005167575288
97.326755936702
97.1426606092954
96.9324426048241
96.9920119879453
97.0695631141838
97.0679795723041
97.0726990640533
97.1474000639324
97.1514752300624
97.0673350623587
96.9785552644966
96.9319655168686
96.9427899091426
96.9647903583815
96.9481130966094
96.989945980423
97.1136746929459
97.0317764114403
96.9115253004799
96.8282814428151
96.8476091408579
96.9378308373004
96.9935511281493
96.8214462745658
96.664279767474
96.7622636133777
96.7013293676564
96.6746445436623
96.7759264837387
96.7061125616239
96.7018844343112
96.8349120682756
96.7914720311291
96.733671098612
96.5812766921284
96.5408171529965
96.7119488972798
96.6277905867814
96.5000572002417
96.6000072430653
96.6662486902168
96.6703777413449
96.6866360578396
96.5585340550751
96.4250650687592
96.3965490288756
96.3693474648118
96.3319907452766
96.3697377817791
96.4174191475586
96.4539962489565
96.441710220132
96.3991739934215
96.3640097739392
96.2692492145022
96.1663586528639
96.1494039196871
96.2751479271164
96.2637682727389
96.1909682820034
96.1966534569489
96.3159238340293
96.3897069584579
96.2766184263082
96.1951700335675
96.1153947048537
96.0954263403411
96.0864947065136
96.17041378187
96.2729004148028
96.1767614506653
96.1055837645884
96.04567313296
95.9982282258731
95.9239781385906
95.9315979156575
95.9566115629958
95.8888899104669
95.8850287801016
95.9792684405664
95.9921312601232
95.965104016156
95.9368184509477
95.9267728363162
96.0113492724689
96.0446397379674
95.8478582733247
95.7069985919617
95.8375731900276
95.9269390127267
95.8587506415778
95.7009868418182
95.6283640720235
95.6602206337002
95.7274262113924
95.7301242812803
95.6335237965267
95.5836903047727
95.5928926716155
95.6246027243484
95.6918830604878
95.7127870488393
95.6245536180819
95.5444975485532
95.4884490185262
95.532135359162
95.6344143110696
95.6085550280546
95.4994712012637
95.4956665009911
95.5374139592139
95.4969320434871
95.4823318832097
95.5592623993682
95.5088929815643
95.3680848249847
95.3478043578951
95.3758533603744
95.3609264529652
95.3858977331302
95.4021941824964
95.4122337990632
95.4127758973408
95.4109461229104
95.4408918739632
95.4104670992407
95.382342442889
95.3745151421568
95.3282408296523
95.3362765674441
95.4037699233391
95.3556095461379
95.2139802830461
95.1188577787047
95.0953522966368
95.2178961646781
95.1936846146613
95.1513540564184
95.2499619863497
95.2795147349723
95.1509402019567
95.0670990454934
95.1641278851221
95.2711235237082
95.2098773052734
95.0761978142329
95.110644717932
95.1924385206849
95.1954707862624
95.2319338582507
95.2295203840354
95.1964227494239
95.1607817060908
95.2116161012463
95.2417904790416
95.149065853007
95.1197370096574
95.1695500823045
95.1928803881258
95.1862671386719
95.1789186079148
95.1796938173937
95.1598950908552
95.0730168609093
95.0551348916257
95.1682200237195
95.1395181752297
95.0784418451386
95.1090639566098
95.121846838143
95.0700524736233
95.1149247565883
95.1641373998277
95.134438551941
95.1175371985617
95.1695776317687
95.2279935186011
95.1723535056534
95.1578047269137
95.2051200167013
95.1423532636551
95.1028147408659
95.1009171828112
95.0624795020594
95.1771288269771
95.1634404668049
95.0701642058459
95.1060118812942
95.1184325160754
95.09319169889
95.0507866670782
94.9764144986247
94.9880272794273
95.1496276454599
95.1998823265375
95.1450243038277
95.0773787175338
95.1080446087861
95.0833971196834
95.0870402590682
95.1449307363438
95.189849682874
95.1904642620948
95.1029764917261
95.0263176470232
95.0510410257718
95.1036022370016
95.1216444107744
95.1729112441737
95.158167127142
95.1533600068444
95.1974999966592
95.2123769020091
95.2383649502955
95.1827272582005
95.0696163159541
95.0616919374598
95.1272911189272
95.1427521264087
95.1013787430979
95.0561247832756
95.0939993445737
95.1413726030513
95.171651130623
95.1591579439419
95.1390387135044
95.1360105921599
95.1228526400788
95.1009635581413
95.112386942273
95.1778397741754
95.1800454081338
95.1850708751169
95.1735588090566
95.1636291617931
95.1853679754174
95.149652898986
95.1770207827389
95.19488513581
95.1567330895625
95.2186751289051
95.2923076361918
95.2107826347198
95.2125459934905
95.2755277910428
95.2396593935385
95.1991131955932
95.1233359045878
95.087031359514
95.1643157286749
95.2352158393809
95.2990607499581
95.3970589382452
95.3711390050678
95.2489786000098
95.3012559969036
95.4094415815932
95.348959815798
95.2801209177307
95.284223677059
95.2652379571563
95.3079343269432
95.3547888112892
95.3414017438153
95.3006926900859
95.2861968029617
95.320490668052
95.3604406220998
95.3620925079944
95.3387172667242
95.4264262411817
95.4516085854116
95.3516550386391
95.3048748584934
95.4219343466621
95.5309707961877
95.4495387304348
95.380889067564
95.4587974402792
95.5070807410936
95.4461431120074
95.4415345096277
95.5043484749386
95.5482485698778
95.473051044759
95.428444959773
95.4618741674765
95.5057393117456
95.5262576001775
95.5483052187157
95.5061256712172
95.4630984350481
95.5065315552282
95.5819504294066
95.6073011067334
95.5853337237606
95.5655649553285
95.5522316531904
95.5660460306358
95.5520302164064
95.5413898780263
95.5507080933092
95.576388187362
95.6649915404121
95.686110932371
95.6384406618684
95.6411703517354
95.6373596410522
95.6021672211777
95.63241609196
95.6369370119074
95.6181800342528
95.5998819539532
95.597254506079
95.6603081832805
95.6985572602906
95.7225328603353
95.773056272556
95.8052602986193
95.8031155889056
95.7129386425487
95.7391396836441
95.7534375957826
95.7177938465875
95.7370400995128
95.7380888598388
95.6765676390858
95.7400299306108
95.7782275860464
95.7677366364152
95.7795264710041
95.8445808499771
95.9062486425205
95.8388174828129
95.7835471859389
95.8121564670455
95.8111905220259
95.7788982921386
95.7727929810129
95.7890303612561
95.841620949229
95.8774654149487
95.8932142554782
95.8751874662294
95.7931165471175
95.7387171520384
95.7154598145113
95.713450428752
95.6883866617116
95.6597481520797
95.696333082364
95.7785864103248
95.777324338783
95.7146724317367
95.7308710670541
95.80015745084
95.7463544653045
95.6800887877152
95.7271326722565
95.7353466431757
95.699430564379
95.6956548496244
95.6577301657978
95.7139267369633
95.7673878278476
95.7371564728182
95.7359204154318
95.8091401159472
95.8047486961379
95.7722252275682
95.7506800537999
95.7003018130651
95.7361810363036
95.7833324225104
95.7946885996048
95.7975426168946
95.7619802047635
95.7673132278887
95.8327974908489
95.8657396300483
95.814759025956
95.8050592155525
95.8542972285917
95.870211957881
95.899543499271
95.9333017928276
95.9168506821243
95.9327347460086
95.9295528920815
95.9224094015489
95.9445890332466
95.9591532798826
95.9314031642312
95.9525045572611
96.0374339583418
96.0737035170462
96.0024542634292
95.9744384331686
95.9900742579342
96.0006530295053
95.9414402007407
95.8854427407175
95.9282557120781
96.0043997283687
96.02387760299
96.0169451786448
96.0372205662454
96.0751617982196
96.0738576601566
96.0830648338397
96.0762556558844
96.0542060405806
96.0673308370283
96.1207692435841
96.1201960659973
96.1142617243238
96.1052609705477
96.1566913698687
96.1741732139165
96.1322143087425
96.1854442438438
96.2216276822664
96.1249884962006
96.1329684387596
96.2699048727001
96.2838062283901
96.2338901788245
96.2696555202258
96.2523293202664
96.2079892333215
96.2111449465529
96.2470295918827
96.2626172538323
96.2621891205107
96.2093021782883
96.2225076214676
96.2613918067526
96.2844671202349
96.2910637285036
96.2936503019632
96.3137670034036
96.3260574038644
96.2991239322851
96.2815016413496
96.2746579434071
96.2888926599575
96.3394509166375
96.3779036396604
96.3569447949283
96.3258596938881
96.3276396586877
96.3895543975383
96.3956632246045
96.3690027007809
96.3442152951093
96.2971940066741
96.2775378233998
96.283461752777
96.3466474275584
96.4383973423039
96.4338884942605
96.4121814690165
96.4060787701024
96.4047343130378
96.4023023092865
96.3629706367804
96.3428506374828
96.3859368383177
96.3485438437932
96.3329873233304
96.3565035563433
96.3778908057604
96.3905785204523
96.4182133504285
96.4647273785947
96.4630266712428
96.4235076348321
96.4221894487591
96.4399702385414
96.4603655407438
96.4420481604196
96.395768699444
96.3939022610186
96.4517506501093
96.4689205809832
96.4645411106931
96.4822662684512
96.4823972960548
96.4895461138392
96.5441391489922
96.5599508598844
96.5541051343177
96.5405224697389
96.543710178541
96.5554935762314
96.5972333209876
96.6061945646177
96.5768863601763
96.5728145423874
96.5864477969271
96.5579005072378
96.5573280405673
96.6119416115839
96.612241058978
96.5632361550002
96.5532955029115
96.5442291399443
96.5995284614165
96.6430836492398
96.6287074288221
96.6258850449542
96.6194810252804
96.560153459288
96.6066320476962
96.6633227858892
96.675565436844
96.6435040216252
96.6048563969836
96.5677700752217
96.5663499870089
96.5915367151521
96.626755098604
96.6469995520461
96.6325940278179
96.5992167171191
96.6065885394162
96.6207699956911
96.6435838566307
96.6078639706967
96.6356061067404
96.6698429222701
96.6711954015351
96.651318626861
96.6562846047086
96.6972353530874
96.7254439897563
96.6746173690339
96.6544786752434
96.6665991372711
96.7210919444826
96.7456901866504
96.7563817100109
96.7963912681946
96.8033733452256
96.7431282675242
96.7345611156084
96.7528406275424
96.7588848849108
96.7443929233191
96.7338069072855
96.7682346886273
96.8351013958015
96.8561924801996
96.8300462199728
96.8366337847531
96.8523864772078
96.8547090346233
96.9473117225663
97.0081223707599
96.9061134396104
96.84033384958
96.9438176642942
96.9738444228402
96.9475775129831
96.9255971394623
96.8962359339252
96.9221929656321
97.0092023019269
97.0267411797911
96.9967850715023
96.9335164551004
96.9254396182962
96.9843952633537
97.0484205369502
96.9895805705919
96.942145147533
97.0321198869569
97.1887972385427
97.1686179998451
97.0059979410966
96.9293599419159
97.0349650892461
97.1186069278226
97.130399844994
97.1365374330332
97.1665463824983
97.1540905782844
97.1206668806324
97.0896605354385
97.0664944772446
97.0795088450128
97.1086415682645
97.1411423260262
97.195752054242
97.1510490883547
97.1141722252175
97.0985299595658
97.1459346204654
97.1641375117346
97.1571461568619
97.1883810323116
97.2224837374113
97.2160881094724
97.1809119832384
97.11444288973
97.1133139033188
97.2105198466731
97.2544874943662
97.159013526679
97.1485416388197
97.1567958381077
97.1920153928422
97.2504276042468
97.1748531999084
97.1228104956251
97.2341541889088
97.3409333076377
97.269401063442
97.0885017771898
97.1061753966489
97.1506328579427
97.1440907990198
97.1712881485625
97.1606831372803
97.1370754376728
97.2139823652078
97.2140643613619
97.1336924386462
97.1272816691701
97.1675315285581
97.1896674508978
97.2387383161772
97.1991227697855
97.1481547899828
97.1530900709353
97.1416798680079
97.1779522004985
97.2979334801807
97.2851808000001
97.2072278861016
97.1000701929301
97.072403733991
97.1696718015568
97.2216268046655
97.2414328524652
97.2312991424657
97.1665373004104
97.1707343146659
97.203362358346
97.1799908942968
97.1210059839464
97.1468360152948
97.2006732973459
97.1973267252136
97.1550821152717
97.1146193475539
97.0694635060421
97.0074752187965
96.9747775239777
96.9911318102302
96.9478763173908
96.8725858549523
96.7985920137102
96.829179696564
96.930092402235
96.9649259161778
97.0161724432828
97.1160354393631
97.1538745375918
97.1337139319173
97.120781070473
97.2530255376112
97.3476461558864
97.2886268653962
97.3159263307862
97.4402711429931
97.5114110557254
97.5287217902585
97.5382878553814
97.4848145473165
97.3749476018288
97.4644104574215
97.4905055866973
97.4270505577521
97.374344309776
97.2523273484648
97.1752529649683
97.2585474414562
97.3926807300304
97.4724798834893
97.4730659549219
97.485748002031
97.4355670057716
97.2931035568095
97.2162419608064
97.2271075548728
97.2801183222587
97.3427482049179
97.3186417776187
97.2554145705353
97.1900439814429
97.1973545283834
97.2356124926404
97.2544277277153
97.2598706885209
97.2923173762502
97.32080426293
97.3500839103815
97.3723679343542
97.3027205091997
97.3080819479797
97.3268441407518
97.2851437439342
97.3956648138327
97.4545378053931
97.413537896477
97.3791125752406
97.379590965412
97.4475022287439
97.5274886503589
97.5062006236028
97.4921134969214
97.5169598361003
97.5652334756756
97.5785352920667
97.6024220765055
97.688024640844
97.8005255390222
97.798043145166
97.7707760963656
97.7904298727847
97.9181665312747
98.0497732614672
97.9625060528018
97.8522880683138
97.9765890559309
98.1398246210209
98.2338870191805
98.0975634460243
97.9115838947618
97.9312162050524
98.0794538337556
98.1738798749796
98.1221729695058
98.0177606582469
98.0000454084933
98.1355149027828
98.258263299766
98.1149201719066
98.0459613349463
98.0992498401045
98.2003039904185
98.2654133078649
98.362877645693
98.4099580927551
98.4133919638353
98.410185855975
98.5201898381169
98.5598543430904
98.5547097532604
98.6491821332305
98.5594039868142
98.3174778211835
98.2894088960952
98.3716716649069
98.6079983394516
98.5917969505283
98.4977591049978
98.6078465776597
98.4976164605619
98.2181132577266
98.2223475876488
98.5721614658408
98.9711880327616
98.9707331886753
98.7785769371883
98.6828684955451
98.8475040057515
98.7096582294214
98.7354803486257
99.0274834798057
99.059471868226
99.234561137953
99.5521161425479
99.4067668123998
98.9439307052458
98.6200759493005
98.7971349520618
99.2284003380332
99.6025972363955
99.4389428375901
99.2735605625867
99.2494745305062
98.9955848237155
98.7652799681782
98.9691014168141
99.0033334200622
98.6540013175987
98.5144625688887
98.6129874103333
98.4726920327187
98.419503904491
98.4650459056291
98.5356865363042
98.5387564368242
98.4520997058403
98.268552138999
98.1501359421772
98.057965598155
97.9487764458996
98.0016228857712
98.1215664013671
98.1532513605869
98.0242921205092
97.8179118026196
97.8548369377603
97.9704821173123
97.9928448672422
98.0497127090049
98.1869720836957
98.022431499638
97.8208850371436
97.9476339008299
98.0552085041846
98.0276139050793
98.0259580335256
98.0158930833599
98.1037988911672
98.1857432714157
98.2027209614889
98.1237714982621
97.9804431430719
97.9668921436787
98.1152258592508
98.0981565697389
98.0570109366714
98.0638164920086
98.1593254899203
98.2625400985349
98.261801126483
98.179836959718
98.0818949139773
98.0802550315102
98.3355823139096
98.4291755343082
98.3481311404001
98.3738025208011
98.4276741566558
98.3406695119325
98.4174750923545
98.676924946784
98.781300658402
98.8529456738487
98.9499259561934
98.9538701852553
99.240958254387
99.2425794425322
98.9465370259462
99.1881144406199
99.5686481413177
99.3521567156441
99.2188790204594
99.3271384333939
99.2432028657985
98.8376315909871
98.7570702844414
98.6968550891102
98.675543085139
99.0089994485841
99.0492487530172
98.7225826636814
98.7703349003196
98.730047948032
98.5974260110486
98.5216621233857
98.63053250582
98.963910209788
99.1266109729604
98.8704094459257
98.783310880756
98.8261844291422
98.7752208716381
98.8069920282456
98.8741815942366
98.8718337608616
98.9553191447519
98.8523834982293
98.7975180815674
98.9178213542623
99.1534375658391
99.2951994782434
99.1777599720876
98.9600631125249
98.8283120717576
98.7189607380661
98.6922932659256
98.6896735744677
98.8125446422074
98.8039976759003
98.7690486484344
98.7569767304801
98.5527697415469
98.2801240399567
98.2980494746951
98.3901306061827
98.3688853190497
98.297229797814
98.3082135532285
98.2309181434532
98.2429546061755
98.3086457318378
98.3170364018101
98.2602511101301
98.1541430962233
98.1017066757112
98.1985604352027
98.2483218197282
98.1625145367741
98.0094496981251
97.968175913649
98.0692329014008
98.1726586336708
98.1465654924299
98.1071544167351
98.0738189289952
98.0256890561229
98.0195845062975
98.0116744384639
97.9329640542644
97.9250136113844
98.0307451342701
98.1142015075863
98.0211020318089
97.9410806178603
97.8439911035733
97.8503747341949
97.9228181198318
97.9322344311307
97.9114124033897
97.9451614103411
97.942248326248
97.8954957421354
97.8871404597088
97.9427983405848
97.9590610482694
97.9023468137948
97.8797341575755
97.9164281886521
97.8537354104665
97.7745330855287
97.8240850252051
97.9578616387275
97.9413069501689
97.8933191734085
97.8481259195476
97.860602705007
97.898908007032
97.9380477640606
97.8933406973303
97.7987475988777
97.8011793341194
97.8129066610429
97.8361598094649
97.8619213012166
97.8744629403494
97.885292791058
97.7913359338058
97.8275652775097
97.9103447393529
97.7983797444862
97.7512749427466
97.7697807166586
97.8167681064805
97.8143908803125
97.7896780502284
97.8126750394931
97.7574710911923
97.6857448773324
97.7448617971627
97.8208943892903
97.7896933683574
97.727833553782
97.6769155013954
97.664115422677
97.6812449395542
97.703250458043
97.6405073995271
97.5748566752024
97.6470521842677
97.672830743775
97.6032399607751
97.547513992724
97.5351554893456
97.486108659801
97.5276339524612
97.5571472477533
97.5783241519244
97.3991863751178
97.2981575680179
97.2949601916935
97.1284065119084
96.8944395895697
96.6968427582254
96.803575971656
97.0961238165405
97.2287493135731
97.2533497076675
97.3731518640788
97.3396045820931
97.2402516855752
97.1830191386916
97.1835804397241
97.2373200963011
97.2410713717593
97.1887941490785
97.1101818735083
97.1825494623474
97.1090689561419
96.8645770797698
96.868843180569
96.8048637806934
96.8204704604794
96.829665437034
96.7703869950741
96.677931802533
96.6308382962993
96.3408207156753
96.0577511337085
95.976386970765
95.9312915314331
95.8502305027097
95.7381826358466
95.596690622722
95.3341316739815
95.2127926333486
95.081136075583
94.5874897955046
94.5991983229888
94.3994878113183
94.2524753473704
94.2532589519152
94.1338284094813
94.0046710110773
93.8991200711112
93.5026696190156
93.2346387173179
93.3589612976078
93.3186957750677
93.292124664951
93.0433369439169
92.9121812589016
92.9122756024599
92.7465934849085
92.618606403513
92.673614645777
92.6458056147299
92.4882743240779
92.4776987627233
92.5354569380657
92.5576573510374
92.5108273016178
92.0651385006044
92.0815899486868
92.2957304984234
92.175035180765
92.0574828058987
92.1557325543699
92.1985119956544
92.1938027939056
92.2114430911492
92.0213842541249
91.8948556226139
92.0437303120475
92.1072480535563
92.0770281501431
92.0056562927649
92.0173238109837
91.967248474677
92.0119935614144
92.1155446083365
92.0540343799532
91.8819160169274
91.9599931727019
92.036465745835
92.0353252998987
92.0046293880174
91.996549083718
91.9741047332498
91.9625856263426
91.9655054095339
91.9525975912435
91.9385612637553
91.8723340061025
91.832441823376
91.8425685426544
91.8637022711251
91.8583105580523
91.8319810993097
91.7953393538066
91.7868280540845
91.768059688338
91.7701583985986
91.6171371132954
91.5490919321998
91.6568474449527
91.6358194970103
91.5105504040337
91.5705076067059
91.6193280860098
91.6431084426597
91.6644006882289
91.2954109626549
90.9901767580129
91.2925108885756
91.3489512196818
91.3987312134401
91.4272095756475
91.3893558562208
91.4120478060085
91.2791436939336
91.1494312852886
90.9368096984525
90.756188357245
90.8902440281828
91.0199735603252
90.8443173045657
90.8027801811486
90.836571533278
90.7459825192198
90.6232596111741
90.5672695197717
90.4392047733861
90.1813683953626
90.2343955971078
90.1606871273057
90.1376657085661
90.1736515533688
90.1065767585246
90.0238550454312
89.7333506525633
89.5068894410524
89.7358954171262
89.8679074589297
89.8374446769564
89.7286239286051
89.5955981538418
89.6159920790195
89.6789881017707
89.5198616312854
89.3812587926791
89.4189363299937
89.4779083901417
89.5226886130012
89.4900086757497
89.4733650454772
89.4221212071722
89.2622018551906
89.1413963583925
88.9677073893678
89.0096506017129
89.0467315522105
88.9482213400016
88.7454706274502
88.6657905929825
88.6262351920819
88.4161690244003
87.9911644639911
87.737020332151
87.7580853153222
87.5432074126548
87.2140943334017
86.7370334389688
86.3196378537403
85.9636322837492
85.5903720050712
85.1957828189422
84.795168536995
84.0991045805546
83.5514497945151
83.3166375167094
83.1344770467165
82.9684955335712
82.7049727510884
82.3161696726827
81.8105927850253
81.4007155193135
80.8259055122919
80.1558782544767
79.8540322766083
79.535220833291
79.149311849909
78.7144711354566
78.3019400388447
77.867875499357
77.3908196198252
76.9871656221643
76.6698164194358
76.1798780374417
75.737487927008
75.341983031181
74.8914438592817
74.6122730241093
74.3493794257249
73.93757705226
73.4670289743391
73.1745934362755
72.8969778525769
72.6161714719782
72.4195421398907
72.2981325534841
72.2663942199006
72.3918889656955
72.7438722806041
73.0925677090543
73.4369410108905
73.7898868479549
74.0782073082709
74.3283898455559
74.6885762079417
75.055230234656
75.3789962272629
75.6903918595946
76.0460621183256
76.4348243132085
76.8709704243517
77.3409564311761
77.825800220106
78.3063539616146
78.7609374389553
79.1765295530843
79.6590028563748
80.1443236278903
80.574490989411
80.9563738145458
81.3221109439826
81.6875201803864
82.0515971639047
82.3859827554656
82.7113537510862
83.0267782309046
83.3242715119412
83.6071092007479
83.8843425755995
84.1520173546211
84.4270615084993
84.6823412250813
84.9308749980725
85.1772264627162
85.4089751630236
85.6284487238413
85.8559495307498
86.0774546269377
86.2762804057799
86.4595282944757
86.6569919505523
86.8359252086609
86.9992409534375
87.1485034770685
87.3014035924893
87.4445399583609
87.5898416298791
87.7339478726744
87.881248333929
88.0336433912236
88.1852622994603
88.2985789998646
88.4008797300961
88.5258988153905
88.6447819175191
88.7430960787976
88.8464845814458
88.9269740680215
89.0115724369502
89.1140410398769
89.1882699368016
89.2531441487088
89.3493677561366
89.4454120769204
89.5149003121444
89.5658775693465
89.6388301751055
89.7309877417208
89.8209799023862
89.9159298451901
89.99883477596
90.0620814494265
90.1340376099235
90.1953208913675
90.2324755137172
90.2726631123093
90.3201210573014
90.3418486282942
90.3474420601649
90.336057519458
90.3149914379232
90.2860501178709
90.2474691157615
90.1951853493487
90.1061641614827
89.973329655203
89.8232444635531
89.6609819408626
89.4914691380018
89.285115165531
89.0317329295049
88.7790414124022
88.5560938855527
88.3192644725178
88.0718788416008
87.8518451889444
87.6322897106329
87.4066647440546
87.2175508099038
87.0488194713103
86.867840431826
86.6808330197276
86.5136479598888
86.3128962664712
86.0938481967147
85.8995503793545
85.6706385985032
85.3950612314347
85.1149384836758
84.8180351890984
84.5214943606247
84.2058401918094
83.8653874063649
83.5129738353891
83.1736664977099
82.8378467070401
82.5597152397881
82.2948735050206
82.0041876576863
81.6966817745683
81.3957922743607
81.0943336063674
80.7592168023747
80.3958278391266
80.032638584119
79.6438875263249
79.2288014269758
78.8098279670367
78.3939387723696
77.9746589927716
77.6214910619318
77.3537516357538
77.1652625651227
76.9960988115134
76.8542758559401
76.7590734489649
76.7010586631072
76.6145800585248
76.5658490298884
76.6174746714447
76.7628634534154
76.9559476727077
77.2349216762726
77.5905166831051
77.9494182429334
78.3112197681554
78.7104200457846
79.1227687300264
79.5715469559328
80.0606502587718
80.578465580847
81.0902751436379
81.5917458352816
82.0911732965451
82.5814709742369
83.0542755507024
83.4990016679668
83.920867194611
84.3476820286618
84.7566989749349
85.1484398320084
85.4918263976356
85.7986981705506
86.0816872697115
86.3115867975309
86.4981729898855
86.6853197598299
86.8439617864016
86.9970022753529
87.1468850578205
87.2963466947781
87.4525236974965
87.6304378797464
87.837333321335
88.0494477255633
88.2207441792775
88.3835527363069
88.5438280459481
88.6756752732751
88.8162504414973
88.9486960872851
89.0579411310052
89.1727736358877
89.2724723831832
89.3693947493467
89.4649222926274
89.5720503831918
89.6541354863948
89.7274521186334
89.8151977852596
89.9020862531697
89.9600067587731
90.0366103054997
90.1115930686539
90.1757431820751
90.2141480500534
90.2374660734728
90.2666024133127
90.284818389187
90.2627733446924
90.1771833009707
90.0581298157199
90.0000389161959
90.0567592533911
90.2177045958678
90.3368990007826
90.4165106121952
90.6030492170887
90.8478008096091
91.0078741575959
91.1167476553241
91.2319017293096
91.3609724153705
91.4576084661367
91.531183810131
91.5946641327103
91.6763435440466
91.7473691132742
91.8073996486224
91.8832914090857
91.9459047078652
91.9608323127095
91.9794679109046
92.0408277183399
92.1091047021323
92.1289602778082
92.1451149154351
92.1812717561584
92.2060859248322
92.2419347476428
92.2946887391748
92.2893326964361
92.2688196075012
92.3023113737927
92.3475930808738
92.3638602670763
92.3687525537929
92.3967763524808
92.4241723769718
92.4050503401389
92.3960240406439
92.432187814454
92.4543536836216
92.4692666824731
92.5213377490329
92.5204177196397
92.5121782021712
92.5416734445894
92.5740907040105
92.5667897343884
92.5425370961536
92.5408335051706
92.583604287057
92.6002482408829
92.5496286821219
92.4931299790828
92.4225125214422
92.3349091686515
92.2466039082963
92.1158863715516
91.9498186971373
91.7356709635053
91.4997756153095
91.2377508394868
90.9744942094797
90.7003943199311
90.4012639529531
90.1220717337224
89.9203959224938
89.7543479107806
89.6536653715131
89.6768504645161
89.7542462139214
89.8544637681281
90.0511223973005
90.3203102729117
90.5179110535903
90.6541370193273
90.7599142531066
90.7943422218208
90.7927818818469
90.7190084394271
90.6171479237827
90.5295891230504
90.4160244784211
90.1878785127002
89.8198528420223
89.5040832258518
89.3158873046237
88.7449288408941
87.141819038335
85.3454273069756
85.4210367477684
87.2778287987505
89.1338841194182
90.269000270722
90.8638334863444
91.1431164595391
91.2620901896669
91.3021090713526
91.3832293895106
91.4717770393504
91.5457925123459
91.615447272419
91.6340199011901
91.6004714709034
91.5959195888239
91.62012633193
91.5941102043877
91.587681069416
91.5969345406788
91.5821360442568
91.6011336676239
91.6025884552617
91.6163533103103
91.6806856856095
91.6729953579799
91.6154096701268
91.5936050523764
91.5729988191641
91.5869663517998
91.5872391934247
91.593554430687
91.5808040365526
91.5787235751547
91.5842979684874
91.6162067314729
91.6108091688821
91.550210719964
91.473912764051
91.4571933406027
91.4612746560014
91.471533742939
91.4663358362788
91.4731996706156
91.4535876350047
91.4166350202843
91.4145199769238
91.412823674705
91.3693261895646
91.2958695200871
91.2355091755348
91.1683805609563
91.1375027700957
91.1481328562988
91.154513347354
91.1237534580708
91.0382267361434
90.9661274437764
90.8427461868422
90.7092139448231
90.5764800618629
90.4740570011371
90.3688248688837
90.2567527126812
90.1808561924878
90.1101010118253
89.9781012295351
89.8442017468584
89.7519693290513
89.7443583910689
89.7440985159261
89.694435581496
89.6695589886947
89.7148768348724
89.6913446830491
89.6531951111684
89.6623664034079
89.7427320062308
89.7564118081271
89.772430274741
89.8663702491448
89.9252345713252
89.8982512627353
89.9653677525464
89.9815732372957
90.0746348349728
90.1484553390692
90.1350595460015
90.1495402253591
90.1150392923647
90.041730506034
89.9693648024828
89.9253408873689
89.9153484880663
89.8504402687655
