1798
3999.43349933624
650.420452594757
1
128
4
97.9887055293853
97.9362490427728
97.9009985547881
97.9623806523546
98.0255703921172
98.0756895563275
98.0369461458619
98.0994775312221
98.1642993280806
98.144593271092
98.0250421930324
97.9652591500403
97.9754340295494
97.959136517997
97.9734875334749
97.9606742389
97.9753561912107
98.0717610196749
98.0446606582117
97.9560958801327
97.9933431598933
98.0744572728449
98.0166819231044
98.0441918512549
98.0704668578274
98.0140944017292
97.9875531563748
98.0194856031928
98.0166589371648
97.9973368767137
98.0453570316857
98.0844404354484
98.073530004373
98.1034000732626
98.0835982787206
98.0176177732838
97.9581906844638
98.0543166026949
98.1121841854628
98.0485158167084
98.0185662875014
98.0522075755314
98.0515698616108
97.9745733316589
98.0324908071233
98.0910996295048
98.0879572096206
98.0926037337907
98.0556795312189
98.0254223817782
98.0851114178775
98.0949050695502
98.0885657572545
98.1308073061858
98.0373409066373
98.0083008364006
97.9896944560499
97.9555191309062
98.0143613886126
98.0565729498233
98.0226955096978
98.04302662824
98.0681204585179
98.0076186416789
97.9792691102581
98.0074416806704
98.0112111668589
98.0914464069218
98.082978726962
98.0847384703484
98.06748338705
98.0970293064012
98.1707685137661
98.1087142548437
98.0656556134286
98.1223044176486
97.9562437384716
97.7525475642278
97.841613429411
98.1409231591558
98.140208717657
98.077042110854
98.0805258135993
98.0681411979248
98.0332345706191
97.9757494041668
98.0240847653293
98.168058585833
98.1768878772078
98.1132193038297
98.2029621647335
98.1484548519351
97.979452882044
98.0209783268956
97.9733193805891
98.0171810180664
98.1450658666845
98.0633008137496
97.9846652967002
98.0964502833087
98.0696120920435
97.9473585826836
97.9417198296736
98.0914118450142
98.0649812586068
97.930070357376
97.9937251981741
98.1440627042743
98.1102818978935
98.0603928222513
98.0879843793812
98.1261230929568
98.107556726216
98.0916348502526
98.0482355076863
98.0372959815232
98.0207819155682
98.08396417254
98.1116897824302
98.0520001842527
98.05119646198
98.0342635774425
98.03141744291
98.1238590200108
98.1475653354853
98.1120710814927
98.1520486226396
98.0713089707875
98.0317160887107
98.0543334109612
97.9867817818981
97.9539020823488
97.9072965336491
97.825962426241
97.9081445101611
97.978034235943
98.049638712296
98.2343817889555
98.1965462940862
98.0072135770251
97.9657102311112
98.0714296699234
98.0366310177211
98.0496861770821
98.1742683528975
98.145971782386
98.0322295288912
98.010496965842
98.0810038287783
98.1636254208899
98.057442554964
98.0171567800033
98.0779314375495
98.1063125753845
98.1091028706314
98.1318382290317
98.0927108393676
98.1497078146702
98.1520726357079
98.1753795681321
98.1729763292073
98.132319826858
98.1105119189481
97.9495659312392
97.8255156981651
97.9637887839096
98.0233815793672
98.0935385071952
98.1886147323539
98.108864317352
98.0458572274507
98.1180203092619
97.9881148231841
97.89448557812
97.9659021431471
97.9178355126833
97.9342841607074
98.0880884063182
98.1349913229298
98.0377261016616
97.9646506272859
97.9296381575907
97.9585615485685
97.964462511557
97.8913193597841
97.8593680119155
97.818481507701
97.9218282924993
98.04946892293
98.1066634269836
98.0362903299388
97.9340999660987
97.8338305124527
97.84680489195
97.930240648995
97.9965690106851
97.8898943960679
97.7739247839955
97.7858856235674
97.9256549801469
97.9212803021222
97.8437897297395
97.8068415940293
97.5726878946643
97.5557483608137
97.7347560442497
97.6711925737199
97.5976153850063
97.5885476370714
97.582934914406
97.5805110286056
97.6181862975157
97.6907310436374
97.6748385594574
97.4652031405413
97.3440590246072
97.3548979296042
97.3975821328695
97.3328094479024
97.2739230627091
97.2865787968751
97.467167657064
97.4293223438662
97.2636520596905
97.1971222726726
97.2330823355137
97.2565725032933
97.0849559996416
97.192506095973
97.3314935424419
97.138954168602
97.0200255033044
97.0592938802943
97.0001528950705
96.9561319435213
97.0741590943415
97.0186628378604
96.9620470459308
96.9505893787893
96.9058520703753
96.9030826765115
96.796997034111
96.6633397078399
96.7928663387244
96.8144207347997
96.761541106711
96.7503918768177
96.7977656403561
96.7655292077983
96.7713435321107
96.693731741683
96.5711554683751
96.5798102362019
96.4836370145775
96.3976337789237
96.3618668337818
96.3984743697913
96.5370167638972
96.5595115106573
96.4659303255526
96.3161620307943
96.2872523057848
96.4309210031256
96.459139924273
96.3050380051453
96.2752237716305
96.3839087876069
96.3538655480913
96.1308960268236
96.0797558528769
96.1051547121832
96.1241314632302
96.1119797457689
96.101320364858
96.0968016221684
96.0162651653081
96.0328029632542
96.0544533961003
96.0423475845419
96.012504846464
96.0197059299904
96.0056467038665
95.937036770858
95.9242698959106
95.8251802522247
95.763617039531
95.8289385313785
95.8490342328918
95.7465725213514
95.5869286178273
95.5562856021456
95.68189917584
95.7842230513851
95.7542385136014
95.7085280543434
95.6470368288914
95.5792312432872
95.5066834198517
95.4578612174572
95.4253641878651
95.4618135827351
95.4419891624561
95.3852522235722
95.3365352582622
95.3843331845064
95.4925002856262
95.3827154187605
95.3351913872225
95.3128684590503
95.1869054254879
95.1854270684692
95.3167741543307
95.3035596752444
95.2535567032835
95.2877525859255
95.3032059776321
95.1778079236588
95.0735144761498
95.121537615439
95.1876373804326
95.1406926367389
95.0932153813564
95.0546793884219
95.0538937471092
94.9992667950364
94.9785039186287
94.9686709036122
95.0084007726087
94.9696351931302
94.9506216052444
95.0202526034306
95.0425986792056
94.9918133026001
94.8893449193317
94.8091970574156
94.9049603795053
94.8935231420246
94.7483101317703
94.7591058888551
94.8287391918901
94.8519012321015
94.8439762750758
94.7794125078409
94.793940711988
94.8193394757072
94.8090757380498
94.7903229924992
94.7903805383584
94.789899549098
94.8290211742927
94.7669985922234
94.723696924344
94.7002602997657
94.7009543613106
94.7079345944887
94.713397052097
94.7243196412661
94.7447055111235
94.7773651943333
94.7764870553587
94.7150548221956
94.6955385853437
94.6836799391394
94.7058859989749
94.6662930694464
94.741062484111
94.7475796164859
94.7594081005747
94.7830872572142
94.7813085826749
94.7280904785994
94.7245738374377
94.8406170793155
94.9050742893977
94.7833984806404
94.6979521949804
94.7215736651707
94.7268177110915
94.7306949416121
94.8156232029922
94.8472958490069
94.7718455312418
94.746943598298
94.741235731281
94.6546067206954
94.6704661432163
94.7765217345415
94.8848016025927
94.8542387883845
94.7815200530108
94.7640682039511
94.8280084817099
94.881297162377
94.8581261440451
94.7966519177785
94.8094186586132
94.7785261108959
94.7995835336191
94.8758449503083
94.9405052861252
94.8949990687537
94.8416803072868
94.8746603789659
94.9627739626482
94.8840599047766
94.8724999439264
94.8910713014322
94.8666698333706
94.9095257255262
95.0066434503393
94.9400003095626
94.8531507597011
94.9136392017103
95.0021419398956
94.9604059359893
95.0090858235909
95.0770408405851
95.1123588565789
95.1060762015248
95.0319767393257
95.0421218984279
95.1174703065138
95.0382002186279
94.9711780584074
95.0312354255287
95.1362209182616
95.1464531168957
95.2032253136946
95.1718351144284
95.1188197091556
95.1274591340659
95.1996779857026
95.2331909587492
95.1945200725997
95.189727196211
95.2348251974175
95.3014813432942
95.2885577234346
95.268654774749
95.3030305121821
95.2528516538756
95.2946845324554
95.304813315055
95.3430314334789
95.3142987103848
95.3074524698115
95.4011878168322
95.5109918458079
95.4833609675749
95.3990274070301
95.348670175804
95.4349548595257
95.4302057986943
95.4528896596395
95.5046293617665
95.523179186543
95.5253141274002
95.5105554908731
95.4984631058138
95.5027594589899
95.5909466767324
95.631982427964
95.5626835031078
95.5843700196275
95.6444631284758
95.63720521777
95.5146265729774
95.4954031428436
95.5773330886068
95.7501867279008
95.8390056711977
95.8596228207709
95.7684303592473
95.6687146161846
95.6668803750761
95.7971426634371
95.8582936577637
95.7797171798329
95.8059308081142
95.8309206883183
95.7730447719458
95.84793185653
95.8933555544301
95.8015207569133
95.748141399149
95.7437419296758
95.7940742036207
95.8355533218252
95.8098786574086
95.9299062121417
96.0559511072086
96.0172518149403
95.9614776688823
95.9510291718547
95.9604647565401
96.0201927432666
96.032145109298
96.0035040375901
96.0153396425843
96.0243592757473
96.0219258514268
96.0032022268642
96.0385133507446
96.0645963417419
96.0813788801525
96.146170787929
96.1174534534859
95.9932508624317
96.0391950553087
96.1714520720163
96.2034950978757
96.1815375114487
96.1523251398812
96.1726756384017
96.2127233032288
96.1968602262995
96.1925433187136
96.2688843278167
96.3281526576234
96.2764109107221
96.2534547757683
96.2555064603142
96.2402320174465
96.2364778609568
96.2514864090121
96.2412397240566
96.2039810520159
96.262489817662
96.2993916481501
96.4186223725782
96.5332668841084
96.4816791468401
96.3638800717167
96.3144224596585
96.3355818546165
96.338658186348
96.3766723695826
96.3902036507041
96.3461589993832
96.3636968111475
96.484849742273
96.5170262302409
96.4595169687251
96.3850319850425
96.4217892777034
96.4268426868631
96.4319877217015
96.5072616831079
96.5253265946423
96.4681264408894
96.4297675544196
96.4756684323157
96.4079415534805
96.358034986664
96.4139755476634
96.4705158733889
96.4981725864755
96.4511781039775
96.3780776873803
96.3799257846747
96.3986845159666
96.429071423525
96.5050119765386
96.5579301066549
96.5621571279552
96.5904509943536
96.5793545694088
96.5539725423899
96.5604148987731
96.5313916759651
96.5234054378646
96.5451766716023
96.5337975645255
96.5884034511944
96.7046353932961
96.7621635983317
96.7951359626931
96.8523073727668
96.8212977634094
96.7938908064702
96.8026505967413
96.7956375133512
96.7907249740266
96.8461662552869
96.8781545683753
96.8891929997784
96.8698794920406
96.8332444871237
96.7858994543895
96.7703749128084
96.7942842156175
96.8264544730132
96.8131847264406
96.8029853031786
96.8837566429285
96.9583446462995
96.9937176197513
96.9756758327465
96.9130470453593
96.8328825211243
96.7432719600944
96.7820693636633
96.8455640205578
96.9308204593371
96.9772849596296
96.9662066380854
96.9622665960175
96.9709129932747
96.9678798988875
96.9969163512263
97.0436127189234
97.003481236875
96.9364716027457
97.0022298142378
97.1170844860965
97.1581566044947
97.1193547030762
97.1267232663923
97.1701342173516
97.1202166663183
97.0529813711281
97.0792301767355
97.1668009328969
97.1270161189019
97.1275634410325
97.1920299062493
97.1584892295595
97.1520047412375
97.1940766896052
97.1831489447027
97.1520927721463
97.1212600245094
97.1171233434518
97.1742516350241
97.1940645471331
97.152383488746
97.1045221952241
97.1157873815727
97.175854568986
97.1973450409246
97.1639642225619
97.1375354678519
97.1217234488894
97.127856945057
97.2039314820561
97.2202298425525
97.1657080616232
97.1839962093463
97.248404700118
97.2642685923385
97.2460761265288
97.1995801255174
97.1563404866562
97.1247453985071
97.0955571791322
97.0958648988211
97.1100875778827
97.1572897044324
97.1508324498673
97.14907793449
97.1598951284801
97.1965048595072
97.2629331721813
97.2643736363085
97.2033764366526
97.1483663267641
97.1779051474988
97.2378413179486
97.2392795337379
97.2412982332664
97.2410720201934
97.2029834790071
97.2557917916666
97.2723682577471
97.2132935130395
97.2020836276328
97.2087113589831
97.1952644377834
97.1713723290751
97.1372354506675
97.0902214636381
97.075489965275
97.1308480148116
97.2630606478091
97.2887910152337
97.2664057942915
97.2951227767739
97.3299189438977
97.392224029418
97.4123568313817
97.3996309254123
97.3832238531829
97.4020458766381
97.4458197723515
97.4869741894024
97.5026184650763
97.5186153640161
97.5028261813834
97.4949877453776
97.5063129396277
97.5276295265565
97.5310565032215
97.5221232490503
97.5686414699014
97.6057600697186
97.5901459320947
97.5345771560216
97.5263098143809
97.5844756992897
97.6448223772257
97.6367643555429
97.6178413627313
97.6050701741366
97.6017764108536
97.6257767135758
97.63814399759
97.6272171146892
97.6133858794173
97.6464288262983
97.6623099511403
97.6517156357983
97.6498297588927
97.5923817536384
97.5526810280924
97.5838651524464
97.6556302491891
97.6893531206704
97.6360337831646
97.612724239496
97.6545812231782
97.6647169160048
97.6392316406365
97.7157230243619
97.7500699619424
97.7284774915785
97.7368717178643
97.817523345514
97.8388758526729
97.8276368779087
97.8201954606814
97.775542395931
97.7653690021957
97.7160970133166
97.7006795381251
97.717022866193
97.8186124706465
97.9530248558785
97.9738812566052
97.9225702373974
97.8689837674549
97.8421584930676
97.8754739675669
97.9228988848473
98.0324581877633
98.0627122863611
98.0003004581496
97.9967216713823
97.9985029232991
98.0041090528166
98.0241678086453
98.0561206994179
98.1170802789975
98.0801390696172
98.0392352589128
98.0744119905578
98.1125659584028
98.0535553135725
98.044182583948
98.1345001279949
98.1581389256285
98.0933396314727
98.1336412628457
98.1682856238731
98.0737038931329
98.0759562428245
98.2194239924839
98.3301841463091
98.2561609888027
98.1602272303322
98.0579654985788
98.0850675944438
98.1892385325231
98.1460799792977
98.1457314673561
98.1351224074267
98.1103393468427
98.1262885315482
98.1608311446929
98.2998957258827
98.2713183158666
98.129760852666
98.1348116506783
98.2424952497445
98.2661716058827
98.2437366184779
98.2716861194897
98.2542873496914
98.2204383851166
98.2302123657547
98.255784411328
98.3103257651985
98.3300668260152
98.2575704483669
98.2053256201139
98.1694766219165
98.116940771595
98.1304561944264
98.1688787789536
98.1865394148629
98.0806598450369
98.0047705220733
98.0568417137399
98.1705733643157
98.1919670899214
98.1623952367875
98.1333275787102
98.0773471475108
98.0738740848798
98.1058477834485
98.1624373317754
98.1507047336452
98.0980252031914
98.122618275266
98.1349011026618
98.1395435887426
98.1100056571517
98.1513772553052
98.1370096595683
98.0973206403452
98.1967165168479
98.1600707249347
98.0914085857684
98.1201951757321
98.1328019491684
98.0692950115176
98.0528876410861
98.1536284613529
98.1915742938733
98.166843280478
98.1435149275115
98.0702065336489
98.0504687941118
98.0577487261491
97.9855817974146
97.9119004276167
97.8667322433558
97.8410184971538
97.8180627037263
97.8058331042706
97.852884938539
97.9215313658386
97.9549192594013
97.9399916105047
97.9069009939181
97.8998547572735
97.8742831225676
97.7853757532399
97.6845694370113
97.5746806976427
97.3588617692673
97.0166164685328
96.8644355768649
96.97137014146
97.1249459363068
97.2143171045027
97.2681550159088
97.3766529765056
97.5440218282725
97.7071962645261
97.8184554871961
97.9170722063606
98.0356453020681
98.112576787457
98.1946372132162
98.2092533195254
98.2803092869889
98.3848530912575
98.3201024548069
98.2860666810597
98.3409561555025
98.4013847840179
98.4135753364742
98.4093827181874
98.3759005141466
98.3133484584351
98.2888654553012
98.2714654299656
98.3052214093566
98.3135155392532
98.2949177865453
98.3148252778322
98.2982609293707
98.3638582571598
98.3407805143656
98.2885280670691
98.3120064681568
98.3031129548554
98.3088921684514
98.3249302951249
98.2292374000191
98.2048455960892
98.2966911535178
98.3044989758099
98.2787363307102
98.2636058781513
98.29318842499
98.3796257045996
98.3846002501879
98.4187173384264
98.4846702200086
98.4268252380887
98.3321748698436
98.3842184059374
98.3844110994898
98.3794715777233
98.5222777961899
98.5766727863201
98.5521713580742
98.6442263757855
98.648734735001
98.6146596000481
98.6738143066975
98.5887917447084
98.6316415621563
98.7538338640805
98.8567359085134
98.9659335911836
98.8752479865349
98.798252014005
98.860811363384
99.0397736819054
99.3079625847002
99.3246181753703
99.2341795431556
99.229314064142
99.2565662665964
99.2623813996292
99.1692862866911
99.1257189302425
99.3328141758742
99.4768782486563
99.4738600145282
99.3528126900064
99.2822017843359
99.3703305773826
99.4516882327317
99.6080404422235
99.5338364249412
99.4041582853586
99.6948137374191
99.7713405004923
99.5498223869467
99.5840314777778
99.6198016071355
99.703547188272
99.9041276796518
99.9229240467334
99.8951569880601
99.9711408735556
99.8645169166279
99.7939350728721
99.7358811292457
99.7061563553734
99.8418835556803
100.198281187486
100.120887288926
99.8030064022313
99.9926974642169
100.190086890782
100.041433614644
99.8726418909791
99.9417816984739
100.179850020799
100.063893193145
100.068118683018
100.37982782695
100.067152820099
99.6968590893148
99.815967140076
99.9174821096253
100.199935285873
100.228571643877
100.528476630158
100.806265732188
100.334458649325
100.002349470743
100.39902307235
100.605534721515
100.531374841562
100.16063526029
100.001674243138
99.9372793312643
100.038401038764
100.090426537901
100.129536820922
99.6975305144557
99.4303770686612
99.4201464551183
99.2711002561142
99.202990990437
99.2254852197438
99.3840178428183
99.4384040064066
99.1469512054454
99.0949092132824
99.2226903366301
99.0318646173057
98.7331172512648
98.8214578376146
98.9649072746409
98.9362803327118
98.7766248107128
98.7017737784447
98.7533936484753
98.8486592236723
98.8768747901707
98.6622622790541
98.5377369817523
98.7234332773077
98.6961637985858
98.6523217423857
98.8151810188129
98.7944479799714
98.6579611455765
98.6146555808579
98.6693925235005
98.7144257937789
98.7982544978874
99.0057011475477
98.8091503226263
98.6281988709849
98.83377630791
98.9727888721435
98.8814209346534
98.8238700853646
98.9521478380287
98.9758378251883
98.9909076891865
99.1242663242204
99.0543953660879
98.9008857622386
98.7815516485407
98.9410071699217
99.264341468558
99.3808178414582
99.3189009898607
99.4207043557253
99.6899370368677
99.635766982642
99.4900880338147
99.5963618428306
99.7106609736395
99.7345934928278
99.8024866876609
100.026059485913
100.235260389542
100.11502870705
100.086382530719
100.017196039521
99.2634848976569
99.1617938498273
99.7625099106226
100.081277209429
99.9794188380302
99.6619160041912
99.6189279545518
99.6740444110247
99.7224899208651
99.8877652997376
99.8463025280616
99.8407476615327
99.6779508169217
99.5906079796592
100.029389897436
100.222293473131
100.155536776005
99.6792012486614
99.4845371755489
99.7147992130857
99.8994184713937
100.028354539342
99.9679104477075
99.7691541783406
99.8449531189398
100.047965908894
100.12294985864
100.065863660599
99.784960377267
99.8306959713376
99.7791094663708
99.8143564012857
99.913803039592
99.5630249645206
99.2895100291663
99.381544028227
99.427690938311
99.3669746511537
99.5588730167717
99.7787870407919
99.459981618887
99.3283837033862
99.4157812511902
99.3071747415086
99.3161617256493
99.3192602162077
99.2863704211427
99.1897149765668
99.1435955107016
99.2000093136814
99.1969357150621
99.2566310553262
99.2925996217174
99.1818937645116
99.0936783173135
98.9947851488828
99.031016139564
99.072215294319
99.0273832996927
99.0670713506393
98.9316259351849
98.8522849611296
98.8942913115763
98.9417387972498
98.8940766886998
98.8793168194835
98.8131965360118
98.8133301378508
98.9362452572541
98.9502691604897
98.91922352001
98.9079675366528
98.7710533197336
98.8169237991307
98.9937618035615
98.9171877150208
98.8299872170439
98.8272722156604
98.7424153059196
98.7391515183896
98.7945325685534
98.7692833225441
98.749774745287
98.6909904216613
98.7739472565762
98.9484728752502
98.8499722466312
98.7987962223002
98.856675682723
98.8141039168315
98.8095657737543
98.851903195761
98.7814210430106
98.7885444049934
98.8969998881729
98.8576147534729
98.7769336249876
98.7787168097807
98.8198018845454
98.8431153933555
98.786757577656
98.7723160410932
98.8017141949913
98.7945497103442
98.7394207762471
98.7221371993337
98.7401052075763
98.7606688145752
98.8088705628667
98.7108770063339
98.6509368092638
98.7142577970571
98.7498511101052
98.7515879219489
98.7077061200635
98.7041618849815
98.7327567799985
98.7200736894537
98.6977595214462
98.6540436864935
98.6360962229444
98.6644966466382
98.6944766068063
98.6786452625627
98.5604930198756
98.4962461087485
98.5515384506314
98.5856722994272
98.5563958423991
98.5460375048558
98.5716935436813
98.5075215756669
98.4996515144839
98.5300592670595
98.4953496584061
98.4646871692748
98.5265947167959
98.543006937673
98.4902033627356
98.2310889083862
97.3214516159013
96.1816089384127
96.2402111059067
96.975818761413
97.4970102580467
97.8758621473643
97.992482234433
98.0928446406899
98.2363671116618
98.3125632272327
98.2729961593357
98.2700765075497
98.2778014007638
98.2598449464266
98.2879934412338
98.23623135118
98.1480770636579
98.2085598589918
98.1906035358895
98.1277753438935
98.0224029402843
97.9748604858294
97.9457133325199
97.891248263612
97.7928064060957
97.7761934517456
97.7926417315144
97.7601494456801
97.6841131162621
97.5964469917
97.5036455827183
97.4027843932343
97.3172532018838
97.1905017081087
97.07498424925
97.1620055775861
96.965007683976
96.836515227519
96.7737056272026
96.5642820145532
96.4187377172742
96.2843305572492
96.0762561873065
96.0127784851663
96.0361073094916
95.8235836385401
95.6325833782679
95.4203377555376
95.2924401274097
95.2157035594478
95.0726097768213
94.991789291848
94.8945727539843
94.7103441352203
94.5513463198361
94.5222938636537
94.4343780750314
94.2770086767089
94.113826495395
93.9601025029807
94.2826691814171
94.3556738300144
94.0207649681876
93.897309501715
93.9898071464199
93.900175563179
93.747243446857
93.6469071293204
93.5107165264407
93.5607357629498
93.8230661168137
93.7558355569358
93.6121199002209
93.5762985053053
93.5688233733552
93.5175695294705
93.6205945322662
93.7110972473975
93.6260764375769
93.5798880555686
93.7446504325729
93.7603443375912
93.6779398321157
93.6780935794368
93.7018738283844
93.7172969887828
93.73854780473
93.7495292173731
93.7559115692183
93.7818905021774
93.7871583763498
93.8220674169557
93.8470827088716
93.8514911953626
93.8706877923
93.9068829036439
93.8827870322692
93.8787251642964
93.8582506135852
93.8182927212125
93.7129773306652
93.7288026991829
93.8425405321146
93.7139992032684
93.5640253662935
93.6224364699249
93.5410612741059
93.3560481476806
93.2626507325224
93.0287437824284
92.9202807993357
93.2524875570716
93.0533069334977
92.8135095696767
92.6335861106336
92.474051089537
92.3939447514247
92.2009463657374
92.0170944908161
91.8468607170091
91.746165979772
91.9205103872859
91.8362078008164
91.4700543138441
91.3001535461476
91.2664497810774
91.0279875610418
90.7911523493941
90.6725036875618
90.567821880832
90.3740465988315
90.3959818410408
90.1735457848363
89.9592716734568
89.8397916399924
89.5837122445461
89.3648229778111
89.0817610351563
88.9666470553561
89.3210116012724
89.1505359952967
88.7504608966631
88.4924742885252
88.3694322418648
88.4076102214869
88.39563546786
88.117172557181
87.9694613370207
88.071262729117
88.0909325303447
87.9993010638453
87.8713389272592
87.8300337042992
87.7938233872272
87.6928654899995
87.6515622907368
87.5584480133842
87.6708749468528
87.7665429036133
87.5829191201058
87.3843869121902
87.4086479910087
87.449611376916
87.2226365107126
86.9885059005185
87.0434115249892
87.187963724324
86.7771056086865
86.251083182697
85.6338053080387
84.9978197922235
84.2956966321358
83.5332066950874
82.8613089787889
82.2230415285867
81.5215706152993
81.0934167723253
80.5279180105089
79.570956229035
79.1097624376622
79.218637509823
79.1142853183551
78.6115659059433
78.1577342914151
77.5577493297134
77.0190557051445
76.7818354880457
76.2031802617478
75.4965556446485
74.8471904301955
74.2912919096507
73.7554927130041
73.1363228889883
72.5967571044998
72.0741093422921
71.3750554149881
70.8195547769266
70.3518938509248
69.7375671938016
69.324389513216
68.6555555718531
67.8398174610552
67.2004073440061
66.7744715994052
66.0870948294721
65.3729591149854
64.7513349643809
64.2143567906017
63.6850127841444
63.2876883895497
63.3822947073529
63.5084901765424
63.6263378660387
64.024054178186
64.3708241674337
64.6848933997059
65.360214290829
66.0160488420445
66.379779376357
66.7573629630794
67.1888751313528
67.6057731043334
68.0195783877133
68.4773416123197
68.9084991917269
69.3187607574154
69.6962249774881
70.0106876520232
70.4723893330267
71.0581843330915
71.4796133588753
71.8090476933134
72.1219063126213
72.4990907806409
72.8413882777196
73.1699192671889
73.5073498900985
73.8569878275762
74.1678148172725
74.5090091388121
74.875507041778
75.2047035855877
75.5241995464429
75.8778080525024
76.1929381348263
76.5120793866953
76.8126997235028
77.1122300630836
77.4042844442023
77.6723600040557
77.9384837218106
78.2257070735261
78.5159764669341
78.7911946455133
79.0649723851253
79.3379941132759
79.5799374990255
79.8085477327143
80.0209713820465
80.2584258519842
80.5035678094854
80.7435933141149
80.9558799674011
81.1517647989067
81.3258941598588
81.5386160291101
81.7369748993174
81.897820504749
82.0856290118417
82.2832813529982
82.4428918521942
82.6011807033967
82.7756173422494
82.9573163416911
83.1088489447604
83.2362606822242
83.3823872829608
83.5255186334753
83.6424530758491
83.7754249600962
83.9220389058167
84.0581784919082
84.1533697674791
84.2596643435318
84.3688258185535
84.4741971859093
84.550727754674
84.6194256950375
84.688394502716
84.7664533536719
84.834664203762
84.8688205526033
84.8483453040482
84.805324767757
84.6946741437173
84.4762596636159
84.161955884641
83.7556234707001
83.256221201634
82.6918351585344
82.0608717760274
81.3997405031516
80.7201381665182
80.0563272263454
79.422193715394
78.8329503574542
78.3165917372987
77.8737319112393
77.4460988382747
77.0511227826342
76.6708242036513
76.2900557515287
75.9029415045535
75.5438702872617
75.1576577256717
74.7498179826099
74.3158858572425
73.8678752626689
73.4017726524684
72.927144858022
72.4309240330694
71.9361178374665
71.4219666287148
70.8558760853692
70.2777480699069
69.7189948273522
69.1165231730818
68.4939143450871
67.8446100525473
67.1864646149996
66.4939623712991
65.7868770135572
65.0588953879373
64.3289922600586
63.5595364558463
62.8290653644104
62.2005054030308
61.7823895941387
61.6376705655587
61.789574680013
62.074977591036
62.3244994793629
62.4279620610697
62.4337503755402
62.3892271917983
62.355133225326
62.3426355355482
62.3473109747128
62.3234880917573
62.329651627012
62.3404328246775
62.40873119072
62.5397195817322
62.7647459381022
63.0976159425332
63.5573816088109
64.1650629888763
64.9848080561513
66.0235569845054
67.2908935630049
68.6919105242591
70.1674138468254
71.5914405452921
72.9060284949989
74.0769414083263
75.1062462566619
76.0182853359244
76.8918164983245
77.6905655661579
78.4691757107592
79.2764216899373
80.0758706402989
80.7877432577588
81.4288448187679
82.0481030012177
82.6276556292313
83.1539891142256
83.6470785651161
84.0912165810327
84.5053394182255
84.8869266823244
85.2401428625122
85.5489604060168
85.7208665524953
85.8905978530419
86.2214338042268
86.5525367130625
86.8615576898955
87.1575942413876
87.4440806667276
87.7013165602366
87.9344692691944
88.1407997204071
88.3437011818055
88.5365452728036
88.7393188840531
88.9383593036789
89.1164155787957
89.2626053787701
89.3922251767372
89.5240322782041
89.6638652797681
89.7877527369436
89.9219957384185
90.0332717749505
90.1538949620131
90.2715260258552
90.3684443628487
90.4263452459826
90.3441133897121
89.8171409677343
88.1621697436523
85.8429844692127
85.4750843423203
87.241233462946
88.8817189793274
89.7477916554955
90.2098952600554
90.5163289750432
90.7441899070849
90.8966173656893
91.0127664283839
91.1131904623726
91.2148058032026
91.3417352075759
91.4570808613466
91.557073757026
91.6377180296975
91.6966382087013
91.7389381788447
91.8103185206032
91.8985097686754
91.9279237589148
91.9503995601459
91.9932790427346
92.0697997697379
92.1095836896596
92.1277984632917
92.1819196083916
92.2360059950473
92.2873824717854
92.3149004004706
92.3298447724842
92.3837803772397
92.4156324923952
92.4150930893508
92.4155896320068
92.4592538899125
92.5167724483838
92.5493086546388
92.5882843621528
92.5979384173587
92.5938581636088
92.6227148334435
92.6341105761904
92.6645352031376
92.7270490243167
92.7384169806636
92.7252395436435
92.722421865053
92.7260910576429
92.7485779245026
92.7813914609804
92.8253760781403
92.8394237781354
92.8469139793347
92.8232453629467
92.7477627300742
92.7300929477936
92.7173193849225
92.6127839343831
92.4665108113138
92.3074977032151
92.0944671119634
91.8308871034323
91.5476800665055
91.2108959235755
90.8328740344539
90.4513464831627
90.1181151452001
89.805976798222
89.5062764663444
89.285544707895
89.1447604483534
89.0380915790153
89.0129806013688
89.1520140028278
89.4007691117415
89.704253544821
90.0418796427831
90.439117944451
90.8614027840193
91.181576996453
91.3918208784653
91.530311829084
91.5732646217831
91.5685482545812
91.5850628296912
91.5423560041587
91.4012418277967
91.109709742112
90.5041659783841
88.7478054829494
84.5466590471606
78.9886390770502
76.4921401724507
78.9149183791886
83.1805128875378
86.4500882608901
88.4308390508091
89.5890914478241
90.1095441742128
90.2438956938232
90.5051060816462
90.8510713089305
91.0179056287125
91.0925463142473
91.1306044800666
91.1100740644612
91.1164169356728
91.1140580858077
91.0829549808461
91.056900750258
91.0313912630817
91.0277989780351
90.9706577040967
90.9097638425543
90.9064833766475
90.8840381215533
90.8328044491007
90.7970044149314
90.8074114708419
90.8181900214604
90.8047378014844
90.7379945246359
90.634200186213
90.5816629605697
90.5581369298101
90.5358096410367
90.5298397715875
90.4461082082254
90.3639962868801
90.3133792833076
90.288886343856
90.2574631663826
90.1945166939585
90.171307881133
90.1689934721754
90.175196915977
90.158168393693
90.0801198008503
90.0301505157469
89.9915364826948
89.945063599892
89.8865590457378
89.8458401227905
89.8044267684679
89.8140459479744
89.8026703796527
89.7595601110612
89.7181660799689
89.662393888358
89.5579212931406
89.4117923306584
89.3623602071396
89.4202072963253
89.4298192501411
89.4184305996204
89.3914933237157
89.3682051899281
89.3176011061027
89.2145462464275
89.1305466719284
89.0919443385978
89.0786147360642
89.0890589748821
89.1024661305158
89.1107583021705
89.0557315508496
89.0577296816048
89.1537863288641
89.217873482418
89.1808358603116
89.1118506773143
89.0856678203066
89.1501392953187
89.1587813262296
89.0844336682351
88.9911600579098
89.152024932363
89.1018883297742
88.930344127077
88.6570037101993
88.2777153176321
87.953517059647
87.8418346717944
87.8695452315698
87.8438583130773
87.6633087888236
