1798
3999.43349933624
650.420452594757
1
128
4
98.5402083533543
98.525605455102
98.747049535718
98.7218316383652
98.8144630385065
98.8179654424762
98.6687433254839
98.62622343081
98.4824620895743
98.6014333611949
98.7343515704912
98.6321998801097
98.6806471998596
98.8819066525038
98.8470904021799
98.6423195788379
98.5406399196059
98.4297609295388
98.5371427463291
98.7009417797638
98.625719297007
98.7628808952144
98.714590013743
98.5236217204444
98.5869099922381
98.5368583424043
98.4571001395942
98.5366374875073
98.6300509027254
98.5594277594466
98.5217946717516
98.6695713180239
98.7963667473367
98.9574359546179
98.9429362796046
98.676264152082
98.5151747858197
98.5812145547236
98.6088553408354
98.5293285809659
98.5892243223114
98.6095450916158
98.6034523108863
98.6565728883328
98.6064949686971
98.665516463003
98.7647002655142
98.7785923326118
98.6526523347579
98.4183540513781
98.2284218988756
98.3107473437132
98.628194696987
98.8655994867333
98.9520612904286
98.8779805640623
98.6948788809525
98.537355218683
98.4799955419514
98.5772970088156
98.6798744690111
98.7134040015772
98.6643859702234
98.595634009981
98.697970940098
98.7060924221339
98.6088728915075
98.5075126526924
98.3217774210055
98.3475118322517
98.6184941752442
98.7017029640255
98.7435042498729
98.8048602210718
98.6722300767208
98.4185055529728
98.1566645696162
98.0348032335873
98.4299087362855
99.0929231352128
99.3341287022237
99.0898071009496
98.6613648462203
98.3461084560308
98.1350124059035
98.1569595989962
98.5313471681436
98.8764067327189
99.0063808208251
99.0381847845891
99.011584288697
98.8650355938217
98.5984439107872
98.4136556751246
98.2736064495313
98.269567807419
98.5299155045248
98.7701870427534
98.8735505914452
98.8617905109095
98.859112141482
98.7383670343683
98.3869918545881
98.2140615661364
98.2921473475816
98.4292729909761
98.7446529636052
98.9001145950742
98.8597220233061
98.8938771539902
98.8566029254217
98.722346691312
98.5725247157004
98.4799234220224
98.4437837050753
98.5078629927376
98.6145817825067
98.6688544128544
98.7466203084059
98.7649484094535
98.6475658855949
98.5390364127926
98.5275168081688
98.5679243522301
98.6490531711246
98.7258981065955
98.7447344862854
98.6499126868407
98.5360542947681
98.4028905142968
98.3080747387556
98.2078901926698
98.1442426206737
98.2585382099952
98.591483603454
98.7978037529455
98.7327377947102
98.7386223159238
98.7050785657466
98.5483237659709
98.3330268133695
98.3150314375993
98.6367830387269
98.9572080661502
99.0438222678887
98.9150873357353
98.7331546786546
98.6114584299575
98.6809882893714
98.8435932455137
98.8253917674073
98.6822932026236
98.4502873293972
98.31334122104
98.4627705547793
98.7165989244649
98.9050057235939
98.9804591794555
98.879034831333
98.7000119547013
98.6035593183425
98.6305730739566
98.707627365588
98.5550239402924
98.2890008843083
98.2940232858537
98.5032224718615
98.7734900107824
98.9371505889846
98.8858842307044
98.6405029556036
98.3818214025457
98.1753086905564
98.0001745494709
98.1752179138132
98.5918343907882
98.8307221405912
98.9734439382606
99.1189971932462
99.0259342404115
98.7280990470121
98.4854254195706
98.2989331407355
98.2760910790731
98.2977794209804
98.1482347210951
98.0737904342483
98.2668388235781
98.6488140309737
98.958942008733
98.9382245159253
98.7436363400128
98.5785167215063
98.4141638246295
98.2760913688542
98.1982326335606
98.0879996123986
97.9678202101909
98.090334974967
98.3930883556569
98.4098926805265
98.2549279552049
98.051776880912
97.8895088456487
97.9951425499992
98.1637016858992
98.1990002422831
98.2587773407238
98.1618924716472
98.1424250438644
98.3120264862507
98.1774328668958
97.9519168322406
97.9053766626617
97.8171402330593
97.7080202215685
97.6867510789443
97.7520391919609
97.731107642087
97.5763519324207
97.5810448675947
97.7888843188897
97.8591480603828
97.7991273694506
97.7735225522168
97.7606440873141
97.6395334775217
97.4640255867053
97.3394403310175
97.2865395765361
97.1668284813802
97.1123005951143
97.2201014868797
97.311372658134
97.3449626686102
97.3192407176695
97.1799249755208
97.0426064297379
96.9152119264429
96.8211998943612
96.8367060247365
96.9043704020973
96.9249362226651
96.9129960954053
97.0082546984992
97.1110940562111
97.0111825956911
96.8352709031951
96.6101703687798
96.531018584893
96.6117329714287
96.6571011023025
96.6918709784888
96.6674669360673
96.5423794259867
96.4624851208205
96.4131885556599
96.4602373103477
96.5382582472616
96.4819779058059
96.3323093924341
96.2794326143786
96.3032422687881
96.2590817824378
96.2049438390287
96.1849515751404
96.1117032365602
96.1332086135572
96.227877635948
96.1707375027422
96.0899510513563
96.0839108521033
96.0825031989713
95.9809034658849
95.857195955299
95.8415441224349
95.8401531172952
95.8178378930057
95.8370044220161
95.8150651496566
95.7321094606978
95.7005966162745
95.6999323197665
95.6956823090655
95.6768007905367
95.6386446829017
95.7077274893799
95.7557665535168
95.613679643451
95.4248723259973
95.362759270429
95.4288474410347
95.4775616518903
95.4121260206198
95.3083213420244
95.3708274824233
95.3190703500276
95.1788408100376
95.2202084115096
95.2637918399402
95.2412939843914
95.209778247315
95.137237495335
95.0892557757422
95.0856472238839
95.035035933299
94.9818507130197
94.997388938118
94.9557389951929
94.880666844393
94.8784629865829
94.9244122453318
94.9629771211022
94.8584734033271
94.7197764446311
94.7656376144023
94.849301221968
94.8823131021871
94.8714759987388
94.7762136251551
94.6488396882212
94.6113896416198
94.5931793117227
94.5424649191176
94.5146908902643
94.4389410676095
94.4119505235852
94.5850540488629
94.7019340619736
94.6042441209503
94.4184197490682
94.362862201529
94.4697165486275
94.5581451914469
94.5163352792733
94.3893362039063
94.283677699125
94.3110967934442
94.3165100500967
94.2429090381656
94.2892786618662
94.3987439485908
94.3713530267626
94.2844284330164
94.2815298069587
94.3476480708821
94.3797048163144
94.3351923479284
94.2229439169809
94.1967787634037
94.2053362844995
94.1284194859074
94.1103446530556
94.1648761229982
94.1900133227677
94.1281227999202
94.0961833564699
94.1388012634633
94.1698011814809
94.205757511657
94.1377559466429
94.1328005683154
94.1956693484539
94.1732855379943
94.1616992587862
94.1778324981467
94.123736911784
94.0722330071408
94.1102871758814
94.1566476388873
94.152098879839
94.1237711955333
94.0947517827433
94.0999362101872
94.1144610833596
94.0906511929543
94.0693365271264
94.0378871164754
94.0338569034024
94.1317309353846
94.1607621044139
94.144788189789
94.1047551143017
94.0865666847808
94.1072497980093
94.0805402906954
94.0306191292563
94.0891394437897
94.1875065941062
94.2396695515938
94.2099517577121
94.2019205562645
94.2288651074293
94.2131559418731
94.1802386687035
94.1899633603395
94.190218563359
94.1836425481222
94.1771933367735
94.1810480124095
94.2303792721053
94.2988070704387
94.3065989726445
94.3027543597176
94.2710733945174
94.251517505386
94.2380672445723
94.2280032642436
94.2717708922843
94.338011401165
94.4397781097748
94.5213985705873
94.4813965888295
94.3804330542777
94.3271594509805
94.3460564045523
94.3632057262062
94.3273889415433
94.2923808181674
94.4247089419012
94.594123520562
94.5726581682259
94.4978568018124
94.5907317422169
94.6523135063349
94.5487652697646
94.5100185907164
94.5875406269794
94.6462550025195
94.7263540945869
94.7261187495195
94.6294191786296
94.578930092688
94.6104558954779
94.7460167278101
94.8134151286643
94.7260169551239
94.7662302040192
94.8873659576101
94.8973650602096
94.8077302801584
94.7680035609332
94.7779080035519
94.80929906178
94.8765095306671
94.9104393916896
94.9120015418498
94.8520745603038
94.8207552741613
94.9513435044131
95.0008639424402
94.9601840312255
94.9772731221292
95.0524942546178
95.1108122399011
95.1158771965704
95.0929139441796
95.0677337443575
95.0559204220741
95.0609238577093
95.1132782372695
95.1881804678031
95.2312135126185
95.248596227393
95.2000510193974
95.1808157155578
95.2474212023828
95.3043927554359
95.3171400063158
95.3465651330907
95.3237718582178
95.3088608826757
95.3420254388175
95.4140641398477
95.4675894979872
95.5303013097802
95.5762304690021
95.5199041105056
95.4616275413722
95.4733474642711
95.4902395244986
95.4762050880304
95.4620737291802
95.4741098010868
95.451924479026
95.5084375028031
95.6291133866246
95.6307054206649
95.5526287476201
95.5476328152358
95.583978556327
95.5804857710903
95.5827174021214
95.6992004082087
95.7843622059803
95.7540832246048
95.7340884188279
95.7269469646868
95.7135028770189
95.8093775941747
95.878406623041
95.7841512322129
95.7062865191684
95.7565214096126
95.846247413827
95.8656050096072
95.8322719520816
95.8490160403639
95.9150985926785
95.9647709889423
95.9642757618042
95.9628011620594
95.9730868628997
96.032740575989
95.9986579143973
95.9054611100549
95.9171714027527
95.972755310174
96.0199590464962
96.0407256169127
96.0316815645216
96.0732342981621
96.1069259477404
96.0589338356628
96.0171627664706
96.079344217417
96.1466146256469
96.1703402391838
96.2450867669051
96.3026905256665
96.2246768931904
96.1931528167843
96.2111871143969
96.1795508117078
96.1646291364242
96.2058828264828
96.2670378556771
96.3151325956505
96.3105321116474
96.2980391674203
96.3249638664626
96.3507778444904
96.3067849176497
96.2642762965515
96.2528634732851
96.2671447287093
96.3000749244814
96.3229263827563
96.3151272267349
96.3118750668529
96.3109617562832
96.2861272761545
96.272197907273
96.2968481424049
96.2623163590193
96.2551411555809
96.3652473093599
96.3781204930578
96.2762235390229
96.2678974351475
96.2957921955943
96.3398398188608
96.4153411960518
96.4857666864069
96.4897090119208
96.4789603459258
96.4856939111026
96.4867151202394
96.4826491807876
96.4876454955768
96.4953969813309
96.538139972407
96.5769462194396
96.6090755731708
96.7199772905462
96.772419126639
96.6875704088077
96.6962942252761
96.77993059528
96.8204377843382
96.821966090072
96.8211684405122
96.8434713606837
96.8354467458287
96.7948197898737
96.7995560474051
96.8009449468877
96.8071017624598
96.8337564299515
96.8290516077957
96.7788332619126
96.7437864366658
96.7517763249128
96.8042943972218
96.8534521416005
96.8346922488786
96.7907285859938
96.7941470521006
96.8033202818782
96.8006620204389
96.7963465677068
96.7932288554626
96.8057223555313
96.880161033479
96.9589058087376
96.9688218276673
96.8940758554137
96.8265315616019
96.8328050547311
96.9147991940936
96.9945874878639
97.0266580602689
97.0587841145141
97.095458216461
97.0796367721518
97.0725158967936
97.1183774863634
97.1483672379355
97.1604766464471
97.1645799888507
97.0879754560249
97.0447702029978
97.0779483279062
97.0844199440809
97.1124930178907
97.1896724288183
97.1971242532291
97.1504370569551
97.1217002965409
97.1149386951667
97.1374359358121
97.1664985281278
97.1778934423856
97.1661784244031
97.1251621310217
97.1097771152292
97.0858238620815
97.0829129675287
97.1384571027407
97.1575204017255
97.0966748676411
97.0851431648774
97.1223952601074
97.1245461932862
97.1168669338697
97.1399000301067
97.1741554647559
97.158870552983
97.1362569227868
97.1881390595443
97.2146633018742
97.1840629468571
97.130761275508
97.0627740655279
97.0181937624375
97.0247990293507
97.0506794230679
97.109774533993
97.1413266481754
97.142974280364
97.1670904441654
97.1774018401513
97.1544434121096
97.1237147463623
97.1267978434912
97.1535426029187
97.1338961950662
97.1361469400514
97.1524174007663
97.1578526632979
97.1918923344333
97.2091073188787
97.1897749619266
97.1612481639479
97.155631257645
97.1528081636219
97.1355891844691
97.1520087655581
97.1145952505062
97.0645866848622
97.0795339085773
97.0801286242138
97.0666667181997
97.1326928082273
97.2247126824097
97.2994403977074
97.3225092765752
97.3428220167664
97.4158403046249
97.4224351009591
97.3773068006372
97.4006209864049
97.4372376255079
97.4569284324467
97.5080551602523
97.5338166810008
97.5217886257782
97.5161803391548
97.5231684457788
97.5443875354484
97.5218983371106
97.5248002134962
97.5808854793098
97.5700636296526
97.5307846120628
97.53452303744
97.5126124726135
97.5445512085332
97.6422634568889
97.6678003681046
97.7006602689197
97.7546191302855
97.7192719857939
97.6553534185342
97.6327940582603
97.6644514095044
97.6550363223362
97.6018282115079
97.6026699895754
97.5948630574479
97.5830995534594
97.6102508794326
97.5996301630082
97.554425867965
97.5191885766603
97.5537725970054
97.6107669695315
97.6373098817272
97.6779646271758
97.6597024872234
97.5841301755708
97.6225928987271
97.7241441029213
97.7615298939336
97.7245267152023
97.6911218671205
97.6822601700633
97.6893397326357
97.7900502631463
97.8855349740754
97.8648581154148
97.8203112105433
97.8106547869609
97.8321719170922
97.8723385941215
97.9240411386147
97.9528639653564
97.9106304616136
97.8855916758772
97.9304710319434
97.9604971703759
98.0362475799845
98.1097028228529
98.1097631351218
98.0822950004094
98.0378218768923
98.0154045837731
98.0199829415564
98.0408936336962
98.0282000557124
98.0309831327846
98.0873429038204
98.1295036705325
98.1584450143665
98.1578909674305
98.1661620137247
98.1881710246206
98.245177771664
98.3026771421073
98.2242274357934
98.101399380906
98.1410655836096
98.2842269837904
98.3523828454791
98.2914668448085
98.1995657539567
98.2002757293949
98.2245161485869
98.153220641043
98.1192725104603
98.2309672668672
98.3874265504371
98.368072604198
98.2407113800639
98.1833557165927
98.2067316251814
98.3250291104291
98.4778081718198
98.4626154746588
98.3235783462131
98.3227428962843
98.3503018724851
98.3345228420851
98.3496112011323
98.4207107906675
98.5014405290141
98.4730375963004
98.3813689852173
98.3320803260337
98.3345127698125
98.3258588042874
98.3835994160162
98.3958534588941
98.3373740229768
98.2870439423969
98.2625337288479
98.3122419865317
98.3382273000366
98.2716957863459
98.246877781127
98.2742801284895
98.2516738989529
98.1090842175605
98.0653281746921
98.2277707237473
98.3352958176303
98.2936360862801
98.2099452968041
98.1557466902911
98.1629706845982
98.2192445625579
98.2637303265371
98.2302693838338
98.1876465074736
98.1814172234671
98.2265926241052
98.2108976784828
98.1164499707827
98.0912100921863
98.167246850595
98.245297690752
98.2455077804174
98.2213942353705
98.244945861222
98.2791683650141
98.256741180401
98.1971330085807
98.195611337817
98.254811952374
98.2311277281566
98.1407973278824
98.1263942578889
98.1051809848923
98.0404685575959
97.9755824153451
97.9593784416055
97.9974302011843
98.004143598385
97.9887001125842
97.9972188970019
97.9920734818252
98.0065704170869
97.9878858722345
97.8944638649624
97.8430252035971
97.7937967353888
97.7582461479218
97.6557369593581
97.4297107715609
97.1951782704685
96.9813894356768
96.9004612410947
96.9454440984309
97.0589851399849
97.1819465962395
97.2915752246801
97.4223624015415
97.5263680802113
97.6161411437702
97.7476287295441
97.8707176794039
97.9570648901166
97.9911499052
98.0676815463705
98.1834839831608
98.2692379170233
98.3875768882964
98.5175767615216
98.5890193590032
98.5799529983709
98.5626398247592
98.6215924246941
98.7257196094752
98.7243084937188
98.6203255765037
98.4962448517204
98.3325644434035
98.2076635388407
98.2093948400683
98.2742242533381
98.34066901266
98.4048662014375
98.4225446654424
98.4274078152798
98.443431012821
98.4165113359781
98.4184437107593
98.3984496433712
98.1827114134707
98.0008673767142
98.0350635314228
98.1137124616667
98.2300098481283
98.3538312760684
98.3553496050709
98.2926713477362
98.3008511372177
98.3240389383077
98.3936282157822
98.5326745733614
98.5592316909656
98.4680313949531
98.3390866123178
98.3125374230858
98.4308517894798
98.4731144021817
98.431549561579
98.5084357737791
98.5661762200723
98.4979492605276
98.4952856060965
98.6199187444042
98.657863139655
98.6406201571838
98.7556560551102
98.9390979244465
99.0715135800437
99.0991012171306
99.0876456122392
99.1281179778128
99.2215978048653
99.2836676003796
99.2882616833239
99.2939650610426
99.3262517275187
99.335181255652
99.2650899651715
99.3069961171468
99.5727970194667
99.7120155992217
99.5578757262035
99.4972874628091
99.5837831464564
99.5400406072977
99.5659743928147
99.6550831219039
99.8086985260883
99.9818773235166
99.8486877009601
99.8033551244849
99.9293913448276
100.016036545033
100.090681122673
100.03614857024
99.8466277039765
99.8620022972839
100.305086883261
100.726135231494
100.577307122664
100.256427289959
100.299524045525
100.522528122794
100.635542957868
100.815135768303
100.729008987652
100.354858427769
100.405161792828
100.557440687444
100.702819597662
100.760008552502
100.585798768423
100.530466977631
100.580027095381
100.64386010033
100.764081705025
100.793330872971
100.644808433955
100.639248648884
100.834120752211
100.792402315697
100.623576435577
101.037075906719
101.162573900769
100.586756011952
100.744541188561
101.264024267322
101.324044536899
101.491953832802
101.959842435165
101.944684008666
101.37890196405
100.886495168319
100.735203342914
100.634076383981
100.629472491939
100.370857164263
99.966629606378
100.097055744157
100.287046356681
100.15667943118
100.086818755019
100.077816141728
100.061251052545
99.9328315873569
99.7511171997697
99.5756721794779
99.4339456357604
99.4233871554063
99.5083124343678
99.4542348864577
99.2565839426165
99.1333058697713
99.1045584280612
99.0676672000082
99.0983964310283
99.1843116895691
99.1554050351592
99.1095581150197
99.1660278287139
99.1815709290875
99.0263802557899
99.0111888278694
99.256550945116
99.4518493500366
99.1349054362722
98.8612930099765
99.0024060773007
99.1240720073297
99.0440363098801
99.0328416438896
99.1612975151881
99.2237418143855
99.1469116431922
99.0896511379492
99.1826701720361
99.3396026302328
99.2832399959899
99.3671203620908
99.4696267901518
99.4562545023753
99.5565226154292
99.6475229945161
99.7092807457974
99.6384793041915
99.6756735177797
99.7888060928472
99.6887444395281
99.9137998964723
100.25633770804
100.527142612995
100.599201692189
100.334473308081
100.266074934738
100.571448284959
100.834686278508
100.779002907484
100.845933459266
101.138771198938
101.252828601592
101.145813834092
100.95195246018
100.69270561272
100.747316383483
100.766243871981
100.6409014438
100.48387412697
100.575202392713
100.547878618365
100.502246511903
100.783214482301
100.689560255265
100.444415947176
100.632923386992
100.777305798849
100.936971420808
100.983387526729
100.86882295661
100.674984733561
100.205704955807
100.028707140514
100.242298462611
100.409271062287
100.699350945586
100.509316060991
100.206437340727
100.658087942048
100.861737629587
100.742257463147
100.644606581778
100.645654143528
100.861282309347
100.625795624148
100.553093854873
100.550469479977
100.450506015033
100.455479228446
100.334616534992
100.238441022191
100.275771832951
100.178583721175
99.98556293417
99.9137230077415
100.078816552539
100.193754686533
100.055979665299
99.8367222059873
99.6910100522853
99.7052690005707
99.8950877746426
99.8660869946823
99.7074611802125
99.6880737753528
99.6981638068778
99.5554753375439
99.411692854564
99.4730116578382
99.5642100031262
99.4865094026721
99.4029230450718
99.3499737809263
99.3995331541216
99.4180592722159
99.3606391931992
99.3487001048021
99.4570547736569
99.4589211784198
99.3958763615928
99.3522585819265
99.3132058025449
99.2864614105329
99.1920754799553
99.214888760594
99.3120627897828
99.3210394244155
99.2924350826175
99.28685313279
99.2086601506775
99.1925057039871
99.2459657305452
99.176188599209
99.0782517325727
99.0863544490016
99.1026088075018
99.1210474044702
99.1728396540541
99.1478818286237
99.1185436425533
99.0778319346193
99.1128670936667
99.1943914305302
99.1699621614713
99.1179349111553
99.0710948130035
99.0196187473686
99.0139106826729
98.9920065640324
99.0240986299101
99.1800123476352
99.2162770861924
99.1750127250418
99.1077674275474
99.0331289646087
99.0269606814509
99.0249060663875
99.0120409674109
98.9850588346329
98.948396321143
99.0131598683807
99.0373318182764
99.0742886149722
99.1185096088466
99.1039770630789
99.0613865931628
98.9431545108455
98.8366006503337
98.8729761277593
98.9235638953105
98.8720207543472
98.8061748297528
98.7623456042587
98.7845481811832
98.7908027338868
98.7408061545475
98.6963465504585
98.710415326869
98.8350075496355
98.8495348674441
98.7653485139275
98.7089336146269
98.6747676188918
98.6558823020004
98.6517593284022
98.6151187236654
98.5455083993729
98.4901720521327
98.5851637170129
98.7769140827936
98.6792180425141
98.2483291974894
97.0867846450562
95.8645635142068
96.1215959171398
96.9781548479827
97.4769899478955
97.9160514615176
98.0496306419315
98.0863527988419
98.2568826544378
98.4180881235892
98.4399152967123
98.4025815758864
98.394260055404
98.2966679731325
98.272711541645
98.264192412419
98.1975078477279
98.4896692074463
98.5574490641457
98.5045994867397
98.4285580086637
98.2382205732149
98.0334998811254
97.8666417967518
97.7131684927126
97.7397353284715
98.0597354575221
98.2169317223801
98.1522780078818
97.9127879361082
97.6552536773465
97.3890462380905
97.2185672833906
97.077170229001
96.8815037755709
97.1081595348547
97.161206551824
97.1164872852291
97.1166710467689
96.6985118964199
96.3128581716353
96.0170416980383
95.7512664710126
95.691083723672
95.9624643895619
95.8010227963511
95.5708930987953
95.2450194129236
94.909908439151
94.8602029645337
94.7001887686381
94.6262431275322
94.6280951227114
94.4573744820054
94.2590361968633
94.1551030092581
93.9888631613067
93.7430509248609
93.530799422805
93.2206723323331
93.4411845676162
93.9340661891083
93.7322066911387
93.5930735903247
93.6824830585669
93.5426149573495
93.2772524920808
93.0406916567796
92.8075301289402
92.7925583774854
93.228622935871
93.3308449107943
93.1533493145321
92.973483508804
92.9242498704056
92.9116723531802
92.9474133306086
93.0381641790911
92.915448215081
92.8603996477783
93.1253489179022
93.1951404597045
93.096178504837
93.0568733428613
93.0145537149204
93.0341053513736
93.0338521171593
93.0380923693599
93.0638457871322
93.1134720628232
93.1008099337872
93.0969954466451
93.1166656603447
93.1303074515343
93.1377138194702
93.1578366318562
93.1619303369908
93.1278922277491
93.0254218509048
92.9836487744613
92.8876793187666
92.8270459967295
93.0338599891822
93.0293029174832
92.8618352671777
92.8471420439233
92.7790525774569
92.5136239126828
92.282123316948
91.8966598638631
91.5629159680406
92.1920134501841
92.4216049543225
92.285575468507
92.0748242999842
91.7452946540735
91.5159825384636
91.1774695295831
90.8437767539881
90.7251542997568
90.7078552553517
91.0914989035453
91.1727920923105
90.8366787706804
90.5214423885866
90.3996679241044
90.116119476527
89.7886722612815
89.5398742006472
89.3843891291054
89.1673976722418
89.2569427612927
89.2741799703718
89.0541699996918
88.8645704076258
88.468231782999
88.0875519670154
87.7569024646725
87.5724192366007
88.0861535086795
88.1405720860788
87.7630142736113
87.3902616277356
87.0662716607042
87.0012097214658
87.0932327854245
86.9070186360353
86.6664294562788
86.6859830949945
86.7569761983816
86.7511622189635
86.6057774671774
86.4404897388745
86.3288460286805
86.1499637375584
86.0475586536535
86.0134196809237
86.2178505327657
86.4417824709498
86.2741978403137
86.0164378563375
85.8739669182686
85.8955987263731
85.701160247406
85.3732590328425
85.3036589348981
85.5491955513392
85.27012491908
84.6803711912085
83.9260035308618
83.0801238162438
82.3227586725602
81.5129596486343
80.7078326528844
79.9326914124807
79.1880429776016
78.5322090966397
77.9115411968126
77.0549863542549
76.5602903627839
76.60659931237
76.4810289394816
75.9288555036412
75.3373149049774
74.7134286378426
74.055070602448
73.6299377433161
73.1086150628429
72.3844976611061
71.6738098245125
70.9353219126553
70.2178050517534
69.4867712616909
68.8416647985712
68.1938863169652
67.4595625524346
66.7331928323225
66.1381212867039
65.4864017492502
64.950583466285
64.2570498249397
63.3916345068362
62.5287383719948
61.7943852555413
61.0113916344942
60.1750520370595
59.3572012746342
58.6779719598465
58.1269706895425
57.7571335229687
57.8122899305081
58.090523423863
58.336148053529
58.7728749321219
59.1997536094482
59.5826436134245
60.237824431031
61.0177203131951
61.5726021707559
62.0303117056964
62.5001037689465
63.0295888291106
63.5082986196486
64.0033169250622
64.5140354932453
65.0132192520702
65.4572653418939
65.8361412451647
66.2943173609665
66.9819343526157
67.548315049756
67.9481134802853
68.2866099220223
68.6922811675268
69.1036724940407
69.4821457982672
69.8363974793827
70.2336824140247
70.6090747145114
71.0080936434074
71.4296551724729
71.8375761186265
72.2335866805265
72.6503980034739
73.001464878045
73.3477302515747
73.7043677825001
74.051898579502
74.3688932493033
74.6938807143218
75.0146284610148
75.3345300579151
75.6487590017379
75.9776273557617
76.2942031151944
76.5997399895832
76.8791512935064
77.1724238242913
77.4534492235404
77.7146302542736
77.9739540820263
78.2406391275633
78.4900803736797
78.7311137782095
78.9214704339365
79.1170143466126
79.3218212003256
79.5419731859231
79.7620668590088
79.9866177881521
80.1948775350008
80.3880498691028
80.5755040028671
80.7608431546248
80.917619569878
81.0685893565709
81.2185315244052
81.3983601521811
81.5615137870611
81.6992188649131
81.8368201229476
81.9665406922301
82.0957956927144
82.2419276017793
82.3764726136196
82.4870423134084
82.572993904569
82.6719026249693
82.7612690292687
82.8301608484146
82.8778403305489
82.9121469771944
82.8957642552574
82.8356125407888
82.6970243673737
82.4392199956175
82.0527365560692
81.5640258866176
80.9890520772976
80.3564913578105
79.6206243730309
78.8147350329509
77.9737729625112
77.143925413453
76.3181917086074
75.5436480338339
74.8283988984436
74.2022111213344
73.6587448469905
73.1322269369582
72.5581534654975
72.0045064812023
71.4564969393645
70.9283220893208
70.383231353864
69.8438292790423
69.2698273887202
68.6778867219204
68.0563443609516
67.455100462084
66.8342405477379
66.2014313165776
65.5494121614294
64.8951441313267
64.1764106590077
63.4531719989412
62.7378506482622
62.0338934914719
61.2800291002628
60.4783363441996
59.6307287101449
58.7694814027249
57.8931182390425
57.0043624290215
56.0762885858344
55.1900619459887
54.4022376703901
53.8583571719533
53.6512157941605
53.8059292504612
54.0973781220095
54.3270592043752
54.3990102251098
54.3479292162144
54.2341236672684
54.1437678585511
54.0264948426334
53.9286035237879
53.8162846520725
53.6881807118626
53.5798762714147
53.5786873716816
53.6568616852109
53.8675416132772
54.2304566542751
54.7722276849823
55.496888729448
56.4700476336001
57.7226397545375
59.2791552044973
61.026199783906
62.8669148931657
64.6626514053892
66.3047269108117
67.7753650435535
69.1098120839202
70.2760228987984
71.3642945663259
72.4043196840558
73.4338003150169
74.4328078472413
75.4380192511889
76.3903200186714
77.2704738266518
78.0733327351537
78.8117835020725
79.5267947907498
80.1654047275743
80.7399174857684
81.3096731955099
81.8161150344957
82.2811239570588
82.6836142790934
82.9214082600121
83.1492898933358
83.5739766654157
84.0058971274822
84.3903341700575
84.7551766688058
85.1133890404681
85.4381928463909
85.7351075403137
86.0128346140403
86.2937654159203
86.5573113317143
86.7818245122531
86.9907554909996
87.1918273662193
87.3835132546493
87.5856864424035
87.7751830028866
87.939600925984
88.062263068563
88.2222821358261
88.3881059167158
88.5345451040272
88.6680724026332
88.7781539063144
88.7909073438789
88.6369779900059
87.8390953118548
85.5312359950348
82.6229478018433
82.3808436549241
84.7701092865072
86.8946963721805
88.0034285528139
88.6010114901751
88.977142499218
89.2344724016768
89.4406653340946
89.6316561275755
89.7674156334741
89.8627116818462
89.9916122797559
90.1115750860212
90.2197366468882
90.3475374482521
90.4267081298305
90.4819410563329
90.5758367160976
90.6467895758071
90.7030365918299
90.7558929785925
90.8171501131285
90.873543261436
90.9228947018355
90.985819213608
91.0517959868981
91.1090139849823
91.1264804656584
91.1457521724442
91.167707973728
91.2029197131101
91.2451206804147
91.2953947015165
91.3556081946024
91.3833291443755
91.4182672725926
91.4387149249633
91.4412019685487
91.4799966160546
91.5207579734741
91.5556329142816
91.5809521275187
91.6070474389754
91.6152704524733
91.6203883555721
91.6560160927989
91.6839190511946
91.720975614188
91.752861155085
91.724635063342
91.7040318359803
91.7045508209086
91.7111289891456
91.6824144439485
91.6543724251638
91.660877479054
91.6259654740188
91.4601829961662
91.2803370990152
91.148362562737
90.9083739838737
90.5805482953968
90.2402930507325
89.8636466861872
89.4479288220021
89.0300014802306
88.6472334994486
88.2805639607111
87.9596739131875
87.683081417157
87.5066895899996
87.4693876500723
87.5460483599638
87.6872418890074
87.9460195482262
88.3212141542823
88.7796231120382
89.2054444313157
89.5711003421609
89.8946015265289
90.1640185702543
90.2947837972884
90.3309484241438
90.3391721924716
90.3231550409246
90.2036262315539
89.9859646718127
89.6508543155967
89.0006718982891
87.0832232624894
82.3561735623304
75.859903401556
72.694416171176
75.3758145893511
80.3244634786558
84.1376352471553
86.4143615397655
87.7349244971917
88.3622118593948
88.5843081089405
88.9597543777608
89.319512001893
89.4562933882843
89.517771274384
89.5324286240031
89.5527977473235
89.5809745209676
89.5633927703406
89.5203840718136
89.4704039552765
89.4557939995226
89.4596168392753
89.4476535148969
89.4300725117316
89.4029335250877
89.3300972558259
89.2853595859798
89.2477800524041
89.2118407476519
89.1645086331603
89.1522032330498
89.138655485414
89.0850296543457
88.9831337403864
88.9179865288551
88.8549461049804
88.7697742319048
88.694291004508
88.7007233828144
88.6707746644718
88.608497788752
88.5364208004185
88.5101671722795
88.5018355701116
88.4435313347453
88.3560120181757
88.3189622748109
88.3316382030403
88.3400397871102
88.2633799608268
88.1963302379029
88.1426029898084
88.1529708947871
88.1509898119297
88.048904848537
87.9697021309529
87.9581186744366
87.8925110098866
87.8434147772796
87.775215212705
87.6190109512294
87.5875383008561
87.6433185698146
87.5992818672164
87.5796820090732
87.5733034255364
87.533228419051
87.4081647004288
87.3512076456712
87.294155006819
87.2547322742141
87.2708399697922
87.266244543597
87.2231181665056
87.2392774662781
87.2881053484918
87.3491940260132
87.320924111178
87.3086018289403
87.3098028883515
87.3837947285062
87.3746304787866
87.2866498692277
87.2633462770235
87.2110269995646
87.0457252270613
87.3332603053019
87.306528244655
86.9949556604767
86.6905735110536
86.3197762886576
85.9749461338036
85.7917436939023
85.7996437231541
85.8236547867689
85.5803830997268
