1798
3999.43349933624
650.420452594757
1
128
4
97.78817738121
97.6929391804075
97.6839726351332
97.6811331498168
97.3978468798715
97.2867565629151
97.6152718392023
97.7505813109889
97.5265913399546
97.4114802536339
97.6252550621599
97.7701888367554
97.5631685598134
97.2759059761643
97.2800356021156
97.5919452345339
97.8714463552109
97.6872426549109
97.5103393606931
97.6013972240584
97.5996689868868
97.3716121041423
97.3595306526162
97.5164176210465
97.5082250064971
97.4076816070301
97.3129270585886
97.3922076936446
97.6033236180121
97.6548235140693
97.5533912242582
97.5198470566837
97.5818191567415
97.5854733953166
97.6176624174046
97.611954620113
97.5056092358323
97.4498091517903
97.4785458285001
97.5566209304548
97.6179369652874
97.5756255827589
97.4982046471275
97.5615470325029
97.6973980841482
97.6437987841538
97.5509012680105
97.5352316344929
97.4716538156222
97.3971068016573
97.4592028897584
97.5358015173774
97.5693038042595
97.705750026575
97.675176871185
97.5063914126922
97.4420961623835
97.4365260478484
97.4961361175421
97.5483984622308
97.6033777113633
97.6158150402066
97.5082730562982
97.5316593641122
97.6469777408107
97.6024057389958
97.4406873322339
97.3401846543061
97.4498530436382
97.6645099590974
97.7046975463005
97.6466716817795
97.6128503036132
97.5933351076805
97.65028938892
97.6554710546006
97.4899003281713
97.3966245794353
97.5671102379653
97.7149009048539
97.7028550807614
97.5853625194577
97.4173082064657
97.3505261941764
97.4553211971201
97.5574611823307
97.6278958817338
97.6519909059635
97.5034753961088
97.4699437512397
97.5625363549703
97.5694426199313
97.5608641516128
97.556705395764
97.5038154084079
97.6049925999109
97.6574987741754
97.5280290771553
97.5258838433544
97.5281159001227
97.4960544878676
97.4943245212952
97.5534206752496
97.6023164753828
97.6296265080001
97.6956503498314
97.6310201276339
97.5378327759425
97.5476424326506
97.5179127975485
97.4519904675675
97.4195989635582
97.4036796672255
97.4491026151702
97.5238665032036
97.5901794482341
97.5975538996499
97.5758852943445
97.625831951196
97.7007567043716
97.6756372323745
97.5503414842949
97.5216649936537
97.6223790575553
97.7088421851616
97.8220173730477
97.7696859276276
97.6345283440519
97.6661196684607
97.7446955273625
97.7092568049622
97.6303494065578
97.6330286230735
97.7049422683938
97.7012157621725
97.6851297933502
97.7036347597346
97.6621381652633
97.6502641945796
97.510313671114
97.2890564191277
97.334579027166
97.5446205783058
97.6496249156285
97.6197280534458
97.4491537853764
97.2654661116103
97.2861144263108
97.5199457306189
97.7186015044157
97.6279758226595
97.4957323700456
97.5184022818762
97.5509317790546
97.599460260082
97.6792117475678
97.7029167559422
97.6774118586129
97.5879592009327
97.4466198928175
97.4779015910958
97.6700532692745
97.7000004120269
97.6293598031043
97.492390963116
97.406167351916
97.6030365545385
97.7961843741235
97.7300972181688
97.599839315926
97.4736943287844
97.48850002694
97.6586874454042
97.7576505417674
97.5448992763444
97.3561954789551
97.3467142254365
97.369759210022
97.4239949587252
97.4082144239864
97.3173631184327
97.3246209013204
97.3747310746775
97.4941527063567
97.611982840469
97.4953198018035
97.2707955069798
97.240192962755
97.2929148900722
97.2762030236401
97.2280344219949
97.1460856293391
97.0825228706484
97.0902729792481
97.1632492003723
97.1748173102051
96.9842563820055
96.8830817970152
97.0037625789449
97.0375813670948
96.9872304831412
96.8635716523593
96.7090456001612
96.7633969987486
96.8266279530895
96.7515667041087
96.6161332303967
96.4905885023909
96.4474597500587
96.4513774745664
96.4603028533292
96.3851184972729
96.3603501881421
96.3714506206033
96.2359387536182
96.2619966495403
96.3996055726092
96.3224517581043
96.0625783306722
95.9248637818793
95.8159734737131
95.7098080284891
95.8348426695856
95.9354383056999
95.8210849213005
95.804981603991
95.8246380368851
95.7805333754467
95.8466373475196
95.7773269269345
95.6467266127043
95.6948235654131
95.6462337329242
95.4883500756777
95.4101236009629
95.2507143632862
95.1259802096584
95.1213064319748
95.0526975157913
95.0571812772594
95.1335579141316
95.1421934276465
95.0565151655003
94.884400198918
94.8286152305106
94.8767814295447
94.8406528705492
94.7960063422473
94.7407043700811
94.7644870571606
94.7845003724459
94.6650665733374
94.5957588687797
94.4798244451143
94.3466568856915
94.4101153474372
94.4279165416291
94.3481491702813
94.296312416981
94.3203433689719
94.3224726223768
94.2431115266573
94.1211241887742
94.0922566814661
94.108930272415
93.9986508410755
93.8815797200543
93.9475899156802
93.9624681877675
93.8987486940016
93.8995430538442
93.8208512054472
93.68793092647
93.6053978671633
93.6139322310815
93.6556181074471
93.5749468454565
93.5185624232494
93.5057164535741
93.4023950437603
93.2764078044891
93.2765153564654
93.3191487716548
93.28068814192
93.218433330033
93.187793616782
93.2025000036004
93.1710057384378
93.0340399678218
92.8875102182977
92.8505338995443
92.9413091965008
92.9446207421094
92.851625036167
92.8656625273004
92.9027838194114
92.8270261312383
92.8404470810367
92.8319668148815
92.6381082967683
92.5220483178034
92.5244692679577
92.460175815086
92.453417315525
92.5368552119681
92.4926074181184
92.3898901342564
92.388932066134
92.3413753681215
92.2485779691675
92.2728594520038
92.3597857869491
92.3501913076336
92.2727306573899
92.2599444422285
92.1985971461813
92.0485510426708
92.0288871233866
92.1019974566879
92.080487896564
91.9845377872828
91.9182243076913
91.8601708344791
91.9024298866182
91.9276384693588
91.9029599378038
91.9129349877991
91.8999836987763
91.8108682120729
91.7475429187164
91.7887078066681
91.8452325035121
91.82697632679
91.7619382113016
91.6863799959954
91.6450007817961
91.6364554929608
91.6497316694658
91.579860754791
91.4864558871763
91.4793633755321
91.5323890008795
91.5200038669046
91.4569169695646
91.4787407288279
91.502626721001
91.4903855037964
91.5534635957883
91.5628883004568
91.4566241666556
91.365751991705
91.4256894219793
91.5249051464377
91.4984977206545
91.4654929981363
91.4793746164246
91.4111128853701
91.3446555820528
91.3196272460776
91.3507151922293
91.4516830017851
91.4884026406577
91.4623192661212
91.4350036808017
91.3766474814995
91.3709636670427
91.3624455719273
91.337994408905
91.3779368007558
91.400999397102
91.3583311428426
91.3680806679081
91.4225214316963
91.395460976844
91.3283781553705
91.3099052399348
91.3031434633034
91.3077145141745
91.3387170520481
91.4439080002512
91.5254569181792
91.4896369746936
91.4266141072295
91.4316553483073
91.4071756040659
91.4093171713257
91.4402195668192
91.4871214063807
91.5149999870194
91.4539780357518
91.5324980475558
91.5911190638215
91.5061503192143
91.5634348464087
91.6369071479922
91.606110531844
91.5528505648192
91.5287878720072
91.5337053936045
91.5810245216746
91.6351070079742
91.6994456207718
91.7155958869145
91.6639785579621
91.6652599963063
91.7155298603623
91.7383304843853
91.7243861504277
91.7697710864341
91.8817360237008
91.8258298892316
91.7761911948009
91.789097528341
91.7928798820781
91.8269399927939
91.8842358861699
91.9493694979701
91.987884493697
91.9710617666412
91.981383853266
92.005525773965
91.9987186764017
91.9666573299465
91.9820685745876
92.0452046308461
92.0610728110903
92.0802485078594
92.0901281204985
92.0830897298073
92.1705034874995
92.2242051331403
92.2280391873993
92.2422833340797
92.2472827189011
92.2483492321652
92.2890376843094
92.3497570441091
92.429946600002
92.44330736389
92.4484077454787
92.4818377565419
92.488291148504
92.5074884611218
92.4977820096838
92.4619279013118
92.5008399450243
92.574171784798
92.6349776498398
92.6653045999771
92.6722359604939
92.6638738574031
92.7104664691726
92.6972989152946
92.6657044808862
92.733440855049
92.848574097134
92.9321043042704
92.9593167628169
92.9618937287158
92.9573253564274
92.9799392738001
93.0562135810018
93.0577218699381
93.0298493933402
93.0485283202021
93.0791012245436
93.1657394275832
93.2120050448706
93.1386825788513
93.1001967610621
93.1408018892865
93.2246233470574
93.2606160264406
93.327012337658
93.3981638400381
93.390687336224
93.4302879985244
93.5074861554055
93.4949208220711
93.4644085386763
93.4100374368307
93.4099797142729
93.4678752269731
93.4899767878326
93.5231072287247
93.5851949363147
93.6018094422752
93.6001891726041
93.6630664814226
93.7304284615984
93.724701855067
93.7213465129172
93.7155424940243
93.7150184054475
93.7325519260834
93.7935294813206
93.8336396195179
93.8649461887023
93.9356361600983
93.9571865196299
93.9301245892154
93.9685163199525
93.9753231025483
93.9296521541453
93.9616738058996
93.9809079748648
94.0115386139454
94.1115786534429
94.1042144839731
94.1122676812962
94.1767197901693
94.1835057549214
94.1636637222366
94.2161630002969
94.25968726961
94.2372750326454
94.2048250450116
94.2352758719496
94.3119925114894
94.3611225115869
94.2910457904868
94.270197972226
94.3481932772442
94.3808206653049
94.401667276212
94.3793241782643
94.3211465092068
94.3933331360229
94.5275834519912
94.6297849625524
94.6460610177104
94.6206144127748
94.6060047268826
94.6024634855023
94.5833052206577
94.5603373270839
94.5456944495359
94.5960066389157
94.6423658491523
94.6526146409142
94.720936695498
94.7441849274048
94.6842918040627
94.6502823259454
94.6431106824615
94.6605746689083
94.6711713931696
94.7066614044229
94.695566020522
94.6833179307932
94.7035100719573
94.6580656141412
94.6348636228096
94.6820244114726
94.7041962468693
94.7141971841195
94.7060210786655
94.66676416711
94.649347298411
94.660879832624
94.6880521752427
94.7591291967734
94.8185225443807
94.8638222829892
94.9142437620173
94.9453799458292
94.9209302026373
94.9347875988491
94.9331290264836
94.9319905224479
94.9708704364567
95.0135376342371
95.1038116473512
95.22449471063
95.306468709641
95.3290153721023
95.3325314683234
95.366330435843
95.367969989731
95.4136634687273
95.5132404133445
95.5163154516738
95.4725984933497
95.4660655316804
95.4321223526993
95.4125558535602
95.4174046419237
95.4299260884006
95.4315175949902
95.4396318992159
95.436581396577
95.4311584409428
95.4663835739264
95.4723782843263
95.4659120300478
95.5089091011097
95.5360695784898
95.5319958056249
95.5178229731045
95.4990967893051
95.4907718043842
95.4742017432029
95.4353726198569
95.4908024059057
95.6012161992868
95.656211828115
95.6169313226211
95.5498725749782
95.6143382715238
95.7488437528023
95.7522752189814
95.7469566429378
95.8061750177144
95.8483198418733
95.9042025877256
95.9592056986284
95.9335129458287
95.9302879543059
95.9760990831016
95.9278132721522
95.8259381380089
95.8419862078415
95.9332272761491
95.9941894913196
96.0341516423301
96.0520542364757
95.9548230192976
95.8875075291948
95.9126623085519
95.9368599642207
95.9518577273173
95.9687417773221
95.9795502701477
95.9832578691121
96.0067898914167
95.9869850850744
95.9264412659018
95.955362828699
96.0436506907363
96.0999539553392
96.0673180189745
96.0050030317509
95.9790539869559
95.9926173437392
96.0290651834265
96.0534719121523
96.0296939120105
95.9962720312639
96.0147877250674
96.0564970390576
96.0009398881694
95.9464965473758
95.9542283894612
95.9628795009385
95.9363586818713
95.912354453368
95.9634652149009
96.0675971096561
96.1144693570296
96.0889533584333
96.0497734953904
96.0317494280431
96.0441420112559
96.0658822661717
96.0722263398292
96.0976833547775
96.0782208491471
96.0183978389681
96.0240196408583
96.0623720673527
96.0771025993215
96.132917489663
96.1713527049788
96.1430547812463
96.0958018340066
96.0474860408047
96.0211914815682
96.0566012786789
96.0654017760326
96.0034696018105
95.9644960794355
95.9730014633612
96.0385941477778
96.1591535742995
96.2514114815839
96.2857630220101
96.3321059415724
96.3678484302688
96.3459537930896
96.3659844003282
96.4304290775594
96.4757409214972
96.4802528531366
96.4834114557738
96.5152687336869
96.56428449022
96.5974382370954
96.5793146161393
96.5860893395062
96.6424483907342
96.6564197133453
96.6312253034474
96.6187041425049
96.643430621001
96.6489991587121
96.6478678751552
96.6633682653637
96.6848257579529
96.724934500293
96.7838148904688
96.7784048685584
96.75906544144
96.7856351709493
96.83857272016
96.8603727269133
96.8376757101551
96.8071336997665
96.7833188978841
96.7922676734813
96.8103525067294
96.8409141513042
96.8472586995211
96.7840459430492
96.7943306832281
96.8248791807516
96.8418617519425
96.876659786794
96.8473440161587
96.8497596972221
96.9075143654612
96.9230752828559
96.9461732287293
96.9852884071935
96.9855074863568
96.9808864661505
97.0312242593158
97.0425313649723
97.040385470247
97.0824001001514
97.1070289111536
97.0890950144468
97.1113960684248
97.1621355181405
97.1561887724378
97.1318503890544
97.1617960776072
97.3136556332451
97.3662465649794
97.2699096152032
97.241162097571
97.2769071155685
97.273590407536
97.23728045606
97.2402101195945
97.3116129386132
97.3344063114429
97.3066945474299
97.3625030824301
97.4009989088915
97.4052526992783
97.4205331975237
97.4138707926507
97.444540247557
97.5197781532074
97.4767522873439
97.4385886115517
97.4811463255238
97.5170056153695
97.4956448557649
97.4518614217712
97.4823395548165
97.5991919513688
97.6799653354286
97.6420698762522
97.6024514600581
97.5870778435469
97.5638081148243
97.5704541857203
97.54997213126
97.5852982414835
97.6739701144704
97.6770251212762
97.6738770387938
97.7015782664477
97.6961091751158
97.668845684547
97.6590405566365
97.7105521769124
97.6505066738692
97.6058612789065
97.7004502927631
97.7269878388004
97.6837096253799
97.6866245493475
97.7373036422869
97.7186408910224
97.7019131957593
97.7182710325448
97.6684993696561
97.7093690113398
97.8167258691959
97.8575322301266
97.8050453751236
97.6850567102418
97.6348294643243
97.7044469706822
97.7425309576473
97.6582260461439
97.5437862670565
97.5035766500772
97.5322391984022
97.5588981603464
97.5864197245511
97.5899558789018
97.5306889902181
97.5006955145197
97.5413748984996
97.5374282153044
97.481826535714
97.5170437223298
97.5834315086065
97.6229845768457
97.6246016057392
97.5460541423594
97.5059942713474
97.582781654565
97.5685437339647
97.5272938876318
97.5858372818422
97.5492442694704
97.5136608566014
97.5811220546961
97.6290140258858
97.5980167081721
97.5624379857321
97.5800596725448
97.6092714801595
97.5352723669223
97.4101439472406
97.4227746612684
97.4606049888041
97.3564943717713
97.279760846131
97.2650596646498
97.2876537392616
97.2968441520719
97.2516024667238
97.2099242215323
97.269731010078
97.3388043682704
97.2868115072733
97.2123492080457
97.147911018868
97.085397151308
97.0582109507682
96.9325707925016
96.7509801250122
96.5887726407813
96.3422607861916
96.0859964543569
95.9412720139686
95.8949779890187
95.9952352630905
96.171585292827
96.3128505981373
96.548176447134
96.8398241029087
97.0810663734034
97.2195147163255
97.3334294308163
97.515202536892
97.6550926845977
97.6902805564865
97.7038851843731
97.8135546364564
97.9668705342451
98.0166701419411
98.0186339005305
97.9805859842279
97.9783500903963
97.9527928638165
97.8130976471323
97.7275274238322
97.7143208146687
97.725559618516
97.7024905975492
97.6445601612854
97.6316570833839
97.7403341469226
97.9029162518776
97.9781440841998
97.8803814093781
97.7948087398351
97.8058468773735
97.8214948016119
97.81984086246
97.7983256722889
97.7014522108757
97.5851242039567
97.5712981311108
97.6402158359879
97.6871750196974
97.7193087997448
97.7538609421836
97.7622586726765
97.7875680956445
97.8179597786455
97.7844898304718
97.8070748396487
97.8983091156335
97.9291878619315
97.9335972492747
97.9931289949845
98.082420963077
98.1493790201785
98.0876303033186
98.033659070712
98.1707901702533
98.2419638001749
98.2703398132162
98.3046402711221
98.3227628783541
98.3752606363081
98.5207908597931
98.5849986684788
98.5443660225621
98.5882409684383
98.7318675717815
98.9149190696017
98.9412219977973
98.9318388455464
99.0027620806258
99.054024976469
98.9561190550629
98.8663728025478
98.9960696635805
99.1607788600923
99.1853821978609
99.2510945951417
99.3197202826661
99.2446914204089
99.1700690698851
99.1133493643757
99.2158761669348
99.4252427704001
99.5254266668937
99.5667462691117
99.5510405520825
99.5649705564606
99.6586187582364
99.8211333583716
100.053293026595
100.150883444919
100.137463665395
100.143635330852
100.012159129273
99.8116190446123
99.9126550095611
100.123049920184
99.8999188652031
99.6927185521857
99.9454301138314
100.234029122712
100.219990953907
100.103233170117
100.271688994241
100.553932305371
100.375023162754
100.189869412805
100.340160020777
100.480721427781
100.53441145797
100.591260000616
100.436613717989
100.137810724138
100.294143353432
100.47717433262
100.435235860193
100.720565994039
100.76022051954
100.671663673903
100.786028139468
100.778335748657
100.990785490128
101.231435210514
100.985929514018
100.795941361296
100.845312347481
101.053968114428
101.11394608353
100.96446778953
100.829183045664
100.472230947732
100.007972631113
99.8934904948428
99.8201549891012
99.7731017208533
99.7109363765555
99.4941242102175
99.3927026271623
99.3798989764669
99.2969194622267
99.1400521855533
99.0857396403667
99.1092242096721
99.0205663025512
98.8369700553272
98.7474218490243
98.8115953199339
98.8509287065849
98.7267762573141
98.5793911958649
98.6144805502699
98.733491998732
98.7751573772086
98.6916306641346
98.686312659658
98.7043370672078
98.6939669555026
98.6665165672748
98.649928507398
98.7353244337291
98.8319796056742
98.8570214625312
98.7586335688858
98.5537908698449
98.5750076652431
98.6785560143297
98.5781495806621
98.5756366090269
98.6739222302263
98.5816564523219
98.5398159287274
98.6743274340185
98.8930675195808
99.0000494953197
98.8873815415144
98.9421582019966
99.1224911578022
99.1596419162474
99.1807744612152
99.3150617895494
99.4581865920366
99.4998359814978
99.433273937543
99.3831624251002
99.389777309109
99.6310642286771
99.9725722839748
99.9536606617195
100.174468119866
100.4039692824
100.404105533514
100.488881501028
100.541345458777
100.452544472596
100.38941586313
100.619268310632
100.68339705074
100.627424941799
100.551057366933
100.603431099689
100.944494862411
100.730934510858
100.403521745056
100.120507788161
99.9076026757661
99.7675064932343
99.785516829364
100.092152217227
100.194227152722
100.236289319176
100.485181899248
100.338923591075
100.14133826967
100.345144449683
100.682118694796
100.489910017705
99.9730437879077
99.7320361057285
99.8397527874507
99.9320316720994
100.063646769143
100.320763703291
100.490776293123
100.346801860755
100.418866640678
100.587327186315
100.489344148043
100.230231361474
100.000125355806
99.9794817587424
100.139956151216
100.209933346034
100.046639537103
99.8272736109331
99.5124563839878
99.2540132715001
99.429698676227
99.6668050133084
99.634090559279
99.5203351037791
99.52098820093
99.5699499608753
99.4406388903967
99.1997560467723
99.1910762845666
99.203420532568
99.2255465783847
99.2540256619102
99.1855664056437
99.110187869822
99.1287701300953
99.1113236114323
99.09852676977
98.9897312457972
98.9959251669682
99.0990093595748
99.0216657048713
98.9182957039887
98.8920947900234
98.969577179655
98.9913963395369
98.9145954635628
98.8873926657433
98.8891901398459
98.9068029323685
98.9559790732275
98.8930949620783
98.8407562408538
98.8921459396011
98.8970842793503
98.7872598223069
98.7821275628099
98.8243308131453
98.7906276283343
98.7694973600615
98.7223666346986
98.6985189685541
98.7584385815556
98.7877233405855
98.7252162390096
98.6885002373029
98.7157934146115
98.7657169401201
98.7660884631424
98.7109939463571
98.6723583113324
98.6926171358503
98.7373793399519
98.7776759906925
98.7222834773956
98.691185711736
98.6911672602134
98.6098275964885
98.5402565240732
98.5797060137991
98.6245845267664
98.6194268479219
98.5885610687239
98.6201876853305
98.6333146616092
98.5580373912318
98.5253568551725
98.5285679588267
98.5051068862654
98.5110148120014
98.524097791091
98.4975467403602
98.4735080334635
98.4588791763307
98.5092499785172
98.5237939149518
98.4376720818975
98.4096989712464
98.3906368880647
98.3755199751673
98.3856737469224
98.3738898099489
98.3809341204901
98.408631709048
98.4145547042412
98.3434150243312
98.2595304933906
98.2415785936833
98.2273218342482
98.21573870601
98.2418497533939
98.2016653516498
98.1505926426669
98.1336446527683
98.1204257231482
98.1199083778174
98.0602095593509
97.9939337980475
97.9627065444461
98.0016721764505
97.7870819380203
97.0066962683759
95.6029453040243
94.6356300113733
95.3374393786251
96.4379562602035
97.0441123474954
97.4300038533348
97.585633606264
97.6442949456956
97.7684417401893
97.8985832864622
97.8841271722021
97.8007602776205
97.7885629523154
97.7765329156988
97.710137532979
97.6497935843499
97.5689094976428
97.6376029318671
97.6331680171335
97.5408731077011
97.4330362582173
97.4054220659372
97.3755119971352
97.2634148879141
97.1236909812392
97.062053382066
97.1515121183883
97.1257026540107
97.0091023911969
96.8353882104782
96.6995543025713
96.579682849732
96.3960047526977
96.234583903341
95.9671820472201
95.7917287470288
95.798291092889
95.6183661766198
95.4488524115985
95.2484703686973
94.9630346044968
94.6315668102778
94.4151990021343
94.2402785073745
94.2155564790599
94.0355603525212
93.7209008299173
93.4705630049027
93.2154221106062
93.0113558875016
92.8578719959927
92.6905024788201
92.5224326379367
92.4124966056649
92.2349615561717
92.0328543893004
91.9884776449468
91.8621678209587
91.6700876033915
91.5287731421805
91.3939855364452
91.4618524639992
91.4128577500014
91.15887227926
91.0657066018642
91.1477951260479
91.0428360239808
90.8182424921748
90.6657516431281
90.6135371249773
90.7623692260821
90.8532252233644
90.782068322212
90.643876659849
90.5941980415325
90.6598340583896
90.6903230830982
90.709459371984
90.6519697744967
90.5511533072915
90.5914271959103
90.7159967781696
90.6922585633182
90.6348285841108
90.6278125896301
90.6997328155069
90.7231342643218
90.7380703541855
90.7634734461598
90.787982612885
90.824692855221
90.8639157758603
90.8719433933543
90.8574009461277
90.8501795005045
90.9004880418436
90.9330269532812
90.9253340540671
90.8727759727143
90.7676617197324
90.6894498639987
90.6533544616472
90.698140179733
90.7209395266683
90.5839201125461
90.3753522077744
90.3888485009715
90.3173249384359
90.0920424423211
89.8608995826779
89.5026214655811
89.5160228618761
89.7094270669171
89.5528395395903
89.3519605698937
89.1744428891749
89.0300646868779
88.8507309753872
88.5312860499071
88.2874406041563
88.1981147545111
88.1608075076538
88.0869967878995
87.9349742689835
87.6151496377926
87.4797097871537
87.4054909887
87.1874450958496
86.8534070856521
86.6448253741764
86.4009331706958
86.1424086966139
86.1050813088841
85.9021933005029
85.6931094817511
85.4976443951033
85.1539433974512
84.8060614792005
84.4423736904732
84.3964635692202
84.5662472050449
84.4166513074403
84.058642877499
83.7959040687729
83.6933396126345
83.6796019565942
83.5713240903675
83.2797176891315
83.1065720991841
83.1729538054139
83.2057756521224
83.1539762673785
83.0432517179322
82.9927118309774
82.8805629889742
82.6932418690015
82.5527691642345
82.5299364833019
82.6860922150562
82.6842729234293
82.517123149309
82.3177724530738
82.2842332160639
82.2064721214108
81.8908651039874
81.4059052514359
81.3393390519163
81.1914353284889
80.4586169596396
79.5363607495081
78.5320696275937
77.6128486177424
76.814989494324
75.9828359568223
75.1867128733935
74.5024679392019
73.492113993236
72.4670776829551
71.8371252993352
71.4872847175423
71.4234114147336
71.2713374549339
70.7579387346581
69.9742810267267
69.31153763798
68.5908559181546
67.6591805898324
67.0943125792651
66.484610357321
65.751153000655
64.9575752832274
64.1880271611456
63.4663769598289
62.6714028503417
61.8961369495667
61.2767171679861
60.4221525906578
59.5753002778106
58.8422073041329
57.944279861165
57.1582484078079
56.4043347934466
55.3914112024663
54.2216257549613
53.2445467075573
52.3719725692717
51.4742309321078
50.6932688598761
50.0769351098604
49.6991615662826
49.546176250968
49.8734088230823
50.3349795810444
50.7903797332052
51.3195527113777
51.8576953832859
52.3650388895775
53.0435373191047
53.7229772855768
54.301720114786
54.8059633080803
55.3777818869964
55.9555794374862
56.5210190614665
57.1040118907511
57.6935653677431
58.2069549964898
58.6933560018192
59.179434151768
59.8077384345566
60.4320399186938
60.9611282380002
61.4109796033664
61.8965454010159
62.3673291441553
62.8218148259294
63.275987988623
63.7539283259291
64.2123575277734
64.6774590856467
65.1573711036757
65.6589158355496
66.1189091451551
66.5982100972929
67.057348365885
67.4841169873178
67.895904908163
68.3352871127804
68.7458863607959
69.1387734309366
69.537480359321
69.9566932526879
70.3561434945554
70.734944735886
71.1020103519566
71.4771546415083
71.846167889577
72.2225732749228
72.5698084484812
72.8874159256327
73.1997398327376
73.5192215393734
73.8116604234987
74.0992595664837
74.3553766195648
74.6094877748212
74.8811253838464
75.1774239744113
75.4287781211677
75.6817618771083
75.9391685764942
76.1629494158488
76.3796219866817
76.6161982704909
76.8265268372268
77.013026226737
77.182486487698
77.3772573732786
77.5781685115146
77.7822708271635
77.9448696943424
78.1261231258063
78.2952145122969
78.4555139876606
78.582507547888
78.7214663803515
78.8532406042333
78.9563763449825
79.0546071633555
79.1566398746304
79.2043625835343
79.2129204448833
79.1817499021331
79.0820017917049
78.8619708184977
78.5275574423579
78.0596556015844
77.5014953856806
76.8218988604644
76.0113126988054
75.1524317101499
74.2510411548052
73.2902845300735
72.3427413451255
71.4077396838063
70.5478531979583
69.7592988692769
69.0432702295317
68.3676373883473
67.753871877372
67.1658986149051
66.5503640654082
65.882338558111
65.2613415172485
64.645506635302
63.9903426290751
63.3014798623975
62.5927891362968
61.8869921144597
61.1957033345583
60.4738362216913
59.7574136625056
59.0047160083972
58.2487962279227
57.4804907177534
56.7140767836173
55.9076633190506
55.057273194666
54.1847347210048
53.3126031410584
52.3796713721964
51.4507503460661
50.4889776369236
49.5051724275141
48.5005687563578
47.5622689789601
46.7336051938587
46.1400634975591
45.9195447248449
46.0983183807849
46.4352849626046
46.6900002431446
46.7402292766987
46.6792882125832
46.5746028653255
46.4851286184917
46.3929433668777
46.2806278055622
46.0888879385569
45.8836027162633
45.6895593061421
45.5904050628772
45.6130216905859
45.7872185939115
46.0965295121255
46.6159863474125
47.3847007195189
48.4768424630463
49.8881386557939
51.6162066456766
53.5543694151984
55.6041144023343
57.5730504070498
59.3721936185954
60.9901516983789
62.4612507724354
63.7773663046202
65.0217693824893
66.2392543192379
67.443783741099
68.6135259779581
69.7923698174341
70.9022957979664
71.9203897563197
72.8710920814512
73.7629227753094
74.5969742367246
75.3923985625624
76.0938909912049
76.7404499187028
77.3384970957162
77.9032066968537
78.3199383772981
78.5549846679481
78.917081097979
79.5149932093263
80.0553558614123
80.5653050264354
81.0283993137066
81.4530366621746
81.8453107906947
82.2173486924487
82.5586862689142
82.9082425599161
83.2535037861402
83.5757163663814
83.8791002841819
84.1548340336182
84.3741560821665
84.6347082423075
84.8928204582144
85.1203083210613
85.3085693816016
85.4953436896649
85.6655663439394
85.851289049633
86.0097035292242
86.0832013717082
86.0177372888653
85.7283892755235
84.594226752587
81.7343637802264
78.5789354604088
78.8418097528523
81.878862592722
84.3118188425685
85.5295175197999
86.1747598643863
86.5856092783227
86.865544941271
87.0723269221877
87.2948874428704
87.4962766630057
87.6453514491641
87.809514231719
87.9905056094715
88.1213624334979
88.233974099836
88.3483773997147
88.4816282525735
88.6057865731378
88.712231672562
88.7754987771406
88.8135155986333
88.8702915727111
88.9735088994572
89.0546051302878
89.1284638887634
89.1893055478563
89.2350036953678
89.2867969748047
89.3143818775257
89.3294497903247
89.3647014352147
89.4224984944942
89.4874552266655
89.5327359079586
89.5775074631402
89.6272545360481
89.6827263580684
89.7231600011756
89.7543457233026
89.7623693741267
89.7666614848595
89.7811560140406
89.8185726867394
89.8388267637534
89.8865966021491
89.9266556331867
89.9180520032846
89.9186766705839
89.9181049297558
89.9189853764212
89.9404224098763
89.931575386609
89.9241332818566
89.8898844903063
89.8583952254015
89.7966160650041
89.6902971515656
89.541740035882
89.3825461067363
89.1024132379657
88.7563402709015
88.3368663283482
87.8828830043147
87.3633008110427
86.8488416471847
86.3555617388531
85.8811858703861
85.4325769794526
85.0532057835587
84.7330427946406
84.5344551290714
84.4796271770666
84.5605576994464
84.7536298548166
85.1458331910229
85.6585704092561
86.1654048967068
86.6823181890116
87.203826791178
87.5686414659423
87.8390494269261
87.9886626817361
88.0254646611979
87.9912963778259
87.8831186883161
87.6443548575287
87.2885501556137
86.7646910194752
85.7349323854039
83.0679302071569
77.2764808041738
69.9940319499247
67.1291964605922
70.9764344701264
77.0444122817498
81.4594033326865
83.9931809584387
85.3540589592132
85.9415011956677
86.1280407224248
86.5064133190425
86.9112503559349
87.098229764372
87.1433270640238
87.1359644979028
87.1650416637981
87.1853718119924
87.1648543567664
87.1788040569472
87.1444650733816
87.0609146472775
87.0012407282985
86.9824916630007
86.9471254667342
86.9161133628327
86.8729905203833
86.8339878456386
86.7844752941901
86.7139962371781
86.6360448761003
86.5967784557906
86.5275396038074
86.4280285364627
86.3373314088478
86.2871519494202
86.2433512067011
86.1759623456429
86.1045715094628
86.0164612049502
85.9360496682608
85.8598200063624
85.7723139409609
85.7422968169207
85.7267812745344
85.7200732232935
85.6978651979087
85.6345057119921
85.5395942171772
85.5207206844557
85.494543186459
85.4462615019936
85.3926024872209
85.3451718531986
85.2664183975325
85.2088402913536
85.1602075869518
85.0564016806668
85.0124949982174
85.0115768389288
84.879489109293
84.6800412690053
84.6717757118494
84.7134726030572
84.6744091055544
84.621375878701
84.5204729183886
84.4333938406072
84.3948981104596
84.3661854023676
84.3012241920795
84.260060150033
84.2478801497575
84.2269804735734
84.2684139651845
84.300720614471
84.2264753022577
84.2311185748648
84.2789317770394
84.2880213808061
84.2414595780227
84.2825690396979
84.3212299546193
84.3527828802567
84.2883575679361
84.1641227492576
84.0009429356075
84.1590953115067
84.18844189247
83.9221300612047
83.5341517423016
83.0859569513305
82.6898072069154
82.4864691190322
82.4951166486595
82.5081900296607
82.1274071484269
