1798
3999.43349933624
650.420452594757
1
128
4
95.4226439958304
95.4097900324484
95.391891638171
95.4259548737993
95.5338636504308
95.5867767611503
95.5601600562204
95.5602690430339
95.5195362615232
95.4306950328965
95.4032780536323
95.4847163302941
95.4841858840548
95.4196816938205
95.3846688134888
95.4429856196454
95.5164334506696
95.4901967150442
95.4363447762686
95.4922322404044
95.5027110949093
95.4406262484804
95.3693713723105
95.3499063689352
95.402631100343
95.5265828773015
95.5217017133237
95.5547962188941
95.5702218276686
95.5482283340062
95.5648597001937
95.5773122043963
95.4912606551277
95.3516729828285
95.3577258357595
95.4370845393771
95.4546551959454
95.4688931494908
95.4407290817791
95.4800269326309
95.6012280080507
95.540884762
95.4489480938158
95.5387888232921
95.6340234054317
95.5206039068796
95.4426046389229
95.5195446349431
95.4475192620514
95.3575491854713
95.3816643207347
95.3829409595455
95.3616900473643
95.5122082343762
95.6634708498531
95.5964658553707
95.4586356736438
95.4977479094468
95.5168184890324
95.5010302392078
95.4572016348672
95.4790551894336
95.507567886047
95.5275715492297
95.6036777242619
95.6538991318916
95.5616083480984
95.4933974250336
95.3559777914412
95.4534236919159
95.5552185954341
95.6119732255786
95.6638190780486
95.687587593289
95.6149964429208
95.39328062178
95.1585850330573
95.1210901955527
95.4102864005233
95.746704905818
95.8430294257465
95.7509242406787
95.5054632464702
95.3243542515508
95.2129812760968
95.1629780888467
95.3738120420546
95.5816544657475
95.5857040321575
95.5835879589387
95.6520004397734
95.6015912314585
95.4970007782601
95.478828038487
95.4058268161032
95.3977205241805
95.4287256950118
95.5551154414976
95.8030570807708
95.7634526903197
95.651747873392
95.6040958781729
95.4489431976263
95.3803371328806
95.3499787867022
95.4261115943467
95.7063898967921
95.7853816781407
95.7308508471162
95.6861184578458
95.7358950776682
95.7208218348677
95.5718084064454
95.4573588751553
95.4364012378232
95.4519732950976
95.4661122892525
95.6239961324969
95.7312549010195
95.6586535656284
95.6100758402454
95.5903269933476
95.5750959431063
95.6446448941513
95.6789343420975
95.6741806516251
95.6770875598677
95.7239341742095
95.7196592313721
95.6531761261451
95.6718557451759
95.6281821072348
95.4998349907319
95.5323514677911
95.6845252767825
95.6064233267548
95.6319879063128
95.8928259345826
95.7681366483706
95.5152192216698
95.3249101222077
95.3030417130494
95.4612821508775
95.6807865621223
95.6289834437854
95.6033329060927
95.6957967870511
95.6198673551943
95.5312302553954
95.6958863839615
95.7726806707238
95.6469953876084
95.5103505540457
95.4489535157437
95.5099634712966
95.757967321121
95.9163828274265
95.8446437439158
95.6658761438292
95.6323135501516
95.6825917792986
95.7411634322796
95.7371405727346
95.6304002805591
95.421312869839
95.4232159612215
95.690856549884
95.8481083806871
95.8121060299248
95.8481840248084
95.7268202851182
95.3892119301433
95.1876299625174
95.2294566371239
95.3978452076374
95.5884034963306
95.660547589077
95.7198368117209
95.7194199202947
95.6899798241811
95.6773037024001
95.5916366537516
95.4426301204218
95.5390244444976
95.6850280751845
95.5608319243158
95.4892448967191
95.4613165852974
95.555154667717
95.7678724383207
95.6641391548374
95.5941879310537
95.6222349457346
95.5758011120841
95.4592051966324
95.2956001410379
95.1814382273707
95.1471610209887
95.2563885447313
95.4807757626808
95.5192224170963
95.4299093367998
95.1982370666868
95.1932253695513
95.2362774068593
95.2117007948285
95.2863178857555
95.131852926962
94.9504399566049
95.0453666671384
94.9911503474021
94.9957653129684
95.0067685778693
94.9344873927776
95.0001385591428
95.0617708300529
94.9034250436099
94.8486074448085
94.8519909293091
94.7113524318664
94.5783242972038
94.7981238453113
95.0282190964222
95.0556389776903
94.8661016295239
94.7630497832273
94.7697280108354
94.717067495202
94.7075955961605
94.710519053532
94.494803360844
94.3761463275873
94.4861315239553
94.6652363180113
94.7014405613342
94.6598513230598
94.6927636874536
94.6180596695425
94.3737591490961
94.3467515826882
94.330226609291
94.2324189436981
94.238214736742
94.1790085109073
94.1912496313353
94.2926245585343
94.2570131281501
94.2154439913986
94.2627508781979
94.2901785254518
94.1916891131063
94.0690181454961
94.0515269093484
94.0794091241624
94.0924714102409
93.9922516284298
93.96396911224
94.0757351767831
94.0662686969244
93.9802137755738
93.8359141094214
93.7643901169826
93.84719021237
93.8641033986639
93.8576031803588
93.8571440742444
93.8020820977438
93.775118552597
93.8000381139722
93.784152474662
93.727527333624
93.6138922634996
93.5897655680068
93.5686333942296
93.4751627990716
93.5341796213864
93.5838813596225
93.5156340147866
93.4794077900262
93.4527037000833
93.4017570880889
93.5006820963305
93.4864375018876
93.4390344051899
93.4297020897396
93.3717767566414
93.3372345182868
93.365339168308
93.353067175013
93.367230469737
93.2858940796047
93.1648300373919
93.2299556776665
93.3602950407182
93.3033693279834
93.1683495891093
93.097272851012
93.0370864179122
93.0195212762479
93.0676316901742
93.0041160199362
92.9864336732629
92.8915418800504
92.7627005799585
92.8637221273316
92.9386079009346
92.862928045939
92.7997669204614
92.7706134812443
92.8233363779075
92.8536150935195
92.7895890881621
92.6968167062579
92.625845753133
92.6034903084468
92.5811270850806
92.4960333905
92.4932092401251
92.528999487584
92.5351892044197
92.5235668760743
92.4854741228842
92.4452170449609
92.4372658731325
92.2887625327469
92.257125871501
92.3688531490752
92.3817200553341
92.2311426615606
92.1847448922966
92.1879655857055
92.2075131233349
92.253960820872
92.23953603618
92.2006498272116
92.2390731397195
92.1610429691366
92.1366087930789
92.1561833413292
92.0606943735632
91.9646148736763
91.9864308881868
91.9607542665921
91.8929197945657
91.8685284221644
91.8793273540555
91.9347600147032
92.0120279799296
91.9409223997871
91.8442600857236
91.8791193079488
91.9254549714693
91.9415968263417
91.9231398942317
91.810086427733
91.7379974771279
91.7604098561729
91.8341933507943
91.7912491009295
91.7514441518448
91.8107203282449
91.8638854209144
91.8073384421703
91.7913129269113
91.7327194898063
91.6498957521067
91.6807772520224
91.777896064359
91.7145003912264
91.6386487121642
91.6547980015474
91.7488026234004
91.8283876411491
91.9560692844997
91.850958741182
91.739101206429
91.7789520333593
91.7557756652285
91.7230308194177
91.738636397553
91.7581106619455
91.846746308621
91.957419533101
91.9541899295707
91.9937358846817
92.0782402595766
92.0895429720321
92.0858886368999
91.9952781686109
91.9988349940391
92.1132019894376
92.0815812826139
92.0428681948092
92.1356374610378
92.1659246485801
92.213019697381
92.256422670704
92.2475529696416
92.2605768479503
92.2821324637142
92.2912713776245
92.2977621355976
92.3172133464347
92.3855672035933
92.3766685622647
92.3026944345488
92.3243558570637
92.4259895181406
92.4712720968321
92.4975875690622
92.560189193268
92.5846424583109
92.6139695294413
92.7187597798586
92.7382643580283
92.6771923047926
92.6909319959536
92.6929390088617
92.7347114252321
92.8605881061894
92.9226743999947
92.8685615778925
92.7615757403965
92.8246554548783
92.908892781913
92.9051429221942
92.8631658527063
92.841556164683
92.9359885320649
93.0793793835034
93.081864966035
93.0688535644753
93.0958208726314
93.1806382145715
93.1310070003479
93.1011296442758
93.074783835968
93.1785008590684
93.3579064003719
93.3870364697113
93.2574891947272
93.2918510936719
93.3396610622791
93.3543171306109
93.3258992558166
93.4123628708263
93.4908523647417
93.4578724541163
93.4287744765304
93.4990392495968
93.5232616211639
93.5437022701853
93.5593587054177
93.5657940837144
93.5783951756256
93.6382063593401
93.6638878490668
93.6518478652833
93.6489333686829
93.6292299062333
93.6866590624706
93.7607354408223
93.8099104740844
93.8246137330586
93.7835116998136
93.7965444235578
93.8447648322236
93.903517743043
93.8610635917272
93.8904825829592
93.9907081021155
93.9750952317548
93.9410463601609
94.0148790364327
94.0534255561277
94.0291003136905
94.0304227818258
94.1020011769624
94.1321655139372
94.0793282047546
94.0475347315543
94.0835979970112
94.1162460931221
94.139374790399
94.1261778528008
94.1624026482546
94.2150018877089
94.2663720552286
94.34910226192
94.3586601501705
94.3000084306506
94.2733286418106
94.2622604780399
94.3355081820647
94.4068908525222
94.4828478469596
94.4910136018617
94.3759552428744
94.2953185502792
94.3318492144757
94.385758794274
94.4293167353669
94.495606930078
94.5250724970477
94.4610127938002
94.4860499132528
94.5390894009205
94.4938579750562
94.4593621305549
94.4860545032419
94.5254289592866
94.5666887460661
94.6542290619483
94.7222895803926
94.6598375762862
94.5908563528298
94.6037671892389
94.7100764446623
94.7361402009556
94.7025253508911
94.7040041832021
94.7251819594097
94.7514530141617
94.7362075097746
94.7562402460341
94.7642351953443
94.7522657975477
94.7996137103098
94.842097786582
94.8524672263366
94.8584411331974
94.8638700465269
94.8920178978115
94.9106557281251
94.8721316339769
94.9024863636958
94.9771607914468
94.9734334083378
94.9548840119106
94.9068354036467
94.8911978872586
94.9380680502103
94.9922562962033
95.0077940508383
95.0086053693485
95.0118108482207
94.9965992175283
95.0273159131656
95.0658340381563
95.0739183738306
95.0592628326877
95.0349265730773
95.0306634177205
95.0657404813729
95.0646597520372
95.0130358083103
95.0406071631819
95.0854982141314
95.0196908120642
94.9797867624331
94.9757582431493
95.0038240424473
95.0612476495665
95.0751625940822
95.0900715382055
95.1125509531733
95.1422191595001
95.2113769666014
95.2160399472907
95.1549490431619
95.1457840916945
95.126946420626
95.0626393974014
95.0795560717204
95.1896553727005
95.251811265497
95.2498660075374
95.2226304736777
95.1847243840944
95.1818550755374
95.2234736529355
95.3157285321396
95.3599603520467
95.3814015301894
95.3624096132843
95.3148395330725
95.2905765964801
95.288052415911
95.3131817605581
95.3725191823156
95.3415981953857
95.3076526424007
95.3577140849562
95.4262929574514
95.4359933051759
95.4101041049718
95.394245852268
95.3722104910052
95.3362516413415
95.3733825486312
95.407074136337
95.385330014507
95.3573044852158
95.3991833217576
95.4922730782314
95.511034156808
95.4342472058647
95.4224431999235
95.4173755810667
95.3777893040894
95.3709645836836
95.443254506909
95.493185919652
95.497217963741
95.500922383771
95.5021674547441
95.4533134555627
95.4449012237841
95.525174015023
95.5506773260178
95.5043754309784
95.4829445256997
95.5601163937822
95.6621310709731
95.670806662305
95.5902547759472
95.5486711478189
95.5668267100337
95.5545785418092
95.5101558036134
95.5000744098849
95.5330698311672
95.5788312544552
95.6195237528023
95.6407576151035
95.6096617860185
95.5503800820571
95.541351945879
95.5988886579201
95.6310640814509
95.6065118589685
95.5691126437691
95.5319705889987
95.4778012167386
95.4827760256856
95.5138307319585
95.4816131703554
95.4625455518549
95.4794249768547
95.5380429186301
95.5333922140441
95.4432793625702
95.3486178466678
95.3062461972013
95.2582369220508
95.2106604002834
95.2169180811392
95.3331768470496
95.3892476083968
95.354292407043
95.3259934761043
95.3100372088868
95.2964840985255
95.2936653139956
95.3762611940874
95.4311076141293
95.3762403842671
95.3386047483118
95.3254319261994
95.3344933672009
95.358703485132
95.3938046649945
95.4329919569528
95.3962749156452
95.3030192992251
95.2067123059475
95.2135736169097
95.2494244883145
95.2335041913755
95.1299134032758
95.0348276218288
95.076405304418
95.1499841698817
95.2271300563603
95.3063368293106
95.3937890547983
95.443864059998
95.5178595177947
95.5816208850777
95.5864945922149
95.5955810487078
95.6004820490828
95.6388252216802
95.6740574855441
95.7060671654168
95.7091856997636
95.7158029705163
95.7922480929574
95.8398346673332
95.8199813901137
95.8211711762429
95.8346034233823
95.8367764109965
95.8606486592471
95.8497483698064
95.8088753638466
95.8183370375728
95.8555845355557
95.9022154539537
95.9330529014922
95.9907454477122
96.0251749915151
96.0448319184628
96.0642269434372
96.0270110657173
95.9931824175481
95.9826682796626
95.9724389212157
95.9667422968216
95.9209576210287
95.8995751124598
95.9395787514406
96.0097610878849
96.0221326963182
95.9933843396909
95.9902755263092
95.997453529789
96.00325363954
96.0079114036648
96.0416493286503
96.0933949002479
96.1009107650491
96.0829794941474
96.0571970500304
96.0195825973353
96.033345167186
96.0941719022533
96.1961267513881
96.238070417722
96.26471885281
96.2988646652145
96.2382042797658
96.2340533655622
96.3028933317877
96.3067086677777
96.2165132924491
96.1685378632199
96.1938187992319
96.2590848173854
96.336752796672
96.3663091130058
96.4203938756426
96.3942314614191
96.3602100785099
96.4063528847057
96.3907093154076
96.4229996976418
96.424244949993
96.3403750113591
96.3668939632469
96.4917684312765
96.4852346082894
96.4353535196834
96.5233392909109
96.5988467307305
96.5934333797995
96.5250020074493
96.5209716111031
96.5937309267662
96.6428076442965
96.6018292849554
96.5465328740506
96.632939513058
96.6128328109142
96.5294527675764
96.6504136156753
96.7081067403076
96.6184958621588
96.609944886714
96.6812183329226
96.6889905270019
96.6037637954142
96.509618426489
96.4957244850755
96.5620643282331
96.6977429127302
96.7335989239545
96.6111147643629
96.6889673417205
96.7612125469783
96.6847546788705
96.684817984751
96.7903889933442
96.7418368445534
96.6051036397078
96.6209209206801
96.7058636907625
96.7628197260943
96.7299984346014
96.7015452477881
96.742066112526
96.7399328393517
96.704940556229
96.7276489419731
96.7406370208362
96.7277968744153
96.6452071809976
96.5465301245784
96.4459787024165
96.4448979551628
96.5146976059972
96.5231229895301
96.4723807422723
96.342955327267
96.2689123552057
96.3397153484465
96.3441140640509
96.2972656283793
96.3873023469736
96.4693878564334
96.4550515382039
96.3792536570934
96.3967325672926
96.5184272827158
96.5225145124523
96.4254307447698
96.4370512337231
96.4655675332697
96.4696776916398
96.5160487673679
96.505973563462
96.4625316251994
96.3967262384093
96.4244966639251
96.4128260888191
96.3875026119762
96.3740364158711
96.3764975798916
96.2959659586144
96.2925427376159
96.3141125606741
96.1733443842272
96.0197899619295
95.9880134608018
95.9289936917709
95.8289407796005
95.8525700157251
95.8816869898459
95.8562292802219
95.9210624993855
95.9882644101978
95.9835828006233
95.9680043380001
95.9054426316664
95.7844798509936
95.7122859090083
95.4976653245959
95.2153274378973
94.9554359809763
94.5972127439091
94.1741452464698
93.9036923161608
93.9645786799815
94.1550714665825
94.3784405454037
94.6920117579369
94.9604896860959
95.1625650513079
95.4368665408331
95.6906452543076
95.8848999862874
96.1460487725974
96.2651271225994
96.2653956418703
96.3555868045964
96.4709748162486
96.521961342849
96.5534921449512
96.6140773892178
96.5733238884896
96.49777167867
96.5269867286814
96.577275289293
96.6163062532503
96.6457342359952
96.5279980450248
96.4086267395824
96.4401171314741
96.5422015161862
96.5963059769354
96.6273868218054
96.6573248341392
96.6816832249674
96.6745814404136
96.6210887896859
96.585574582963
96.5840592332889
96.5863493699059
96.5571175760171
96.4375453779353
96.3996330070493
96.4549752655756
96.5152161767875
96.5944791188425
96.7023483533542
96.7273617686595
96.6703653187676
96.6767538945325
96.7242096979676
96.6946078262355
96.6675278355014
96.735408100957
96.8452191334608
96.823625078736
96.7450752454011
96.8534907960856
96.902708372991
96.8888894713464
96.9725356589205
97.0255369934205
96.9928650808041
97.0246303867559
97.0473609169931
97.0460690038726
97.2051936209608
97.3916230609146
97.3881498835167
97.3819079417932
97.3236497339267
97.2626125687414
97.2231496796257
97.2701907842434
97.4649977122571
97.5753429769557
97.6413216182408
97.7177612306864
97.7238613415491
97.8689403864534
97.834877223049
97.61586044288
97.6423253934758
97.7811123288949
97.9742270135533
97.9525767302371
97.8085819005719
97.907836259827
98.2139842043849
98.3270218917299
98.192566499318
97.9649610743898
98.0447264899308
98.2534085458734
98.3673810234168
98.1029059593303
97.8548768650166
98.095447454812
98.3232580894602
98.493111212678
98.5982259696047
98.5614568679299
98.3127671115444
98.3143224259378
98.4896343723697
98.3315024129336
98.3652541861784
98.507137602165
98.559630425686
98.6732904511974
98.9548915748582
99.1340815728898
99.1439421109133
98.9687258406538
98.8718036526517
98.6157047450222
98.4341234561896
98.8037734773829
99.2833079869824
99.3202263923704
99.0959020018695
98.9265519625121
98.9208574241461
99.3239030622411
99.6798298636147
99.3246567312354
98.9690775735775
99.1979071697123
99.569803903757
99.9986694779726
99.9821971863437
99.2960060668701
98.9563354364523
98.8885502198743
98.8959710661944
98.8302828649881
98.9044143525782
98.7063785990687
98.3022950151934
98.0715197200556
98.1318501091329
98.3138524148278
98.4681839891968
98.3132655812942
98.1623335128391
98.1079189086154
98.0335545713636
97.7571102873342
97.6214053194047
97.6177549552328
97.678289161263
97.8661800199403
97.8303125582867
97.5643499778441
97.4662383519412
97.5992414130538
97.6853461818946
97.6667036307276
97.6178803596362
97.4807771726715
97.5334114997625
97.6067539378865
97.5852769791964
97.5731366646757
97.5148827995288
97.5445896716333
97.6432629922278
97.5592267355881
97.510416279571
97.5531446175575
97.59531256052
97.6089256913432
97.6129232016139
97.7367006515181
97.6537334420657
97.5370571748437
97.6443800683872
97.6752633662582
97.7100580045609
97.6970065995289
97.617744183409
97.6479585718325
97.7215615627338
97.7376200872234
97.8888503429967
98.0226613542818
98.0886164798475
98.1043962065562
98.1548382055263
98.2865098918674
98.4248029510923
98.6480826486351
98.7911650651136
98.5607222651199
98.5330234045995
98.8949013697942
99.4009155621438
99.1687916520175
98.7780568380022
98.8956627647748
99.1527098650747
99.3815145571756
99.3875738893096
99.2087262518472
99.2168489779138
98.901054758045
98.6656710272374
99.0053794362158
99.1489513305013
98.9228576597218
98.9018982325752
99.0244560101225
98.9294430003296
98.891825972386
98.8435573307994
98.695506483062
98.5171239077729
98.6215512605545
99.0282830249238
98.9667053998582
98.618703888828
98.6597710227909
98.8285185486539
98.7758089238027
98.7547119285574
98.8449468862591
98.846920297917
98.8554668929537
99.0341318468293
98.9469495857271
98.679754019083
98.7109754908034
98.8466794852266
98.7283808360075
98.7855665147087
98.9421646204227
98.5703213700935
98.4671270746825
98.6178989998402
98.581002712299
98.662353282875
98.6761414542058
98.5097125584576
98.4112364490119
98.3383602052046
98.2542299793994
98.2689425429305
98.3278185971393
98.2781553167944
98.1984277650411
98.21241615211
98.2385214979376
98.3217450138754
98.1650252719361
97.9630681239182
98.0017428000525
98.105818457706
98.1534171052899
98.1607453042896
98.0987148308485
98.0386647653716
98.0452551916667
98.1431534656143
98.2045876649181
98.0213563082303
97.9283257984077
98.0530238006925
98.0730664597452
98.0321170326185
98.0045171158247
98.0885617653124
98.1187904737873
98.0733891078113
97.9962615706423
97.9907529493202
97.9532955347657
97.9582378218224
97.9698771789653
97.9869491146724
98.0300394497776
98.0535909171554
97.969424935191
97.886551904645
97.8255864202499
97.8321671605348
97.9604069993502
98.0832737522537
98.077260079694
98.0375406135722
97.9802276510553
97.8873698172765
97.8245250972218
97.8796821700648
97.9057546124145
97.9251494738773
97.8913693584748
97.8768389658079
97.9156142994443
97.9810488239256
98.0275272877949
98.0217411341307
98.0261737825892
97.9888985723455
97.9110131040347
97.9067023085088
97.8616128115715
97.8396413061358
97.9502701763808
97.968945749538
98.0109041920124
98.0069513113274
97.9759091330083
97.9943819302787
98.0317899323432
98.0031172122382
97.9415310064178
97.9264992531868
97.9250488040601
97.9423765262941
97.9940251171746
97.9419990691463
97.9238055973794
97.9996841309533
98.0147152909594
97.9404772728846
97.9097599771359
97.9465850530088
98.0161798970063
98.0130593314654
97.9789770782731
97.8950736680116
97.886069819039
97.9245169836399
97.9783032593838
97.9279040169845
97.8548264105358
97.7986057708046
97.8879082149162
98.07348038162
97.9853309717231
97.2345200343577
95.2574454675216
93.1515705586434
93.5727204252511
95.1081352350286
96.075052412322
96.7818035413965
97.0996385050204
97.2712027594674
97.4282776025083
97.5678010395223
97.6315824803162
97.6274846022765
97.725817325702
97.7327204055234
97.6681544836925
97.5755319155621
97.4766208604576
97.6646837960452
97.7204982264274
97.7805362943879
97.6882550561758
97.5711882081922
97.5527764446738
97.4927145405235
97.3784128667936
97.3934909876887
97.5848498432647
97.6960692550976
97.6543418221049
97.475951128321
97.3219892785858
97.2210267908674
97.2263221868522
97.1616346769661
96.964772382262
97.0777029989485
97.1010078878342
97.104833489474
97.0786559029436
96.8996912932166
96.6869045264576
96.4452489661469
96.3064352428308
96.3868874835177
96.6218833818988
96.4271423559826
96.2330359598936
96.005891882997
95.9256985520976
95.9454408356641
95.8498719398758
95.8256254418205
95.8174135518588
95.7350647096004
95.6508175907512
95.6640880431206
95.640025842139
95.4727764514709
95.2935667014076
95.1220841969702
95.4121879500243
95.5981487478112
95.3956504077344
95.2815329105508
95.2853926329062
95.2206328505762
95.0584163973621
94.8895381980826
94.7484016271388
94.7866775739581
95.0996429929542
95.1139911615093
94.9951446726871
94.8401807395807
94.832537247634
94.8578201391047
94.9329897307296
94.9776461566487
94.8786559380029
94.855169777157
95.0579371029753
95.1545343592288
95.0996819367648
95.0806492214558
95.1139139599691
95.1514569387546
95.1657331686395
95.2245745511413
95.3081393443624
95.3717112979311
95.3818056469174
95.4145895907747
95.4821212320346
95.5190163085137
95.5282160644344
95.5559324175445
95.5970209629106
95.638334637816
95.6259359723299
95.6248542225465
95.5868150923407
95.662647681935
95.8880989535826
95.9014227041363
95.8304238086442
95.8893739756492
95.9742946601527
95.8962223579541
95.7897108926832
95.6249731467568
95.5995637703694
96.1233628148539
96.1958622577053
96.1119820958653
96.0102816402835
95.91117459954
95.9299206525708
95.7719966907133
95.6419210353317
95.6057201150816
95.7100161795223
95.954771252706
95.9644211793899
95.7627309420189
95.6444821675682
95.6374520218766
95.5844065957843
95.4896301085036
95.3254774836742
95.2411630666449
95.1543483980684
95.2400066899519
95.2458626138467
95.1860222473835
95.0880192196012
94.8245105139318
94.5802826794284
94.3436953790945
94.2482569096328
94.5905153063982
94.6228546694738
94.328208872378
94.0375055374887
93.9164160544966
93.9383243582883
93.9554462842591
93.8150061492925
93.6528184046524
93.6330311047816
93.6713893740451
93.6434664447442
93.4917942184658
93.3449496444457
93.2425457044184
93.061988144615
92.8993353837608
92.8176964167236
92.8761815165936
92.8391301654608
92.6580774889084
92.4969914918323
92.3841473574324
92.3435967182238
92.1410310360943
91.9151086385179
91.802277182811
91.7640253422419
91.2744833712611
90.4276832810309
89.2565001774609
88.0457783615546
86.9112186377449
85.8891679338483
84.9514556144312
84.0900507702205
83.3179089988019
82.5702489980504
81.4372642828369
80.1064541639555
79.5094195031215
79.8947492803183
80.0442511889542
79.5082467804848
78.6772509622251
77.7021000064503
76.7879995910039
75.8654094576932
74.7993147630134
73.7236530738552
72.6262286742053
71.5188815165163
70.4448765065739
69.4093206479831
68.40326089182
67.3520546620749
66.2845587797147
65.2891435240598
64.3179132895425
63.2997623204268
62.2430463819922
60.8706534099775
59.4477018513448
58.0553087901184
56.6226715771905
55.0161673371404
53.418418489957
51.8534132184146
50.4541912799665
49.1787865964974
48.2059095579647
47.7993484082088
47.561959344164
47.4378607487738
47.5850601753883
47.7077645113118
47.8964879448602
48.4191550963936
48.9353837062972
49.2340076453517
49.5317311096535
49.8830076563479
50.2582405719032
50.6099210480223
51.0444815294833
51.4683265202907
51.8749774143755
52.2468578347443
52.5788415672575
53.0899744106014
53.7749707137535
54.270203848553
54.6522910308312
55.0307026128365
55.4879815091976
55.9368973306799
56.4108921536573
56.8955493448504
57.4192204271605
57.9132279362264
58.4546355544851
59.0163857825009
59.5411635509943
60.0449060607785
60.584891625408
61.0629953826906
61.5587733398726
62.0796031381562
62.5878820880902
63.0750237660555
63.5764987904966
64.0577858627762
64.5479405187984
65.0522005548763
65.5535374928066
66.0373481052929
66.5271524892172
67.0299897744498
67.5512567426132
68.0320232665502
68.4928748119834
68.9294773727781
69.3752598598693
69.8052810703853
70.21963466384
70.6014636634214
71.0195189734126
71.4419088247424
71.8437796374638
72.2193249781551
72.5931881370689
72.9553506354182
73.3209855605967
73.6877993113044
74.0285376916352
74.3188328110966
74.6174820003933
74.9154700490235
75.2229368476214
75.5321379194709
75.8246168492995
76.1193737412269
76.4180129632961
76.6967825476226
76.9626112513002
77.1934300662827
77.4141464096735
77.6228920675736
77.8418504616822
78.048745775043
78.2064589876272
78.3384649069108
78.4601074055916
78.5525926471243
78.5833404639824
78.5385074975466
78.4542931656077
78.2763911879096
78.023237024034
77.6885446869118
77.2681609902302
76.7569386220205
76.221875092475
75.6390986642682
75.0359412213404
74.4753788071497
73.9971104476098
73.6095360374663
73.3674584479316
73.2836152529148
73.3899824973899
73.641802726908
73.9529255425671
74.2461602629607
74.5176713006006
74.6704991787465
74.6580697217795
74.5537211079041
74.4045693265559
74.1503273448031
73.8052966230249
73.3793450140044
72.9228900989202
72.4182725689394
71.913772465513
71.4005140648857
70.9084198852691
70.4406582328979
70.0021274959217
69.5426196370336
69.0817855086691
68.6039032698229
68.0987904362693
67.5538712382071
67.0084695393804
66.4571079248821
65.9498775932306
65.5312584966623
65.327953100367
65.4072724536636
65.6835495312914
65.9008086119949
65.907457858087
65.6154089365977
65.177632553785
64.8894880481209
64.9626395154968
65.2706393128298
65.6909760666092
66.097242694827
66.4312272586614
66.6831367527624
66.8662709581587
66.9368120480079
66.9400861445518
66.8926250912548
66.8241144498972
66.714613259027
66.6510410394506
66.6560700303941
66.7452098085027
66.957347770973
67.326411027699
67.8113604285402
68.4057994169189
69.064411421635
69.8243502467902
70.6150793628005
71.4294617553452
72.3007665812999
73.1869498629526
74.053133515629
74.9301049707371
75.772211037683
76.5981733220213
77.3890090479159
78.1196388764256
78.7909536262805
79.4232196343201
80.0175752591046
80.5412449047789
81.0397330520544
81.5268966828357
81.9148213144726
82.0974331778735
82.3274996403462
82.8593882536564
83.3834092218011
83.7974475154904
84.1104503928638
84.4049958731707
84.7087347337909
85.0222271971853
85.3113051184215
85.5909011746318
85.842346805972
86.0784753310959
86.2786517180822
86.4664852761634
86.6623611645535
86.8493719205715
87.0039745209736
87.1473653055951
87.2820611910882
87.4017167281562
87.5152020966334
87.6170637664245
87.684732652541
87.7274603437284
87.7635849971537
87.761525476321
87.6644768705157
87.3896970237367
87.0397175051833
87.1766396639844
87.6855602258935
88.128130461976
88.4249047341855
88.5933074891342
88.6977988226366
88.7568620489924
88.7553572432937
88.8184128525135
88.9841809856589
89.177881685817
89.3418887504795
89.4746482124675
89.6157426428981
89.7569203480928
89.855837827497
89.9495183096043
90.0557829213001
90.1299190609177
90.2029727038746
90.2695692551587
90.3243682048344
90.4104575669716
90.4540214056553
90.4739342531714
90.5525865016309
90.6434515530154
90.695280314334
90.7322174407808
90.8033720052997
90.8954873518481
90.9144569889792
90.9086853507399
90.9277454000131
90.9732920282775
91.0464491249289
91.0853682462229
91.1250863410438
91.2087301706809
91.2554838503438
91.2556202125986
91.2834281165837
91.3394626188362
91.3598699275046
91.3502727171433
91.3868961560909
91.4600179259713
91.4815443598126
91.5303309063093
91.5407225002674
91.5524072686028
91.574508220364
91.6484452379258
91.6937660058746
91.6934986593701
91.6696747791797
91.6918906357278
91.7323303812775
91.708188537517
91.6768711292489
91.6767542192397
91.6631031213817
91.5947673086829
91.5276082109489
91.4768750605404
91.3998943531359
91.3310792344407
91.2406428320818
91.1379338050313
91.0607545851546
91.0314255718883
90.9712858306064
90.8921278912661
90.8671699780993
90.8348737371264
90.8346449062096
90.8529694497841
90.8805441669756
90.9620558021795
90.9798190113192
91.0078279857795
91.0785591995612
91.0838387973407
91.0307292453501
90.9604946946993
90.8130429891894
90.5554052367012
90.0843307948548
89.137662543381
86.3358097994574
79.1804192593683
68.8482538532444
64.2287593631571
70.0691591877167
78.915839815974
84.5273146359402
87.2308795816324
88.4820451446842
88.9508999246088
89.10366196735
89.4913623601444
89.8944816343387
90.0940291893676
90.1473098832404
90.13670146109
90.1679284114276
90.1822728514921
90.1706828541773
90.1416575885041
90.1056342128919
90.1070955970117
90.0823192278663
90.0176205147819
89.9155655969626
89.8178447870624
89.6898920601165
89.5925782838158
89.541882724632
89.4283105376743
89.2913278080729
89.1371915781325
88.9822832803036
88.8432161769757
88.6661798037996
88.4583507582804
88.2812801033197
88.1313183877898
87.9264592951343
87.7481912711491
87.6347952578293
87.565429589622
87.5611094278167
87.6227127740444
87.6677752194977
87.695003586561
87.8247373766758
87.9607814033263
88.0119422274994
88.0922962252265
88.218701152278
88.3626048981406
88.4160805155564
88.4624015688111
88.5241478577924
88.5908993425444
88.6631776157128
88.6894813924016
88.6728466720722
88.7713796550803
88.7780795485526
88.602428210561
88.6729773330622
88.8246922181486
88.8691704152462
88.8686126965074
88.8315202191687
88.8535591190224
88.8638179469486
88.8730519624787
88.8792665799063
88.920408590581
88.9474831944792
88.9255857493321
88.86145253912
88.9105139248674
89.0241795811917
89.0677815826812
89.0564668754464
89.0453071494236
89.054740470367
89.0814289565572
89.0361971641675
88.9917229011312
88.868743069848
88.6999321468717
88.5331775392611
88.4387699879828
87.9861282633953
87.1555825397953
85.795351470359
83.8967903760735
82.32388027553
82.2677805308268
83.5041960723366
84.9065617418887
85.7538038877642
