1798
3999.43349933624
650.420452594757
1
128
4
96.1728958125049
96.2049437037122
96.2000424324062
96.1825707645064
96.1621374021333
96.1984278570729
96.1728306944179
96.1767419185847
96.2223135240198
96.212240928534
96.1983573694478
96.1846215655443
96.1508816120622
96.1258185488387
96.1100108512439
96.1723440231144
96.2202543258528
96.137582785835
96.1627458927006
96.2320675138312
96.2025734596259
96.1754019404872
96.137241658067
96.1447862177363
96.1769713728576
96.225108434394
96.2031511611098
96.1406672551916
96.2212576717777
96.2290059531843
96.1514027840328
96.1752352273681
96.2363917929787
96.2644056436987
96.2090336822913
96.2222800847458
96.2584984126843
96.2474220832434
96.1818934559678
96.2138185923602
96.2799023681159
96.1853354449239
96.0830846089359
96.1202920720034
96.2080047817382
96.242556953899
96.1928166555333
96.1537437701703
96.2350740101967
96.2503538421684
96.2283509946659
96.2355603326409
96.1936123525848
96.1722744650001
96.2548534290397
96.2547223079746
96.1524555614141
96.2011751313946
96.3115320995507
96.3051164148654
96.2788182426496
96.2239538250664
96.1157081446165
96.2069068678523
96.2902144968084
96.2424168704779
96.2841933453531
96.3950757344228
96.3132430912153
96.3247891401895
96.2555088799712
96.0576246233321
96.0423888922177
96.1802171644598
96.3319242298688
96.3364008442871
96.2187498703713
96.2353805186003
96.3821140365569
96.3069345484939
96.2041227805961
96.2033539652621
96.211971061156
96.2144078508984
96.2171742099903
96.2332783756379
96.2926052450233
96.406762967183
96.3305349118619
96.2341292929519
96.2397223360582
96.2277349700786
96.3397559841424
96.4036233769288
96.2689899941896
96.1948127138225
96.2072756525549
96.197872179954
96.2147805361696
96.2595092129471
96.305868868131
96.2352435124328
96.2612005327522
96.4549003885392
96.3403876376421
96.1681721046338
96.2883900363674
96.4054381733483
96.3596218273882
96.3677369173309
96.3654633134985
96.2838799962685
96.3247893128982
96.3734485575956
96.3384657178585
96.3206863151292
96.2428867846594
96.18906366326
96.2800087127785
96.329334534482
96.3483184020524
96.406273925919
96.3545623388149
96.2851441789854
96.3270018049353
96.2976086950046
96.2099345643447
96.1966889541571
96.2327951413659
96.334169688331
96.4096477957866
96.3179428592001
96.2200954329754
96.4106583862533
96.4494926013838
96.2355374302284
96.2505929678157
96.3278094078692
96.2951827874469
96.2611751119016
96.1431877218821
96.0286176316746
96.1299975707612
96.3729420120253
96.4292972608726
96.4573281999386
96.4954716536272
96.4031635654334
96.3462265065214
96.3877500089899
96.4097888172739
96.351183583945
96.2982332485434
96.3454414387896
96.3798980222672
96.3301323859987
96.2839143964596
96.2994330348931
96.3079885281824
96.3763958352968
96.4390633683026
96.3835781652557
96.2910085000454
96.3708522478314
96.4268166597364
96.3363000275511
96.1859107873363
96.3320867144757
96.4216316200825
96.3808203594569
96.3658629791484
96.4494992351635
96.3458009960144
96.2394607486698
96.4064844609111
96.4784158388416
96.3474006210034
96.2600058331674
96.2488753698611
96.2353888398765
96.2123530314519
96.2142350450015
96.2115940881959
96.2832470322109
96.2895623178313
96.155951256219
95.999374200216
95.9365612822794
95.9835482831498
96.0990045210438
96.03548978231
96.0216309103472
96.0905564111846
96.0920542092135
96.0455807207659
95.9613919918708
95.9043206797329
95.8653639304025
95.8157361034697
95.8790732759717
95.8057198210731
95.6937352161226
95.6360625432654
95.6359124039017
95.6754245130653
95.5383152305226
95.4619477681499
95.5673694095922
95.5777275924752
95.5383936179206
95.5441436289783
95.4907444701891
95.3063250893982
95.2757718296615
95.3541536940744
95.3032670319959
95.1723257126643
95.106998802871
95.0790725074489
95.0463790783746
95.0735224521602
95.1047734578515
95.0339083551365
94.9328676200957
94.8651041107081
94.9132713091122
94.9662283783007
94.8910578730759
94.8494875253541
94.8269361060203
94.6930510786341
94.6886014073373
94.8240291874182
94.6407630657215
94.579047653099
94.6947703373352
94.6771359413523
94.5844253451019
94.4983373179055
94.5742100064126
94.6153980554539
94.504000174776
94.3562183765394
94.2729383108345
94.3199484403803
94.4062461222237
94.2796082854534
94.1516237590652
94.1457235544349
94.1231161783462
94.0170664481061
94.0329449959244
94.111381982492
94.1024999066484
94.0218107543622
93.9048948432456
93.8293660643176
93.8445578009188
93.8484229679845
93.7427437833729
93.6951091785753
93.7657428069793
93.839114167877
93.8069551767566
93.6065004762693
93.4875086118654
93.5913755451331
93.5994965920274
93.4803888167452
93.4409234797064
93.4191342077132
93.3952293247184
93.3846561628497
93.2595862992608
93.2247578939406
93.3596012528841
93.3213721030515
93.2136180995466
93.1873457084019
93.2095183836407
93.2082570393139
93.1061594496458
93.0046382290699
93.0726781547671
93.127387785866
93.0414423702337
92.9396852832137
92.9055798709444
92.9179468574102
92.8998160413862
92.8755850678537
92.8594653378421
92.7600688202545
92.7564927795515
92.6944796541523
92.6179693617629
92.5576477796413
92.5221775069596
92.4817526564377
92.4403636553153
92.4662784047978
92.5232125791497
92.474867988606
92.4484018667027
92.3991190843163
92.3394961899101
92.2199695196645
92.1648619708109
92.1437803497996
92.1342596846787
92.1660820505014
92.2085637511803
92.1636431963362
92.1223613549171
92.0371319812106
92.0083427014215
91.9700815106058
91.9316979960219
91.8585027560395
91.8239254969977
91.8464072551579
91.7670220994312
91.6693227192736
91.7708018994661
91.7736266947108
91.6304816591462
91.5483843041609
91.5495440085055
91.5998275205006
91.5570752344238
91.4534088569913
91.4681888038524
91.5355025184176
91.5321343297411
91.3866736439935
91.2967178909434
91.302608876689
91.3262967342738
91.3321827164256
91.2969002528605
91.2755167931206
91.229607290107
91.1679145474714
91.1375908962889
91.150348282694
91.2002057506375
91.158457048748
91.1809030344285
91.2359797867486
91.1229424168484
91.0555626160666
91.0911439465583
91.0669634730992
90.9821035545574
90.9169327958299
90.9206982266828
90.9996106026267
91.0661534897118
91.0244083534427
90.9819306489104
90.9989389586582
91.056839950461
91.1423674821533
91.0666082726393
90.8905733539382
90.8703680367972
90.8873713396143
90.9178888240409
90.9145272998128
90.8811416461451
90.8593615734533
90.9444441246697
91.0041349537719
90.9188524113919
90.8484072906006
90.8718690570564
90.9003406724238
90.9623124818596
90.988280330809
90.9795008292661
90.9727468493854
91.014932820399
91.0499516713958
91.0832638663824
91.1570928289488
91.1481961414584
91.0915648722552
91.1682083758484
91.2309929514511
91.260547348313
91.2425345688687
91.2586031256892
91.3448692176436
91.3877728176887
91.3192581340395
91.2812563850289
91.3199553182312
91.3948906780086
91.355924724113
91.3942626307368
91.4170113572596
91.5058765465722
91.5617822653826
91.6165632117877
91.633724393447
91.5713487688844
91.5689384116152
91.6343755591759
91.7181603708763
91.7415355864149
91.7352399367927
91.8329936844109
91.8339723576476
91.7653854000759
91.8038039604633
91.9070346890571
91.9231691927953
91.9696053526084
92.0439477075076
92.0062773089376
91.9530360835777
92.0006643837712
92.0434772419643
92.1229318204808
92.2517558902568
92.2535182836997
92.1998656584964
92.1419530272026
92.2545696806172
92.3484103392416
92.2508389667559
92.291876721508
92.4133917941731
92.4646246038255
92.477759588896
92.4683824847094
92.4923940234675
92.5039645439498
92.5117742325848
92.5538474326905
92.6233023516488
92.7107395883803
92.7516497399643
92.6986053875623
92.7031980651806
92.7745356410616
92.76583589304
92.8854000833906
93.0015093471055
92.9996435391458
92.9773714663913
92.9912040932859
93.0487622437762
93.0356380049436
93.0146249670154
93.0848059176959
93.1278480256807
93.1425795761658
93.1771301653846
93.2209345529698
93.2311668630697
93.2380629081703
93.3108236057836
93.3414355383245
93.2824373863685
93.3632129873613
93.4886979371407
93.5594438364987
93.4789650254878
93.5065934485093
93.5651458689462
93.5364642328446
93.5531829790127
93.6054697383449
93.6078617627299
93.5898018240397
93.5984156531188
93.6725011749764
93.7512746311517
93.7574578462687
93.7572255657163
93.7989135369572
93.8119911320643
93.836494798735
93.8710366470482
93.8914353194033
93.8774149172223
93.8494719040717
93.9554350252505
94.0166765058247
94.0357461982509
94.0956303412447
94.0909711638928
94.0043854001158
93.999294338622
94.0732936971668
94.1454032851329
94.1891813905104
94.2218145610754
94.2243444169913
94.2310087468947
94.3213275124501
94.3953785738163
94.3452509012403
94.3048268485356
94.3192945829753
94.3341211207754
94.3655653380372
94.4266782275324
94.4678463030976
94.5221799595142
94.5053017899729
94.4379187120125
94.4653573055495
94.4768017522862
94.494222090592
94.5375568345518
94.5720298888351
94.5816584589327
94.6210858991507
94.675714964619
94.7396295578959
94.7838373511491
94.7170052722946
94.6184426287134
94.6415819932058
94.7090003120789
94.7961404042324
94.8157676906713
94.8155895367255
94.8254259822193
94.7992187130158
94.7491589177827
94.7471651673109
94.8314171515286
94.8746375415915
94.941785211425
94.9743927629507
94.951755372847
94.9521481353158
94.9163160323268
94.900002625241
94.9285760312126
94.9694085151585
94.9895916472904
95.0227019998685
95.0478102530566
95.0173381732469
95.0006880348465
95.0544636870232
95.1283966478847
95.0739807833616
95.0059724886074
95.0282308276338
95.0352170792574
95.0333877010945
95.0418658470147
95.0078695975208
95.0369345588078
95.0722671917414
95.041954255204
95.08437688716
95.1211645135364
95.1199053016435
95.187774566513
95.243829819603
95.2063325127188
95.1933494986948
95.2134602152083
95.2106328494416
95.1668823895348
95.1448695717924
95.1637349885046
95.2724864424921
95.388935861793
95.3481632971757
95.2782862018728
95.2626699058431
95.2426087388118
95.2971569223805
95.3844499349577
95.4385112207405
95.4461576454498
95.5071280806165
95.5301739199943
95.4792248451579
95.453721085408
95.5202083297298
95.5516689687342
95.4939620811616
95.4735785924528
95.5366936670254
95.5531762954525
95.538656732128
95.5465938733864
95.5270686033291
95.5082040008583
95.5631257065198
95.5680481691711
95.5613282394324
95.6087915321377
95.6174632637155
95.5562877562445
95.5733984178363
95.680507111202
95.6644978865433
95.5944963552042
95.6239241100335
95.6968206616711
95.7165533446271
95.6546801324482
95.650073936793
95.6737646184355
95.6940751230074
95.7500813498586
95.7515379016955
95.7311647557712
95.7230487589469
95.7108173745924
95.7884533060118
95.8397534434795
95.7559108079455
95.7371616315481
95.8459931724194
95.9076960654943
95.9084811786662
95.8974727833541
95.9203621029737
95.8983707185164
95.8289090374932
95.8224017694759
95.8410316433176
95.8599256899632
95.9015112243386
95.9522123870329
95.9053075793022
95.8528756517062
95.933041996766
95.9620740935858
95.9105732772233
95.8845796108574
95.9034020366055
95.8451357187005
95.7545525999264
95.7532862519919
95.8109124616394
95.8016905941704
95.7387149105217
95.7622223308457
95.8554615405158
95.8463788012212
95.7397633522878
95.6473984284868
95.628771314398
95.6282139584702
95.5977947259881
95.6263562744831
95.7118721045374
95.7354072613387
95.6885218221656
95.689439328941
95.7183412546365
95.71385073561
95.7361309646136
95.7781275493637
95.7373798220015
95.6710244971446
95.7108529061231
95.7289861378057
95.6977731843351
95.6954747801652
95.7682634125289
95.8246826649975
95.7867562194606
95.7424521009342
95.6873384168117
95.6155088673352
95.585708113114
95.5450809383456
95.4885942282482
95.4832900091005
95.5005482178205
95.507757036195
95.5794868848648
95.6767987477801
95.7989202534268
95.9098717573957
95.956908029709
95.9227479009246
95.9377248765757
95.9843154656056
96.0044223501776
96.0636026719763
96.1102866324593
96.1722939197042
96.1861357799641
96.1647188869413
96.2082223038792
96.2496613257802
96.2579651744229
96.2461161023939
96.2204820697383
96.200316452782
96.2358284552586
96.2623978468706
96.2545521710342
96.2844199016123
96.3269413575223
96.3566376735396
96.3452536334094
96.3384785624559
96.4011885526753
96.4288843933422
96.3842393052177
96.4056810284238
96.4174176923348
96.3858741400036
96.3632558728243
96.3831418414481
96.3615771206592
96.3849898130038
96.453793565299
96.4316839568321
96.4200270537624
96.3929297889757
96.3706694515267
96.4150936403838
96.4290042069914
96.4283561829813
96.4685856098579
96.4883394384502
96.5283143049614
96.5663136947759
96.5249796960179
96.4784301997858
96.4981527816849
96.5430111087754
96.5934708649853
96.6413493663043
96.6646202521091
96.6228820412022
96.6109211205689
96.6446429875371
96.6514512924665
96.7126604887726
96.7479741025238
96.6950286377294
96.6921788645484
96.7837390404589
96.8180641662891
96.8216510279198
96.8117466473437
96.7892077351503
96.7799847959845
96.7757037297763
96.8467147049039
96.8314944129047
96.7822035996507
96.8059830733276
96.9133612588138
97.0290773601977
97.0295703259281
97.0228867294855
97.0167498551253
96.9681557079971
97.0279964714006
97.0461044504495
96.9737000516503
96.9905028855065
97.0887920083493
97.1408983189919
97.1017085127192
97.0791014043169
97.0847182588942
97.0586785238099
97.0506034962705
97.0544913336846
97.119240677166
97.1510059968967
97.0410304838522
97.0073475223993
97.1048965640349
97.2110352624353
97.212878823721
97.1349140004764
97.1280848095059
97.0881836486362
97.0959620149482
97.1919290493117
97.2249585990641
97.1770480615124
97.115909003914
97.1665339703073
97.1978334871431
97.1993831661709
97.185492844408
97.1664094328148
97.1879559295114
97.185775557784
97.258515656463
97.3407030462981
97.2441447921972
97.1886514101294
97.1928139110926
97.1090323199463
97.1202823514715
97.2030678127665
97.1033304791999
96.9540554325415
96.8966217446362
96.8688565860178
96.8885701842317
96.9216655222064
96.9150480639932
96.9028695431495
96.9346088913496
97.0168466591803
97.0467543540423
96.9431470953325
96.8296028515274
96.8446700744745
96.9414439105325
96.9456105900315
96.9339952393154
96.9492254671835
96.9319943330013
96.9103722045145
96.8446070907732
96.812947672703
96.8381534876257
96.8301361815958
96.8985502916415
96.8981596111764
96.8517070943851
96.861111819967
96.8903426752315
96.9086014449637
96.872063206381
96.8386961372567
96.7831594677065
96.7371808665066
96.6582951185531
96.6185246224704
96.4925716680345
96.3194048934341
96.3284617165854
96.3610384096022
96.30355764729
96.3375257073069
96.4224223709714
96.3314018084245
96.2022068884712
96.2397795640975
96.2403003665657
96.2800475267282
96.261819046324
96.089439699203
95.7708414031309
95.4140932577291
95.0530875630794
94.6418077600725
94.4332156110193
94.4428124556867
94.5444356759499
94.7614354509511
95.0154154061401
95.2507337207155
95.6017913264544
95.9320619860564
96.1383494978352
96.3552455095083
96.5156887840759
96.6391580697855
96.7036799873055
96.7537330504568
96.8507313331623
96.9772338466987
97.054078439389
97.0741136762615
97.1059981214421
97.1782138963745
97.2380988277254
97.2183389470265
97.1660239071888
97.0657156443104
96.9881077041677
96.9699011576762
97.0592442891487
97.0614929110314
96.9852209400583
97.0802763275402
97.1706756545604
97.1688630841862
97.1861959098468
97.1480249263384
97.0836243971574
97.0549600627605
97.0350506307273
96.9768369934542
96.8828220489372
96.868789912531
96.9549659732744
97.0259338545736
97.0630159062978
97.093445524911
97.1529165536341
97.1965772028818
97.1842313768137
97.1752220431453
97.1959371291762
97.2250309585995
97.2138053541686
97.1512853885469
97.1221609041312
97.2007827034216
97.3418878564305
97.2979075836367
97.1601188067372
97.1983735910882
97.3235313337919
97.4189230035929
97.486560631833
97.5780170143755
97.6040303289881
97.5275991336337
97.5393879023138
97.6440655603824
97.7466599209193
97.8431979780792
97.8086258141233
97.8084654931007
97.8440429916814
97.8643019542341
97.9423804736356
97.9241901072727
97.8814531769835
97.9265847845166
98.0455160816777
98.1622811962514
98.2193379965668
98.3612833544666
98.4107798608911
98.3250076082322
98.2931446271948
98.2691135183051
98.3305561969753
98.4366135127952
98.490111308527
98.5117698024192
98.4986035739625
98.6493043419693
98.7295248605401
98.7239684132448
98.9728871598274
99.1362191157559
98.9612381906651
98.8229136868636
98.7757784464015
98.9109787925879
98.8574094674534
98.7160492901424
98.8534511940794
99.0918827907879
99.1898838793048
99.041963114259
99.0723365308664
99.4083330053902
99.4545897281821
99.2801646116203
99.437524122417
99.4911550494358
99.1982043311512
99.0285548532319
99.233073305184
99.5982019766526
99.8051647865231
99.8369885602396
99.5485210929051
99.4169475572961
99.4774777776191
99.6438945703369
100.038759124051
100.092861825404
99.9250684004409
99.6475953868546
99.6476881593189
100.289376961412
100.543382562779
99.8881544577929
99.379579044475
99.8294059213041
99.8713190182309
99.5837415143135
99.7436833075466
99.7569018805909
99.3712132699434
99.0774559789443
98.9463533264653
98.6656056297405
98.5930900702364
98.7533330022851
98.7264901082952
98.5779337150001
98.5275178635418
98.5018505481519
98.4163126747261
98.2131737085428
98.1099562154428
98.1064432142459
98.1635358304501
98.2011940195383
98.1433283157597
98.0590191839487
98.0031803663312
98.0207136582989
98.0783686458101
98.0802719960312
97.9385443585585
98.0330627053634
98.0569548880891
97.9305498364382
97.9739514105456
98.0206829965335
98.0352147592514
97.9943192995022
97.9941471852336
98.1187040202595
98.1673533913853
98.0876103249497
97.9147611882611
97.8661505991339
98.0148662719998
98.0845903099041
97.9889157038132
98.0126436361975
98.1322107595233
97.9973716990904
98.014941858349
98.248663092703
98.1962014258917
98.1964670200099
98.3545773198076
98.3576229113794
98.3569017356434
98.361047641479
98.4473204344285
98.5463719715895
98.5957509307801
98.5422875192054
98.7351854516521
99.1323987308364
99.4084586047799
99.509392804908
99.3305494480627
98.7807913169731
98.8000228737748
99.4595630223213
99.7384670993508
99.6257506367755
99.5741480074815
99.778615682015
99.8031523986142
99.4637673259744
99.1224174351887
99.2850137232533
99.4401531063025
99.6130073212319
99.8192292889597
99.7637698242912
99.5245461406771
99.4516841707353
99.2471182850055
99.0839472125434
99.1537950478458
99.0474301227127
99.0452355282976
99.2325582109742
99.2476797435122
99.2929806167261
99.2350412966677
99.0228084732072
99.0176017491
99.1349134386102
99.125636605568
99.2638950656706
99.4827946562142
99.4013231812098
99.2236745849879
99.4004817632873
99.4915469534442
99.2768904462061
99.1668347357071
99.1969344346112
99.2371582312372
99.3600215383238
99.3721885232798
99.2727705279902
99.0702453409772
99.0128755855175
98.9049757461377
98.9348028580818
99.0122019358671
98.9060231303829
98.777253924606
98.6466559683254
98.6183453185204
98.6120795655857
98.6378711268224
98.571956367455
98.4968957206591
98.5156714807969
98.5819328493731
98.6363057504165
98.5287634026936
98.4735189323347
98.3505268317468
98.3441507596669
98.4281315357656
98.5330934894736
98.5603139603373
98.4733642522034
98.382875764584
98.3329027217837
98.4043825037569
98.4477479825723
98.4510031197055
98.3681388284779
98.3017597434342
98.3187495882398
98.3025108102575
98.2042483090334
98.109427387438
98.2223960861133
98.2784254637277
98.3184529634807
98.3414946686884
98.3040632628639
98.2713143688646
98.2871628715622
98.2252397691218
98.2121390052613
98.2724735380617
98.2069249030555
98.2071649063719
98.2845561490553
98.2622628208938
98.2610159922093
98.2504357145641
98.2730702903849
98.2572252350437
98.2606246067362
98.2734947465421
98.3041121494333
98.2794768894187
98.2498575028353
98.1990822938976
98.2019135075008
98.2515647039033
98.2290457920237
98.2203658019695
98.2184850751403
98.2204155501846
98.2671182592182
98.2830435410457
98.2633589039866
98.2578770222842
98.230587442879
98.3068085026039
98.2682078546663
98.1724015806427
98.1959656106232
98.277847705737
98.2885941742146
98.2146475963279
98.2053816180976
98.2180822429095
98.1863796610696
98.1993050426878
98.182105300178
98.1798598759008
98.1777763387037
98.177515950186
98.2166506384309
98.1808915913554
98.1829839118245
98.2331020440788
98.1761664997495
98.107508153896
98.106633219432
98.106571282427
98.0826012421889
98.0775783651944
98.0997033964993
98.1505581090902
98.1514030370989
98.2308326441377
98.2569745184565
98.1120827075703
97.5289972234566
95.6224967019656
93.4051703823887
93.68301476387
95.1414419026946
96.1487732895698
96.9480146781869
97.3093443837837
97.5238693080485
97.6795026831465
97.7173666667333
97.7330788009715
97.7463440032071
97.7393693055103
97.7883728172804
97.8769130278486
97.8128631035193
97.7511059051403
97.8549036768946
97.7288486501144
97.6548200483616
97.629958378122
97.5824005949483
97.5810558490767
97.5984175328155
97.5192203528778
97.5071622171026
97.5078063883791
97.4519665451054
97.4151118342253
97.367563572336
97.3044617247614
97.250277189928
97.2234895460236
97.1101955704529
96.9985632142353
97.1032372932939
96.9235125102005
96.7903546438375
96.7624680319007
96.601426873736
96.5031124813278
96.427195239791
96.231462343182
96.1338714287519
96.1919230841645
96.0103164474693
95.8470828119881
95.6429547993187
95.5773298706234
95.5390175183578
95.3329570086233
95.3003654020886
95.3488224749476
95.1870230881566
95.0113377682271
94.9772884029126
94.9592749778285
94.9103776962728
94.7900328008221
94.6017905381347
94.8415894799519
94.9516069989824
94.6133974216272
94.474779035041
94.5719909085747
94.4620490484085
94.3201624636281
94.2639577108999
94.1308475211955
94.0717334224592
94.3073696481148
94.2926748580621
94.1766805138474
94.139519607844
94.1352610852962
94.0657814407147
94.1570697315349
94.262873804172
94.0993377598246
94.032685458123
94.3161040974421
94.3366101411632
94.2296271248968
94.240780029743
94.333047071436
94.411641556314
94.4193591513618
94.4363509453233
94.4919174064132
94.5014397986668
94.5116044580776
94.5738115911107
94.6115210821745
94.6508537029426
94.7014254691613
94.7383048955883
94.7622525537124
94.8200582833373
94.8644410478182
94.9095091166207
94.8606992037579
94.9085054581032
95.1092076387818
95.0495116958492
94.9321064179145
95.074242743309
95.1335167110383
95.1145691205643
95.1424587750942
94.9921690074758
94.9160505963889
95.2581305482852
95.2063181016163
95.1513012346456
95.1591741904368
95.1305278567276
95.1895915010281
95.1281264619321
95.1065300463438
95.0868431774697
95.027391593352
95.1751668600479
95.2036937954367
94.9791718033216
94.9047219891885
94.9485743922172
94.8220030878996
94.7367487504433
94.7367019811274
94.6635892821276
94.4827391385125
94.5102574384798
94.3944093733862
94.262897988797
94.2322453523819
94.1113800610496
94.0186708572708
93.8395350414357
93.6350178708315
93.7896884702755
93.7294181140766
93.5182648693143
93.361547371147
93.2388624465325
93.2487659495217
93.2656793329655
93.0809842937205
92.9423359404136
92.9569842868104
92.9114601116163
92.8120784446355
92.681696306841
92.6215400618322
92.5656637838319
92.428792598829
92.3025247360657
92.1175495828367
92.0656079872346
92.0928828379786
91.8909023698228
91.7083637266076
91.7207016293117
91.7643823685158
91.6183756308684
91.4225471437326
91.3800097831101
91.2947711634557
90.7463633855416
89.9736450162432
89.0114984319932
87.9418527441945
86.8240339554546
85.8320340642597
84.9914734137472
84.2380024468069
83.5197462006465
82.8678569412663
81.8939274597717
80.5673261951699
79.8335279454933
80.1713039167681
80.3716813747582
79.9111545969897
79.2739482514587
78.4558169620015
77.6050872267008
76.8595148470885
75.9722796714238
75.0097845791828
74.1271283324006
73.2619787339381
72.4009362162722
71.4906210168228
70.6641810965831
69.8501578841349
68.9530807663084
68.1951412865875
67.4700060768017
66.5996305115193
65.8188682953468
64.7935987922437
63.6551436950999
62.5362544549668
61.3913578780633
59.9576055601383
58.4827386264565
57.0670778756589
55.7317439402269
54.4097679947583
53.3324754607005
52.7754082370824
52.4262264906633
52.2128933242816
52.330371786397
52.4369516806828
52.5548515515963
53.0543194717418
53.5656982056125
53.7785464025829
53.9897883605717
54.2842337522216
54.6318596912489
54.9329644078742
55.2894377296274
55.6281229432425
55.9904901125893
56.3112194665255
56.5560165109832
56.9675849985663
57.5805479791219
58.002959408072
58.3031096362083
58.5971467873238
58.981089894833
59.3412468939679
59.7365817834662
60.1449497840396
60.570194146051
60.9463661039704
61.3820367522215
61.8721995116035
62.3190763355602
62.7161727214512
63.171905999917
63.5582096925877
63.9588999089965
64.3845036420061
64.8113766225736
65.2206298631811
65.6355813106014
66.0228448178005
66.43421713082
66.8560462961102
67.2652438359821
67.6627589529805
68.0862715996585
68.5070084822773
68.961755598475
69.3721998394007
69.7573384683033
70.1492977555264
70.5585165273537
70.9118371325659
71.2608912163397
71.6042326036902
71.9516947821085
72.2944937504507
72.6315100662191
72.9480279834626
73.2982652473308
73.6223738856633
73.9400292870265
74.2405412912986
74.5202599523442
74.7924067983012
75.0772498009497
75.3428585185048
75.6177665272447
75.8865956719915
76.1581332951112
76.4308151120529
76.700812141677
76.9423993702987
77.1926643405241
77.4282262371305
77.6557240015873
77.8626985277662
78.0684810078607
78.2499376730632
78.4388485080152
78.5770323146287
78.682594097239
78.7676276386114
78.8246075256775
78.8039943044514
78.7203452415955
78.5565077995075
78.3222233433128
78.0188590021692
77.6417287919119
77.159390015355
76.6462948699248
76.0998448733922
75.5332825481484
74.9891235390361
74.5433550971977
74.1402114399838
73.8331467581143
73.71360094752
73.7457985424896
73.8786887031316
74.1482435549736
74.4431881905337
74.6970496513514
74.8478151372245
74.8794368950612
74.8279175395403
74.7031740139651
74.4674120518512
74.1720617835278
73.8262783166148
73.4100091086801
72.9333874446668
72.4630281015407
71.9814836892716
71.5482818480152
71.0936760687791
70.6319963675262
70.1877920672004
69.7877835352722
69.3507519915619
68.8761581473204
68.3549282937819
67.8177798146191
67.2709510948368
66.7655173806895
66.2842356634592
65.9864266173241
65.9564159530489
66.1390544762189
66.3319215634127
66.3503785315733
66.1087762866985
65.7453177628701
65.4504367667117
65.3851423088992
65.5559920668036
65.8782557735248
66.194163411777
66.4941965466879
66.727261920611
66.885223687471
66.9729758655041
67.0082188158852
66.93964982624
66.8658606778617
66.7657643618213
66.6601411244704
66.5967471062605
66.6137485371276
66.7281037057043
66.9966261521184
67.3650805547544
67.8439440709799
68.3924050675295
69.0197984819699
69.6950853093392
70.4239343470313
71.1993372275276
72.0210234100288
72.8343280550218
73.660473411437
74.4881485632564
75.2862206813799
76.0106597108802
76.7274781999603
77.4002966968356
78.0309710993955
78.6165290017537
79.1857140751809
79.7200880992517
80.2388781442542
80.6816323294483
80.8581403775239
81.0717988096922
81.6027740194207
82.1214751890049
82.5538508068405
82.946625597376
83.3110824751182
83.6414933360111
83.9652138002603
84.2485864060071
84.5317258777393
84.7914930111741
85.060834648296
85.3150401338181
85.5434524368414
85.7431039602028
85.9661484768178
86.1756037449701
86.3314770762912
86.471014361329
86.6264957699465
86.7760104784526
86.9107639597331
87.0363889363592
87.1330238534607
87.1349026494743
87.0610680079405
86.9372767161021
86.6316608696579
86.1660837822226
86.2278531167031
86.8162555207839
87.3434209416909
87.6732279604809
87.9000356889682
88.0524006696631
88.1326557318928
88.1334136891711
88.2093904670055
88.4127830810632
88.6264096031567
88.7853486671867
88.9448599741088
89.1203679984469
89.2702207729093
89.3863374619909
89.4886793062363
89.6070511969605
89.7152805588948
89.7767805199262
89.8424365792935
89.9382781989711
90.0159339404173
90.0581874149673
90.1357677275131
90.1926309037057
90.2332835979695
90.2851370061927
90.3372185710789
90.4268947077214
90.494857859952
90.5164686214278
90.5737990839842
90.6420279374058
90.689446305673
90.7267984965908
90.7834967940214
90.8227872391332
90.8658380349715
90.8953007355237
90.9412921384624
90.9801160447772
91.0258057636841
91.0623488571692
91.0795284076788
91.0917696993468
91.1273687072231
91.1665950326769
91.2215582097566
91.2509132230368
91.2597737069187
91.2917726833418
91.3191571110789
91.3064001849888
91.3148244958236
91.3523216424421
91.4009009607192
91.4242556465802
91.4220774621208
91.3979869484391
91.3587157389953
91.2923200876582
91.2404362840656
91.186457786377
91.0992859321871
90.9722071704649
90.8797659725309
90.7937379134469
90.6742628131835
90.5317551189484
90.4619122328541
90.3999522753138
90.3360581465989
90.2784737020357
90.2520543219523
90.2691631626285
90.2982425749802
90.3488082775519
90.4118690984343
90.4627262857549
90.4795343382206
90.4503488207828
90.4598330362201
90.4657838388001
90.4459671787679
90.3139030952883
90.0979405261917
89.7262733091724
88.9281624371218
86.5908735690732
80.4689242626826
71.1576435518758
66.119099225574
70.2390325006191
77.8091267181571
83.1469684252026
86.0538425821561
87.5186900786598
88.092191260672
88.2878484434381
88.6854023655889
89.1368945342126
89.3657053196419
89.4292390107082
89.4752067038943
89.4778297222547
89.426950196733
89.4068912450929
89.4117526894375
89.3455915608884
89.2500649760935
89.1660096311283
89.1167387408228
89.0554343706436
88.9422682237737
88.8518349290317
88.7810199691753
88.6765134657613
88.5062311671483
88.3934917514492
88.2840408758567
88.0800858410053
87.8989060480318
87.7235788063919
87.5227138387934
87.2802058654458
87.0591722870044
86.8832802579366
86.7582738986961
86.5946909513412
86.4857306688535
86.5144587313202
86.5128438385018
86.473474514552
86.5042474156203
86.5398998819013
86.5950724096973
86.702060887618
86.8100958824186
86.9273254962357
87.0374892087679
87.0802795250229
87.1272692427825
87.1606227205699
87.2199582051636
87.329339339004
87.351158230828
87.3349005017714
87.4078016361182
87.3391245808513
87.1418554770331
87.1800566492549
87.3673135067457
87.3781836418471
87.3715088211611
87.3819897350053
87.4125150830618
87.4120880371421
87.3929539483361
87.4060636924091
87.4535401365464
87.4139748318111
87.4020541431079
87.4439388335453
87.5137377001606
87.5758328420152
87.6128004123828
87.6047707224926
87.6181709845263
87.5744815520314
87.5231798249876
87.588777340228
87.6709113303659
87.6039460337931
87.4074593042391
87.1585977220097
87.1894247740056
86.8568149636595
86.0573177024268
84.8606897860364
83.1783937813438
81.5593635824305
81.1483704710951
82.1628227221976
83.4924037108333
84.3241516512145
