1798
3999.43349933624
650.420452594757
1
128
4
96.3748072384131
96.2575171965899
96.1895880118948
96.2984035567095
96.4339723265681
96.4144235888035
96.3483607012229
96.3451365158207
96.2389730451347
96.1433062768363
96.2063909243726
96.3272466419968
96.3040032896417
96.3205077002664
96.3147942729138
96.2971633002828
96.3890314326794
96.4374534520654
96.4044741713999
96.3449904030414
96.2405287162715
96.2138779999219
96.2823707763325
96.34138807078
96.3715423119042
96.3859395572915
96.2919366613956
96.3052600599691
96.3119797068319
96.3422044579316
96.4358860889151
96.4860888050989
96.4457762020233
96.2901486991704
96.2059453734047
96.2582157194385
96.2757898638805
96.2962051290196
96.2518944815469
96.2767643550976
96.3542945384758
96.4110515898353
96.4185087312538
96.4019615506383
96.3982994911082
96.4373791955118
96.3797124024036
96.3443085949179
96.3743185011666
96.4145459844261
96.3664156645894
96.40310424122
96.4607393916768
96.3949566070321
96.2907710015482
96.3057061957665
96.4734946187659
96.477751701415
96.3993770931537
96.4212644322956
96.412481449051
96.3867915440609
96.3872222332826
96.5593558236103
96.4988338260473
96.3445767988944
96.3533622070277
96.4405584100132
96.4190234427954
96.4731865853657
96.511568046259
96.4967931895676
96.449959196822
96.4630186217528
96.5012148710634
96.4673730244522
96.3495345606425
96.3357972469582
96.2868804584533
96.2144894171077
96.3099026993302
96.3441008479087
96.2808256021888
96.3777602010089
96.4569083670064
96.4379577190112
96.4005178191043
96.3593480526911
96.3081098486454
96.4208926526404
96.5396292278563
96.4577576380155
96.3507689964074
96.3672914206334
96.3297590369373
96.3912893008524
96.3981355711082
96.364791138126
96.4006018290722
96.4534628276172
96.4423750351425
96.5364771963375
96.556259392795
96.5810666485193
96.6160883992132
96.5851454943547
96.4158981994275
96.2838867537516
96.3510125552731
96.4817113615362
96.5099844151896
96.4865471549893
96.4612001401222
96.4364410258745
96.4294270715219
96.397753118512
96.3553076650844
96.4372282255841
96.4597191828953
96.404601087225
96.3798562934904
96.3944414985888
96.5218531175118
96.5996148847162
96.4417199432975
96.3306313718978
96.3317313518384
96.3319129287813
96.4103420638371
96.5295453096356
96.5788993044466
96.5184697507124
96.4321201713966
96.4698186088768
96.5819395866276
96.6122556244889
96.5620673896495
96.5765778527568
96.5872245310534
96.5821645926141
96.4516303325958
96.3215421382486
96.2645883077946
96.3145635620712
96.4151012734247
96.5156166977641
96.5281441167227
96.4765729672866
96.4929974244792
96.5913214799553
96.6087454627887
96.5635520063966
96.4538941524943
96.4403344072657
96.6269956361471
96.6478734417047
96.4671480417447
96.4958809138985
96.4397089764681
96.3584998059121
96.4192159361579
96.4510565643952
96.4183582519219
96.5261685792122
96.6128090342734
96.5998395783326
96.4683430363297
96.5929848058476
96.6459945707081
96.5480305529245
96.4496507578719
96.4938975733053
96.5555257541424
96.5409044212585
96.5208868771318
96.4083466730997
96.347837023509
96.3594219929984
96.4749202039359
96.5140879592921
96.4515098206593
96.439608266801
96.4899387562997
96.5962635495485
96.593316466628
96.4610596761541
96.3751807322169
96.2534761588954
96.1519036926134
96.2658893758259
96.3138873461328
96.3423051501556
96.2945916955462
96.1551523340038
96.1627565925407
96.3049173503647
96.4562033187393
96.4662359208746
96.2983543972009
96.2925217358917
96.2560256341905
96.2435205884615
96.1186632756006
95.9099415394188
95.8284609953887
95.9556147679364
95.961506414915
95.9109530986531
95.9407777448117
95.9270437491621
95.8287261675463
95.7065735157013
95.7105920296895
95.7229845013688
95.6056042758861
95.6487783985278
95.7912770167502
95.8382750152656
95.792644913106
95.7039683381833
95.714543936853
95.7162493773573
95.6380085138443
95.5548789802466
95.414844007893
95.3958356175295
95.5790373452211
95.6380198477331
95.469239165096
95.3793139785263
95.3496461438608
95.4418368001105
95.3661369963871
95.1581020891438
95.0864060633667
95.3072238688094
95.3186295202946
95.1458272193173
95.142318840466
95.2129532542141
95.0447503387938
94.9591707311253
95.1535777501302
95.2154034230109
95.1081049460764
95.0046723005
94.9212058849771
94.9687825877287
94.994515179908
94.9442261364582
94.8704016345264
94.7937831667177
94.84731313827
94.8632183088322
94.7749554174003
94.7306148535569
94.6474279571247
94.639848157388
94.7010026307967
94.6845263516146
94.6275264295429
94.5634938137009
94.5399608425755
94.5902669129173
94.4504982488912
94.4518703863422
94.5684518989502
94.5354327296687
94.4653384714491
94.497711016593
94.4768765660538
94.4459368287178
94.3522415833272
94.3010928838231
94.2722919268821
94.2435390495118
94.1637258731127
94.1097439582736
94.0532209973572
94.0938930026457
94.1709759030405
94.1463048541281
94.0390550117676
94.1426440844362
94.1618390666097
94.0800169034039
94.1041077853184
94.1048165367194
94.0077552120227
93.8765971454677
93.7113982968029
93.8073607589231
93.8858068141142
93.8939804824968
93.8560706227586
93.8417291305717
93.8212957168484
93.8099533708639
93.8441403301077
93.8981661630387
93.8445542527809
93.7075670830468
93.6457342436678
93.7280951297389
93.7251556833179
93.6859410789969
93.6665723309118
93.7413322306775
93.6640778779891
93.5160874838932
93.5522524317833
93.6156831877577
93.6239679111097
93.6211991523158
93.4980904372021
93.4532895478559
93.3936450747021
93.3969992397627
93.4596835422827
93.4957592547679
93.4740993039768
93.4335801035188
93.4174887712874
93.4446720443681
93.4036143917524
93.3915097331896
93.4504908116499
93.4237236408924
93.2817997422472
93.2138679101478
93.2401518065525
93.2766795135405
93.2622487504802
93.2621611024673
93.2430720756319
93.2269641553972
93.2424189948692
93.2563552692567
93.3061789435116
93.3821879106593
93.3310918693218
93.3524445739689
93.301612885939
93.1740224218026
93.2267857837594
93.2430607748635
93.1647422359059
93.2418840981691
93.2664992786166
93.2553963932398
93.2116512110084
93.2839137465293
93.2914296929714
93.1714442517181
93.1296222069581
93.2003474601116
93.2314703788282
93.2610304690839
93.2268662346381
93.1248959956451
93.0745877143384
93.1640860192181
93.2525496014957
93.3321692806454
93.2989630167788
93.2607466908627
93.1916418636662
93.2063417761279
93.2335933413374
93.2434848837728
93.2528389374981
93.2559262954638
93.3004271655253
93.3793665902048
93.2869275860604
93.2021135132612
93.1776370064391
93.1723089488769
93.2689487202246
93.3104454121361
93.2654148700208
93.2545640940043
93.1638234344697
93.1788126198426
93.2230520193507
93.1639847122512
93.2095451298273
93.310091557055
93.2723530923371
93.2566347467141
93.2609926147977
93.2520916496523
93.2856234751298
93.3418919651564
93.3306628445719
93.2439434271535
93.1445471884592
93.2215445283238
93.2781602133866
93.2679858613266
93.2808546627159
93.3042354260019
93.2787110430225
93.3233179205582
93.4038095405075
93.3338040506374
93.2392295212932
93.3079250367075
93.3489770387633
93.3660733581438
93.2929234466205
93.2569265166719
93.2711921709292
93.4108644377244
93.4392866651483
93.4109823393899
93.4164912815225
93.3189420241629
93.3115110411543
93.3771795513702
93.3041661824643
93.2946860298175
93.4084088942162
93.4367434223174
93.4792663899049
93.4823301827217
93.4231327919781
93.377497904906
93.3722918396136
93.4036294757896
93.3983523914344
93.4097767055151
93.4397084858536
93.4159965346581
93.4494124017346
93.5472401753335
93.622001772628
93.5968529134531
93.4931883607509
93.4573859102541
93.5062964665225
93.571838797093
93.6008571925391
93.5916188543439
93.6205462062421
93.666507525868
93.5792048936568
93.5518025694219
93.5734465089338
93.5483117920766
93.5641018567212
93.6769944917225
93.6953698702992
93.7342637408691
93.7498804611216
93.6912080589703
93.6524915154176
93.6860688529797
93.7062535543625
93.7486733126017
93.8545895685088
93.9475858980526
93.8250923639977
93.7081448283914
93.7618545816146
93.7930531183832
93.8363659936864
93.9159993286524
93.9073380434337
93.8078478076261
93.8229494383543
93.938339885696
93.9488445227866
93.9281627687852
93.9429212238804
94.0161561184924
94.0607366019288
94.092959693289
94.0061449302968
93.9475142078339
93.9778573108884
94.0342617551849
94.0059511526358
93.9811427089875
94.0036124419317
94.042310862245
94.0329452389279
94.0711829043992
94.087898804633
94.0333151373927
93.9974499885818
94.1283188097668
94.236111767644
94.2540568281144
94.2434884643237
94.2133806083574
94.1109304500426
94.0637672724985
94.1373687152193
94.2162841377228
94.2373805828215
94.2252418065618
94.1537420399984
94.2047957927912
94.193520627797
94.1379162830995
94.1927077902859
94.2205800740091
94.1869316878032
94.2384417621823
94.2721186960922
94.350231066237
94.3999180076913
94.4182998757749
94.4000441767795
94.3895230148511
94.4157350787071
94.4284086104935
94.4040078573801
94.4251438341771
94.4164847475362
94.3494937805943
94.3582999126328
94.411111445365
94.349453921355
94.3710179695972
94.3774225218232
94.4148939081519
94.4801040335158
94.596724478137
94.6675553760139
94.5736802038261
94.461302775868
94.4877175378153
94.5007089184713
94.4884056010487
94.5155894239352
94.5701901399494
94.5540843188086
94.4967097345262
94.4779147435204
94.5242369578748
94.471880934688
94.4198019650344
94.427490731336
94.4908668701588
94.489663405209
94.4639016851904
94.4659810012547
94.4936707404284
94.5032719027398
94.4878861248858
94.4390042448318
94.3980205898474
94.3403591337374
94.3730517869923
94.4946552962405
94.4708974559935
94.3907265361167
94.4259659765588
94.4191840905011
94.3905021729618
94.4158401125085
94.4909380242883
94.4698324798694
94.4856810925629
94.5357619481982
94.4877715293188
94.4373157244302
94.4383948442335
94.4012358045754
94.4520782143856
94.5294062584165
94.5386569358459
94.5684972108634
94.6003567001186
94.5619598881531
94.5811751286902
94.5166376655335
94.5232713487542
94.6359245371579
94.6637463527221
94.7109395868294
94.7619873298623
94.7560715275079
94.7416992001635
94.6824560073531
94.6704095851967
94.7168490300917
94.7844340040692
94.7864610674717
94.7737641086147
94.7736709692841
94.8625828495829
94.8958121113947
94.7954055396798
94.7881761330564
94.8425454918259
94.7978719438079
94.787519378997
94.8394247326965
94.8212608841085
94.7808023130481
94.8622354060445
95.0097266113824
95.0003239074395
94.9081984026649
94.9024770357932
94.8880411475251
94.8593178340692
94.9014561591337
94.9996714679973
94.9983544011269
94.9804439108899
95.0060622104418
95.0367870337445
95.0403768316689
95.0573621487364
95.0764036189559
95.0964388093771
95.0833046221018
95.1207770073184
95.1908152150546
95.2461381130557
95.2415175426607
95.202513318425
95.2165772602559
95.2676517668612
95.2384167304285
95.2040839901494
95.206738376358
95.2364337346216
95.2490346696671
95.2225479360227
95.2433249029069
95.2476132068133
95.2424484754275
95.2754049940465
95.3091030112624
95.3264062753839
95.3465045563988
95.3133292361612
95.2627459493611
95.2332351771958
95.2513064896888
95.3141461013376
95.2950858096272
95.2622625309727
95.2688173478513
95.3513812135416
95.3718247216145
95.356684450187
95.3503013241235
95.3353609677167
95.2805847987534
95.2356640998349
95.2875020771961
95.3707958774604
95.4314029798665
95.4275540909638
95.3874012469708
95.4002715457828
95.3963019648416
95.3941629451726
95.4255186362731
95.4436167240935
95.4183458914849
95.3906407715559
95.4126817825882
95.3955335192657
95.3738167205002
95.4127989067658
95.4951705706798
95.5235645358462
95.4659692971964
95.3969086103383
95.396016982225
95.3994599454466
95.4188847070555
95.4527671418732
95.4460497396067
95.4390618804433
95.4844982584134
95.5340844747214
95.5420583236931
95.5440376478399
95.5656502652403
95.5687524770817
95.5746877509973
95.5901158323769
95.6071758986373
95.599449325289
95.6074874035066
95.6347634618764
95.6505558277811
95.6505962926982
95.6062973679148
95.6019434354759
95.6592873569778
95.6859443297094
95.6676960233018
95.7434716912251
95.7555579945208
95.745453147961
95.7739916377192
95.7318163541201
95.6906068891499
95.7466359490788
95.7123398648203
95.6963011421202
95.7764000013066
95.7983944084929
95.8015190634306
95.7906551674617
95.7802047910388
95.8341236839561
95.8437965579147
95.8264429840389
95.7814454780341
95.7252003947673
95.7039184407581
95.7222551242421
95.7776116614623
95.7769912050011
95.746454095043
95.8026457883708
95.834004370883
95.845177399057
95.8495557459376
95.8221308176599
95.7575714155682
95.7289088889498
95.76301031009
95.8163185142714
95.8748297417819
95.923878232332
95.920163059083
95.8782139459476
95.9294348237201
95.996205041795
96.0160971627223
96.0146045272301
95.9905627386695
95.9355478806165
95.9363419024368
95.9646309465142
96.0286534440111
96.0933643525224
96.1048591532364
96.1175855170329
96.1058648438859
96.1086686566209
96.0759355372276
96.0772700488626
96.1284422933501
96.1294634085805
96.1297573609068
96.1843385337064
96.2557059024695
96.2626533225065
96.2163882845509
96.2269555794538
96.2308423573195
96.2474310770587
96.2199388370814
96.1802660499102
96.2421525477836
96.2506652992243
96.2232325969223
96.2119631081496
96.2339064791726
96.2823132784579
96.2861976826163
96.2905608786542
96.3015642239336
96.3322867359058
96.3347775995058
96.3478822488315
96.3676343654349
96.2812245460666
96.2804104866674
96.3467043048955
96.3328977161178
96.3724913539796
96.4352153897681
96.4018746390323
96.369494107999
96.3515104459622
96.354901338318
96.383298929941
96.4613621633868
96.5271515946745
96.4672393065869
96.3601771188836
96.4104717806164
96.5252554518217
96.5425994175349
96.4313940248953
96.3703260814909
96.4079157127205
96.4374695517828
96.5116359612855
96.4711585029591
96.3850214491322
96.4309801602108
96.483755883709
96.4513463594836
96.4417932496111
96.3799478985316
96.2763343021241
96.2995343524847
96.3978683393185
96.4760038644387
96.4423653863602
96.3906248809676
96.4070228824586
96.4123019428716
96.393964016225
96.4054026636958
96.4455991973193
96.4180081983362
96.393905499354
96.3872643311001
96.3557273245329
96.3101783491932
96.3646397531581
96.403251212541
96.4364598551242
96.4396385197137
96.3958621625758
96.367038205376
96.3585410871802
96.3237399876978
96.3564052895738
96.4083312859987
96.4231133719749
96.4678429919017
96.437346075983
96.3641430247528
96.4077226741721
96.4853201660893
96.4837450404532
96.3678095639855
96.2731069175483
96.2826276615273
96.2647460655652
96.295127434511
96.3183099871545
96.3231336019209
96.3502683401577
96.3478329780346
96.359791997935
96.3336063387741
96.2620049609014
96.3292058891623
96.3580070292151
96.2712369882137
96.1572401108732
96.0832682697248
96.0272899231412
95.9555886160377
95.8944803482026
95.9066388214794
95.912361775678
95.8964207399806
96.0228576737743
96.1721333539686
96.2576556055792
96.3193535939337
96.323452336576
96.395164405862
96.5444475852157
96.5585596073489
96.4807095282889
96.5369496592702
96.5961537304985
96.6456092798007
96.7249002852535
96.7825754663474
96.7525167452795
96.7630039746795
96.7582028559166
96.7078846806369
96.6767374361591
96.6049915900174
96.5651845864791
96.5469342055523
96.5684824224256
96.615266185954
96.6218404940131
96.5992206685383
96.6981437952903
96.7587156632445
96.6885017838667
96.6054354541666
96.5635852593338
96.5720643184861
96.5717905782904
96.4923238125651
96.3896111001848
96.4117994425728
96.4918413159891
96.5521320208966
96.6547881112544
96.6884059733177
96.6739744579217
96.5869205476297
96.5935259790357
96.6657211497675
96.6374564951056
96.6694317126075
96.6628503263928
96.6141200351196
96.6269019186286
96.6439365948772
96.6858318606236
96.6951511186737
96.6301531615216
96.6778703555751
96.8122762225403
96.9048964556556
96.9277601611244
96.9864792820059
96.9567020985077
96.9072066338102
96.947112680217
97.1375170709027
97.2560680030188
97.2233833215049
97.2579029652517
97.2435401177062
97.2121284722512
97.29191908805
97.4639153936621
97.4080212472722
97.3279414685525
97.4248164985039
97.49207484807
97.4436595900041
97.4772393877531
97.6687055729206
97.7649654944825
97.7020365960167
97.7554498705757
97.9123585504816
98.0108158202026
97.9808051863304
97.8226546918921
97.8835000928345
98.0189715210573
97.9218254983829
98.0207344032187
98.0817511806006
97.9116808157989
97.8343505864691
98.0563183379135
98.3016019345251
98.2559781314656
98.3553141500064
98.3703041679764
98.1419840507531
98.1112895722963
98.3140114361122
98.2988477916001
98.3264585658367
98.2906504334244
98.5043020539328
98.6198552283723
98.667313224919
98.8803394233561
98.83381632345
98.5110049430033
98.3339260184812
98.3024990552694
98.6462585536575
98.8259010180056
98.5334961485423
98.7536928368835
98.9007505782559
98.6746177613286
98.3422078217223
98.6522586371613
99.1223166423846
99.1750968117583
98.9579881226587
99.0004272252137
98.8493980953989
99.263366660635
99.7258538470366
99.6340847201747
99.4150682516396
99.0747870038257
98.9529414129471
98.9538959556354
98.6090129306704
98.5528509986739
98.758095408747
98.6836569741997
98.3359988916476
98.2219315089973
98.0972546290373
98.0030623960523
98.0362195687934
97.9123863418299
97.8224315633152
97.8167457471557
97.7802589468546
97.7014684049677
97.6006852551229
97.6651696258346
97.5633871527529
97.4488758254873
97.5082956118715
97.6318758527458
97.771911102953
97.7552796451866
97.6312702249748
97.5243879703332
97.5281763527689
97.5418305560733
97.478460097175
97.5402550889931
97.7014746101259
97.6534389870021
97.5720536893535
97.5252601592786
97.5201302783863
97.498557601903
97.4980010489794
97.5883154985528
97.5374999252741
97.5621702078313
97.5970706606925
97.4940823470835
97.6001481340044
97.8232632546638
97.8002704432076
97.7675632191471
97.7908795310215
97.651535733338
97.617285588212
97.823245643617
98.0091011811671
98.0899174155271
98.3683927316423
98.362298123247
98.2048835269908
98.3867917954393
98.4514930303656
98.3665361450943
98.3480635717621
98.3406251225138
98.6367397612367
98.9433112302889
98.8707873435263
98.7321176692081
98.7673393794425
98.9910574151106
99.1020724796876
98.8156984878804
98.8570020312124
99.1039679641751
99.0321315726032
98.8187691834048
98.5038735545061
98.5613054613215
98.9048537811197
98.9083248920197
98.8444739530459
98.6703925075388
98.4944341255146
98.6378524018953
98.6955381712803
98.4492641964405
98.3708595047107
98.4348700192814
98.4553959470257
98.7230176247358
98.8648577571118
98.5545581687498
98.4384318980863
98.3749840960518
98.5447894025729
98.7339995210791
98.6104574159831
98.776626218728
98.9267928049563
98.7007638470309
98.5872185723285
98.824717060315
99.0105530652632
98.844072371543
98.6849096126882
98.5056383277343
98.4919147697271
98.7421482081531
98.5109727922578
97.9881922542707
98.0253706459298
98.1883771560117
98.350624768486
98.4611072091618
98.3727869735067
98.1825605349019
98.0010320995446
98.0399772748251
97.9451547534177
97.6933663558611
97.5800230840196
97.6976993859789
97.7674458402852
97.7047549011698
97.7526470062389
97.7675860668554
97.6206308562885
97.473561663899
97.4700941307449
97.5728246550015
97.5290553107106
97.5004715338529
97.5327780032861
97.5267265032025
97.4949869241873
97.4531476256513
97.3943905346572
97.3755287321909
97.4241120396672
97.4911121568787
97.4842804912301
97.4388094732481
97.4507294821706
97.4743985387307
97.4912295842611
97.3798885083379
97.2473719283181
97.2670750853109
97.3757654168443
97.4108291119336
97.4265619260934
97.4268332129867
97.4036757305269
97.477088408724
97.5245654049019
97.4841982098694
97.4693986051651
97.3608263794096
97.2781432508546
97.2069867505489
97.2151810547089
97.2285643071093
97.2318750026464
97.2959485338725
97.4207629187892
97.3946735752111
97.2872932101788
97.1693649546964
97.1639465221453
97.2495730186658
97.279727039942
97.2541454064498
97.2616635706173
97.2963279378512
97.2960581495636
97.2436000111785
97.2259894616702
97.2055263805349
97.1589018665361
97.2146704459415
97.2318016919536
97.1896759590654
97.1727046165031
97.1629682083071
97.165393950226
97.1681459756471
97.1440885114875
97.1392771459606
97.1587886876519
97.1339036741918
97.133036349225
97.1344042504777
97.1012841846844
97.1164611436015
97.132861480507
97.0881389730538
97.0531055190698
97.0828543147595
97.1072450891918
97.0807076932808
97.0319415121524
96.9997354302801
96.953541912852
96.9449925617135
96.9439489817281
96.9259093838256
96.8772700918668
96.8735566644369
96.9334448604271
96.8872535063665
96.6420831430343
96.068558722059
95.5516595601609
95.6838077849817
96.0797825278184
96.3676093663775
96.5463198421441
96.5896290779834
96.6328278782417
96.6337640014934
96.645858573229
96.6519061900273
96.6177229591143
96.5903294978981
96.5884942188249
96.5720385995346
96.5026153960815
96.4197356933973
96.4552195884312
96.4419381925391
96.361235759831
96.2675754151511
96.2146884827086
96.1321926494813
96.0332589856477
95.9238719000723
95.8442811516392
95.8554052482707
95.8110602292242
95.6961903506347
95.5543305696603
95.3566961931747
95.1686985845926
95.076249433866
94.9379969239112
94.7346323059297
94.6776286336384
94.5734964825827
94.4665375265405
94.340116342089
94.0796562704539
93.8751861963017
93.7647961281386
93.5564957651362
93.3903962681324
93.4235985568502
93.2742753555033
93.0909430141549
92.8576082659322
92.6946201523502
92.6462982532018
92.5176662579398
92.3909170259272
92.4012136671365
92.2717117619439
92.0625156071164
92.0113262354575
91.9955144590281
91.9091359657272
91.7377524049274
91.5087936275339
91.6554091340956
91.856943871869
91.6606551741126
91.4830761571014
91.5598341160293
91.5497654786515
91.4402585154134
91.3396048876628
91.1833992206698
91.0847608823431
91.2826518074517
91.2944456939377
91.1500869730279
91.0256578408764
90.9737978608024
90.8959418344926
90.8659284461997
90.8537423001116
90.7209839284066
90.638171516606
90.7885484348596
90.7758723687546
90.6725828797069
90.581065839069
90.5045913483344
90.4664032778494
90.420411163293
90.3609631853409
90.308397254036
90.2708236014674
90.1747490898901
90.1066418112261
90.0656889823798
90.0129416514572
89.9614094230274
89.9092578864162
89.8474138105312
89.7719468662205
89.7311039230425
89.6910633398591
89.5259152832505
89.4424397539206
89.6110251196489
89.5536282235696
89.3476540710593
89.327550134408
89.3678177565432
89.3331569490216
89.2754575345374
89.0132451056754
88.735358618033
89.1394296196426
89.2248739664785
89.0747204747965
88.9850395362241
88.8962079549709
88.836300421519
88.6704990562178
88.5178901974294
88.4043887486394
88.2947008634755
88.5106318397642
88.5666653644766
88.276825421665
88.0590127940981
88.051349852114
87.9204294211701
87.7277543516918
87.6125501927603
87.5001483382006
87.3225780868512
87.3140127797791
87.2194450096747
87.0701943799294
86.9861976541027
86.8076003350961
86.6201506207626
86.3306182163999
86.0529895897601
86.3375894812465
86.4346973609014
86.2056582121075
85.9142380584159
85.7502084227534
85.7810668967818
85.8274008094554
85.6535836749745
85.4232712804147
85.4274134752209
85.5247523367824
85.5082974154811
85.3684375440595
85.2369028599551
85.1841523353339
85.0943960594952
84.9705945515355
84.8220959206248
84.8853796450111
84.984463753748
84.7939839992177
84.5059936901061
84.3910168961103
84.4183922697272
84.2179402919665
83.846179287761
83.6245313556258
83.7464596287962
83.5450387243477
83.1202205719841
82.6140061921638
82.1232595750865
81.6738324657486
81.1677424577437
80.6214564765749
80.0695438325903
79.4559690401448
78.9096251272565
78.4034331773382
77.778598042836
77.3448832875103
77.2685890753034
77.0444676768212
76.5299416265527
75.9486360744804
75.3004244498669
74.6467860219273
74.1867572790976
73.6583638746699
72.9849673234906
72.3166484023878
71.7037030532773
71.1281693926005
70.5049146986503
69.9133086822078
69.3994166679911
68.8298448965687
68.2923809801821
67.8081928451583
67.2930813199028
66.9102410234822
66.5087137122114
65.9641164229899
65.3696549962299
64.9449775248291
64.5270869792626
64.0323744397577
63.5780057418378
63.2490612104613
63.0162824840436
62.8977027542746
63.1746653108258
63.5603836413223
63.8869134388931
64.3646099181616
64.7848424464448
65.1037915822545
65.7135552764755
66.4093666895678
66.8872310555735
67.2971817531135
67.7580020856115
68.295178313082
68.8450941667753
69.4722327989129
70.1568464601164
70.8221799371305
71.4440689195862
71.9712547486142
72.5682521611181
73.3558488624285
74.0345533066502
74.5540963673196
75.0488661572012
75.5709907342501
76.0492986602781
76.5097057595092
76.9591044024942
77.4040862601783
77.8122089661139
78.2223731295238
78.6493591934301
79.0497800251933
79.4175282192808
79.7881006411002
80.131926763827
80.4306786637396
80.7343819097995
81.0452258970641
81.3351512898102
81.6387075787045
81.9343540972575
82.2004374885876
82.4730140432077
82.7334876342837
82.9618580526708
83.188983913778
83.401434154353
83.6057435093499
83.780637359924
83.9652909153626
84.1400277479248
84.3274108213494
84.521650433057
84.7061803543554
84.8760582766113
85.0251149524387
85.1474353770188
85.2924565603876
85.4241010031263
85.53643298016
85.6264489401692
85.714879435723
85.8245464177635
85.9362362647658
86.0403097153945
86.1514541519589
86.2343066302469
86.3385195612096
86.4519191542056
86.5291632327535
86.6177234994233
86.7678929985163
86.8944463493316
86.9927141123811
87.0888474789537
87.2181347417309
87.3093363340017
87.371035852802
87.455491880449
87.5104131960166
87.548132105181
87.5665176095739
87.5714940602146
87.5777005971225
87.5351065060793
87.4848136522916
87.4189573982235
87.3101783660921
87.1471982083726
86.9728526865254
86.7812158745666
86.5532553652211
86.2714024705628
85.9920060900666
85.6905506226155
85.3631832619771
85.0262945173275
84.6885996242209
84.3664331029351
84.0634657811312
83.7635057860503
83.5106948391971
83.2455990675492
82.9906516010837
82.7487220150304
82.5149788658903
82.2849143687839
82.0691382196123
81.8390663473246
81.5581994694238
81.2385862874507
80.9024431439178
80.5474502292589
80.18860422679
79.80879483767
79.4339165576566
79.033388490399
78.6376152150862
78.2541955000246
77.9032683018769
77.5450543863181
77.1833131662698
76.8237118016885
76.4650114348491
76.1090911733962
75.7189873826896
75.2527359480809
74.7556208963025
74.2614601640078
73.7483126075515
73.1854029362716
72.6121831706422
72.049995879606
71.5317328220577
71.1206856646424
70.8317421117317
70.6198040265794
70.4722026052176
70.3288803881198
70.1712832803672
70.0217128972202
69.9434414139262
69.9309938621815
70.0418819828985
70.3251095678311
70.7302630942178
71.1992278558209
71.6845045966097
72.1547465919911
72.6620012102059
73.229627232498
73.8844115946366
74.6193639752728
75.3601159251723
76.0973007216893
76.7971689835696
77.4692831075477
78.1797973985714
78.8402720764046
79.4203356419791
79.9776905323851
80.5222166928383
81.0534605269504
81.5258225943383
81.9610908120111
82.4150565383572
82.7971282963632
83.1237075472981
83.4014792669761
83.6515187429001
83.8932586041754
84.1205195330912
84.3041769474496
84.4355823356302
84.5939406262806
84.8215716811713
85.0785605243569
85.3577837950736
85.6196346359959
85.8422577006144
86.0402076684593
86.2219638638563
86.3727743108287
86.5330169645515
86.7055833247422
86.8531039160877
86.9891692399697
87.1069016018244
87.2208230556756
87.3573489619688
87.4927807723956
87.6182627990493
87.741416168018
87.8463437806416
87.9290745678664
88.0039959324024
88.0631606719818
88.1093906237756
88.1658299258146
88.2199957525563
88.2742962277356
88.272297267865
88.2219577415476
88.1233434206772
87.964757385781
87.8328998264305
87.8382944114562
87.9972599846675
88.1564995639712
88.2960927013422
88.538932580427
88.8151148337123
89.025542643556
89.2191531967639
89.3650493565375
89.4789375655067
89.5701486732859
89.6634981282318
89.7799290427364
89.9040981997391
90.0126882196264
90.1116706841586
90.1721095508411
90.2336775770311
90.2986787315292
90.3603013945316
90.4198744983465
90.4608748130898
90.5161266874863
90.5964998391581
90.6604797387819
90.6841099780996
90.6832674845835
90.7140855088624
90.7550644576333
90.7902900884526
90.8246733364166
90.8602935289102
90.8930408770577
90.9444210245033
90.975353516562
90.9690312005346
90.9968471822549
91.022966134521
91.0500396111721
91.0523750110774
91.0500168119316
91.0602918463069
91.1100573941089
91.1482234550391
91.1490480756086
91.1803496238017
91.2034085307216
91.1766194864476
91.1555702099715
91.2108494977268
91.2189700209404
91.1095034405502
90.9926793327659
90.9075289751229
90.7737200199815
90.582787628961
90.3787883342542
90.1332653748673
89.784549137285
89.3489045524691
88.9005001072151
88.5049886162285
88.1274141944209
87.762437969899
87.4251088027146
87.1329957243613
86.9129586606214
86.8718672514293
86.9689613743021
87.1367963102556
87.3472438446595
87.6455235077944
88.0281524513754
88.4244509076933
88.7560257353493
89.0204320843001
89.1977508521048
89.3150010097084
89.3586093546845
89.3840746893052
89.3738337513416
89.2655154780381
89.0369241985903
88.6920739954476
88.2909787158194
87.9756582710363
87.1068746243457
84.6331596229824
81.5376097050441
80.9834625475422
83.3366745367589
86.0329953235069
87.7028540284022
88.5883831943331
89.0831363742914
89.3420479136622
89.4197915533438
89.5876661966728
89.7469887337881
89.8314653019374
89.8771995506818
89.8940085577888
89.8843079503821
89.9002557819971
89.9206450971607
89.9083242652211
89.8784631076212
89.8265535184785
89.7821450923187
89.7676110073724
89.7932618126362
89.8197166667261
89.7719999496813
89.7826714925689
89.8198245035614
89.8461572864251
89.8104040753661
89.7708990424716
89.7272614829644
89.7040708000521
89.7221740211406
89.7704454233742
89.7539506798984
89.7015219814336
89.6583979779254
89.6383540939166
89.6229375251063
89.5945203558956
89.581462395424
89.577132784811
89.5351702781717
89.4762601611868
89.4584327889658
89.4479726695916
89.3925357069356
89.3510206449738
89.3236035715125
89.2751459558634
89.2520668970857
89.1843612683208
89.1064820310635
89.0922525170381
89.0690077022607
88.9930235848878
88.9237422306968
88.8382870065714
88.6888393416209
88.5622935583817
88.4846535525136
88.419553691424
88.2820910475473
88.1541916311309
88.0464160189575
87.9176110562879
87.834895463072
87.7695148304393
87.6764872295962
87.6268613335527
87.6050032825315
87.6180526763084
87.6604956740913
87.7065117242422
87.7412392550821
87.7835949345448
87.8178325835281
87.8667476722153
87.8287709220765
87.8791158816277
87.9393770537019
87.9868532549616
88.0679109980888
88.0915597006553
88.0736030595587
88.3170708732326
88.3071054952738
88.1733292273372
88.1776625666382
88.1462984229855
88.0724586375113
88.082381039297
88.0701551999167
87.9902928807171
87.9173822236908
