1798
3999.43349933624
650.420452594757
1
128
4
99.2333665495386
99.2476260229927
99.2993177139137
99.4019527190293
99.3046908398938
99.2227238446857
99.1680005388449
99.1283272482027
99.1282754648827
99.2075466408526
99.2275192541021
99.2363094267041
99.2409434815987
99.22288888805
99.2626198877669
99.304568888097
99.3320056310991
99.3555563533935
99.2829689484242
99.2292714121218
99.1747750656179
99.1791682942444
99.1264001202147
99.1483496143871
99.2163625418102
99.1617798491262
99.2178174020508
99.2922581434177
99.2256079888386
99.1476627294013
99.0569976211255
99.0833567249168
99.1416151575295
99.2048476507544
99.2660631882665
99.2318170810803
99.156504690635
99.1624879570157
99.2623181713831
99.2919994361072
99.2432389349266
99.1655416205945
99.08725119419
99.1146352953977
99.105858840682
99.0363259678067
99.1497462343642
99.3224660161041
99.2394141961215
99.2022139178146
99.3085227408468
99.2801514464244
99.1903769528415
99.1579082345701
99.0132998482393
98.9970761573015
99.1940063026925
99.3348124095524
99.3243210805721
99.2634095688741
99.1172645976304
99.209364301391
99.1827699013302
99.0749609079983
99.1796070452748
99.3093748041136
99.3238118333219
99.2309878249254
99.0891488927031
99.1114540881981
99.1684997336559
99.2994026229386
99.2821069032437
99.0818819170417
99.0932380375087
99.275702901077
99.3077049932338
99.207042370907
99.0698227604284
99.057699358956
99.0423842025159
99.0170227097495
99.090510431091
99.1284007334695
99.131759908085
99.1581182792285
99.1690665630732
99.1967167241558
99.2105813906796
99.2129857177434
99.186833794004
99.1361514415897
99.2004583457008
99.2761816305477
99.1842154816797
99.2306407963736
99.2020891216394
99.0438593950022
99.0181081087692
99.2018293807625
99.1934153979499
99.0892431018484
99.167570429893
99.2473901660914
99.1518441234497
99.0830078724541
99.2210070403951
99.1170427914741
98.9968023585894
99.1466379125769
99.1541587887946
99.1103289153026
99.1807165851064
99.3287597717196
99.3064675014953
99.1919274649571
99.145089333459
99.0927296116188
99.1407638925464
99.2441460483706
99.2412227904436
99.2654493055383
99.2311281453226
99.1737956495385
99.1103581742422
99.0184850465672
99.1094710169466
99.1430141078074
99.0558486223382
99.076965788466
99.1616974315628
99.1841654815229
99.1527361938697
99.126746535225
99.171010058241
99.1258481907989
98.9239175676137
99.0743359948887
99.1971985325405
99.2655716926602
99.2239271229333
99.1307243787013
98.9741041097848
98.8747445918708
98.9617691561566
99.1155525738469
99.1620331574183
99.2050569341198
99.1845849159028
99.1544368207065
99.0720052666841
99.0595261570139
99.1763643579726
99.1347803677088
99.0267462500812
99.1519690426794
99.1654288944358
99.1598757207326
99.1421264793797
98.9843989395995
99.0075672160203
99.0944140317831
99.1376439571721
99.1849687047773
99.2494949994927
99.2680699160794
99.0998352551372
99.0282189407101
98.9606327096695
98.9912314807101
99.1316576821234
99.2581778536565
99.2271675158284
99.211690078155
99.2693480109934
99.0722408592617
98.8404482793955
98.9379445177739
99.0541175053381
99.0685100409167
99.151538034552
99.1671784206769
99.0811682740958
99.1496667098626
99.3006920246198
99.2491087913113
99.0286960864938
99.0001881054723
98.8979079945235
98.6877272370005
98.7032787857375
98.8275619124308
98.9897832854002
99.1054088373724
99.1019130938993
99.0303662658641
99.0692165557219
99.0545856964713
98.8888646131359
98.8354520423021
98.7706026838017
98.8101575331656
98.7638705024783
98.6705323034123
98.6879390974653
98.7662791645043
98.8238909035012
98.9060375835168
98.8765468409684
98.8140278943876
98.7524533444883
98.6699848198038
98.6336928002387
98.7377399873938
98.7268863150788
98.6460838336025
98.6094421790705
98.6643783030978
98.6907595748695
98.5558027416664
98.4590995954678
98.4882878115006
98.4819895894778
98.5405416184078
98.5622186614004
98.4721639471328
98.3861943328148
98.455838704413
98.4892195220518
98.4873794425866
98.4616879539097
98.3787412937865
98.3466003094031
98.4078019112828
98.4277270303184
98.3943021499868
98.3278474441464
98.3249993515876
98.2160150138577
98.1970141968044
98.3390091865288
98.3711038303429
98.2189043609569
98.0999339254213
98.0215524530393
98.0655346664702
98.0793015663838
98.1216413755622
98.1062637691307
98.0911846190218
98.0229178073715
97.9756513446819
97.9402205215779
97.9709761463379
97.9502774045043
97.9203690088099
97.8969681926456
97.9299631258008
97.8685149157404
97.8333587772836
97.8681600004149
97.9490161720617
97.8991648994688
97.7740890198766
97.6806743228766
97.6940124064201
97.8065688754583
97.7921481011179
97.6626644882485
97.7508078747057
97.8240141959068
97.6853496494022
97.6223949415427
97.7209825804264
97.6243363697417
97.5265939187855
97.6033109078604
97.6660585542719
97.639820225342
97.5057752211763
97.4075696810103
97.4149388240146
97.4912566985101
97.5449959871014
97.6037815337912
97.6282432438316
97.4973518330072
97.3751730726919
97.3137882703107
97.359756703035
97.4500341187749
97.4681687750474
97.3593143144139
97.3445249910023
97.3408914374917
97.2729564609185
97.2029975604627
97.2781757469112
97.2814904608064
97.2537053779687
97.2205441119506
97.1797282519886
97.1826024591384
97.1969754839515
97.0712987143614
97.0948499846521
97.2893147845234
97.2659468200578
97.0281026583126
97.0457552855155
97.068266342388
97.0430448406962
97.0232940338825
96.9747238396901
96.9563819014385
96.9648737917302
96.9871207029093
96.9408143310558
96.8238224655304
96.8087209519672
96.9126352223442
96.993221005516
96.9439123385683
96.9330018233828
96.8255517940252
96.7271512573039
96.8158857964647
96.8954656178334
96.8543966807779
96.8064880199562
96.8227808269072
96.8657730280756
96.7684449465922
96.78243396869
96.8718977788042
96.8899183140167
96.8069951969885
96.7810571879111
96.7987888569742
96.7031262480095
96.635037688994
96.7150743937703
96.766652782173
96.7697055233311
96.690769833048
96.7220600234989
96.7751004124652
96.7211427820994
96.6631007290089
96.6801735375557
96.7123374333806
96.7758187662344
96.7270884769912
96.5863891326115
96.5731398093443
96.5937004680786
96.5723747073851
96.6779549020268
96.6499515212318
96.5704007876378
96.5442056741533
96.6038512054694
96.698816109741
96.6756257198124
96.546877229824
96.551458855392
96.6300602834429
96.6970924851606
96.6693959849437
96.6383503838501
96.6758639453525
96.7175465806259
96.6698888107444
96.6623196626239
96.7108439284227
96.7391473928745
96.7122840867946
96.668194943205
96.6484355660445
96.6251068067311
96.5898630337487
96.5682528019576
96.5608102337064
96.6178088292118
96.7072299128795
96.6898227538106
96.6558322066715
96.6502774433467
96.7201971736909
96.8583021962262
96.8290892487072
96.6970715214802
96.6985327248391
96.7734819199146
96.8418800862377
96.7405718588911
96.6038179087368
96.6448609228822
96.6647393145701
96.7336414468764
96.7899903659225
96.8747701008237
96.885953808041
96.7500242820795
96.7205613648027
96.7660337943582
96.781830182159
96.9011882751741
96.9060138535528
96.8107682225812
96.751094713616
96.773539202368
96.7552161822087
96.7438745152249
96.7837539841576
96.7986791938969
96.8302476322818
96.8360862390095
96.9069039159144
96.9285426206923
96.8773960691962
96.8631988901985
96.8444131415395
96.8652439037588
96.8989314254058
96.9739315029374
96.9824792061818
96.908649025983
96.8609228283984
96.8913293640091
96.9851987445598
96.9657800430576
96.9552611117557
97.0486888459793
96.9938215755534
96.9660031155977
96.9978588723573
97.067465029106
97.1335036579415
97.1064145874348
97.1188933682905
97.0791040826955
96.9949879721738
96.9885147087036
97.0179432036943
97.1183441492401
97.1817122540829
97.1548447026076
97.1021522967404
97.0921769181731
97.0717394490503
97.0849457048402
97.1836846377197
97.2743788748587
97.2356163852718
97.1797973128381
97.1111409962002
97.0957231849154
97.1713116749166
97.2303996549616
97.3075622456787
97.3320893047441
97.2156977670825
97.1106313848802
97.18195993301
97.3190607523936
97.3007858220573
97.2952242069857
97.3472764061015
97.311208524856
97.3205346821432
97.4600073327372
97.4522208564099
97.3578363349748
97.4016260994838
97.4019582584032
97.3621640274252
97.373284470879
97.3091624879922
97.319641370415
97.410260779189
97.470134911988
97.4941846451685
97.5156309083267
97.5081207244516
97.469765732589
97.4372981611402
97.4417992948765
97.4723237593235
97.4581985955507
97.3583536698099
97.4186937902602
97.5092379951812
97.5541284510346
97.5712230196251
97.5854806668757
97.6178042285666
97.5590598183483
97.5179218110485
97.5378208611141
97.5240839917361
97.5440414031441
97.5494403937935
97.5754125846193
97.5685368005975
97.568604071578
97.599573962641
97.5777026691667
97.5876780333934
97.6565511408392
97.701469352196
97.6584575955685
97.5827090038216
97.6095719363349
97.7313728083823
97.772438948731
97.7450680176203
97.7623786102715
97.7716860507124
97.760271498187
97.7664482372754
97.7285143691929
97.7052197161636
97.7361173813944
97.7809059729748
97.7955599110774
97.7716463627762
97.7546094721593
97.7614718964822
97.879195001155
97.8819088333769
97.7657984660206
97.7632322444582
97.7937026644826
97.7974435548307
97.7846595945839
97.7687363154256
97.8007929359962
97.8147831908862
97.7967492722746
97.7515314709935
97.8025285619684
97.8552763294513
97.8688040076633
97.8638948123992
97.8660696671006
97.849406319424
97.8450877027107
97.7832334370649
97.7651744686689
97.8297113848864
97.8420813608251
97.8060954519845
97.8191259156935
97.7674405519494
97.6723203895966
97.6826115513371
97.7511459320331
97.753993266405
97.740053019786
97.7270191260766
97.7851259484419
97.9248676011426
97.9297899355148
97.9055418879083
97.9345955335975
97.9014817041118
97.8700251430206
97.8832225180506
97.8727054989081
97.8668134031642
97.8533553994744
97.8319062632015
97.9063278143581
97.9449362488159
97.8924071946025
97.9504366734364
97.9694577085109
97.888356707044
97.9270804456747
97.9650585842594
97.9759615259883
98.0213625657126
98.1237580960461
98.1414365119571
98.025535785292
97.9309581398072
97.9908828008131
98.0537098065427
98.0760879636313
98.040166654959
98.0243335244594
98.0606191731415
98.1045331539248
98.1421688893321
98.13039634156
98.0908672688768
98.0293537996825
97.99990132176
98.0949171386158
98.1345539970602
98.0559856494385
98.0288306024632
98.0925010020871
98.2156981115933
98.2461264692338
98.1440998427305
98.1000385361071
98.0988779831826
98.0983423485622
98.1139101374605
98.1412224472055
98.1964054655453
98.1885060520868
98.1634679434526
98.2127960368584
98.2396716899466
98.2380864838581
98.2171951880299
98.2459850087199
98.2638526319694
98.2485829918164
98.2586251049083
98.3354133528118
98.3485476466187
98.3110692529475
98.3000395718298
98.3063483444265
98.237823130404
98.2122811512725
98.2168447262769
98.2504814247156
98.3155495206798
98.3389983433923
98.352570595203
98.3146594782052
98.2293667308977
98.2559087210091
98.3620035798147
98.3727715265509
98.3174322185415
98.3099169156467
98.3304406638859
98.3074463597511
98.2884785980692
98.3027001894361
98.2762274066935
98.2931769875908
98.3157100642367
98.3323810876411
98.347742867621
98.2792738449861
98.2308664612687
98.2274557022029
98.2279378013628
98.2191394003486
98.2223449714952
98.2671022836654
98.2596923044122
98.2343088535008
98.2593521437641
98.3171285742817
98.3047858081508
98.2720159491541
98.3087753538685
98.3599809211691
98.3167584270604
98.3232130169541
98.3492341024326
98.3224051914043
98.3315522903312
98.3514491809165
98.3650045123793
98.3928934267759
98.343909439692
98.3329395175877
98.3553317158419
98.3241037535121
98.3364170438305
98.2997474072329
98.2272476384859
98.2168680242848
98.2579852230909
98.3249109711678
98.34811449074
98.3778686066862
98.4247734549083
98.409851450665
98.4364145508
98.4840031011713
98.5112728535407
98.5045458759846
98.5229343014784
98.546338933114
98.5355098653054
98.5434817615364
98.5826787726604
98.5560856176062
98.5491718002329
98.588565206801
98.5600470129603
98.5523391039908
98.5822269011896
98.6074533461154
98.6112630988427
98.5432503907641
98.5344278033557
98.6038114321508
98.6394063739394
98.6551490153095
98.6431094355979
98.6336340991937
98.6149343034066
98.6194186465668
98.6371525377419
98.6146336805449
98.6366802763157
98.666304912818
98.6310099016607
98.6203657187579
98.6372047576801
98.6414854258484
98.6618200694195
98.6459393346613
98.6496066328361
98.6538655527318
98.6647773420248
98.6948481144424
98.7078372573749
98.7355834951156
98.7459142695785
98.7197147410365
98.742808843678
98.7715111675309
98.7917151573341
98.7800156145791
98.7327664282742
98.7604076510467
98.7924399558333
98.8299561608647
98.8561191621167
98.8697383461135
98.8538310550285
98.8474628798158
98.7905933747704
98.7272698314285
98.8007126444282
98.8469914571315
98.8909203657244
98.9069681367254
98.8629788484735
98.8131285868996
98.8302666292693
98.8938073424466
98.9349117355199
98.9762016391796
99.0576474482952
98.9957074594109
98.8976205310756
98.9130904091184
98.9854979503292
99.0276279768736
99.010890665181
99.0300556530218
99.0098229131835
99.0278906121901
99.0455323140778
98.9841522055831
98.9921928007281
99.0867071114566
99.0773477709446
99.0444228615917
99.0005568264626
98.9363782518522
99.0465721427045
99.1689827934251
99.1390519262696
99.0886342510452
99.1321241002181
99.0603553526992
99.0586377604194
99.1744342909848
99.1788110650092
99.1103382315611
99.014192409313
99.0107680700991
99.0201430195821
98.9847976011409
99.0235602001935
99.1160495001687
99.1672685184216
99.1195432647117
98.9694232844382
98.9186008401031
99.0234540585512
99.1125148971562
99.1267100331116
99.1585811965132
99.0713591594684
99.0366404771289
99.1456144861413
99.166333036657
99.0836682584541
99.1004609090527
99.1683370028974
99.1111124313539
99.0591505625872
99.0242718696522
99.0366711607531
99.1117617175819
99.0665589874046
99.0533541740782
98.995361048954
98.9187269911853
98.9347788562425
98.9868189395429
98.9770571740645
99.0158337674022
99.0933625717
99.0493018632497
98.9437430217853
98.8597497988488
98.8770903896063
98.9040780549544
99.0123201606245
99.0743216600969
99.0711831651872
98.9666716293227
98.9171768029778
99.0083028251165
99.0516167257219
98.9667592901886
98.8489302278122
98.8255133321493
98.9012878799613
98.9942803465353
98.9658895335608
98.9490918515555
98.9584179955131
98.952510899774
98.9432865126855
98.9166382189999
98.9102863182435
98.8310569804499
98.7918076425142
98.7655454715356
98.7084308129469
98.8043518532738
98.830807861735
98.7603384722094
98.8172458678369
98.822406838278
98.7673979147728
98.7615566113597
98.8186519327522
98.7675223971281
98.667558324216
98.5933061322795
98.4750227696935
98.3405368723907
98.1606257776202
98.0022518347194
98.032530444888
98.0737314748752
98.0596155978749
98.1211959751787
98.3203952663909
98.5274884393782
98.6186010777768
98.6862068217574
98.8055848552564
98.9052555379798
99.0230228350197
99.104911923005
99.1275294987096
99.1982662104474
99.2671633225125
99.2623072219942
99.2858192373096
99.273114677735
99.1915123318827
99.200216447149
99.2519350626989
99.1217475509687
99.0131240840549
99.0707484950536
99.1137540442986
99.1830789788854
99.2740315200279
99.2246693501307
99.1226914299085
99.1186581923109
99.14056733659
99.1549019985387
99.1858788941207
99.1757544260433
99.1814820784442
99.097805138976
99.0216721206415
99.045589878119
99.1186729216444
99.1661314326349
99.1963323945957
99.1894744884667
99.1788060151453
99.1306597080519
99.1524313257118
99.2368348512541
99.1999711867111
99.1588347832656
99.1644787127585
99.1978241815001
99.3089322836932
99.3555656704937
99.3621115795233
99.4045325697722
99.4221664543641
99.3867764017001
99.380431731846
99.4008919282614
99.4104704573161
99.4524363511901
99.5344908040223
99.5940563734326
99.6172984739661
99.5889965616751
99.6109841547891
99.7156534857554
99.759486484617
99.8325983843012
99.8485540498047
99.8551592719532
99.9082366491833
99.8836516101547
99.9223498891288
99.9794633349582
100.001816153186
100.000547223926
100.143089569181
100.150063658035
100.097545992325
100.101128431864
100.183858046543
100.352453813937
100.334682944423
100.054817276357
100.165022300905
100.303580901209
100.261857464445
100.417057891235
100.466899208816
100.344776035148
100.375685484244
100.567939167406
100.529983977514
100.385862104201
100.43719265418
100.351932526724
100.301789165303
100.450553924102
100.529851120581
100.508346023282
100.770542106474
100.851701126085
100.67157229794
100.396944872062
100.529893645179
100.872114168067
100.733023079394
100.679616223624
100.743782924526
100.767378485229
100.764870493257
100.656987220828
100.569379012317
100.939084403666
101.131985960357
100.942550007811
101.047383839894
100.708281722637
100.46423324225
100.522192286666
100.779375765248
100.904870287033
100.69170618858
100.966414205707
101.702886136792
101.819994351563
101.441353725395
101.073161554253
100.787090845934
100.737004172194
100.63667823253
100.592050052512
100.482403229792
100.393584628833
100.546651935152
100.290596740685
99.9766516308131
99.9419589734173
100.127244833659
99.9165331852991
99.6982588836356
99.6412745054314
99.6419757712396
99.6213916621125
99.6649751572903
99.6546395635685
99.628354137364
99.4925530820484
99.5329082369169
99.7271384545651
99.6244139181536
99.4808054205513
99.5990853939392
99.7276749280437
99.6430604264092
99.5421166371645
99.5252450397373
99.4467030166622
99.3416444259114
99.3993680096103
99.7739793022001
99.8281665975386
99.6548324567863
99.5218300185454
99.3801880670228
99.2444993220588
99.2646809844689
99.3875470938952
99.5387123148785
99.5349466932481
99.5378506875487
99.342708729749
99.4999985320937
99.9134172789321
99.9456418067689
99.9134050259126
99.8393605340074
99.8085538165754
99.7886587036157
99.7601608948965
99.8867372978838
99.8428312882338
99.8746606883019
100.038774411962
99.9815657350764
99.8869559548407
100.169618685928
100.504396846593
100.414105614393
100.33167804949
100.688831762959
100.746600183708
100.46287227882
100.700721876779
100.515279525418
100.360967675459
100.322398319464
100.262238624628
100.783302882728
100.759350952755
100.192043811083
100.378307804703
100.527279347898
100.397550896004
100.557921757599
100.562557218009
100.273630909093
100.434756104829
100.757995452304
100.559034445216
100.403459105035
100.295409733978
100.517521576756
100.666675072989
100.577605126566
100.482864948341
100.367788037195
100.209339006089
100.082871604292
100.155967699485
100.305331879017
100.373949455346
100.620809509624
100.766703947942
100.641260223901
100.293307262085
100.255010347939
100.500232924079
100.512305290261
100.464988460186
100.485578316655
100.293542669275
100.191303049049
100.044987738546
99.8700829244993
99.9406362078665
99.9697767275381
99.8600320056137
99.8628773643956
99.8139210961559
99.7146245347487
99.8356973370573
99.8966589967254
99.7673242866561
99.7438853037679
99.7208185913368
99.7944797447107
99.8986460815496
99.7804984501424
99.7641094209134
99.792748684788
99.7119288030785
99.697622808797
99.6710797199032
99.5094176800252
99.436945029964
99.5435669848682
99.5765434382859
99.6219549084238
99.5908212561615
99.4880208468413
99.3844743814104
99.3241270312765
99.3390454962867
99.446268050253
99.513293486907
99.4921729095233
99.5767259218001
99.5985922033756
99.4254141823994
99.3614383709817
99.3615668131059
99.3199862940133
99.3447284059647
99.3902100418347
99.4339824632893
99.4681512139961
99.4551500327106
99.3645181495809
99.3498650651023
99.3852424530695
99.2987125029284
99.3287096357946
99.3753701900805
99.3243258093221
99.3536200014071
99.3784015834969
99.3184166412058
99.2845501229319
99.2854654988378
99.4109783320619
99.4518177165711
99.3776439204063
99.3371017378985
99.2984433426377
99.2022892255912
99.1607022128378
99.1950472515942
99.258772023322
99.3011947820439
99.3278718328462
99.2929733418229
99.2725669943544
99.2543187144382
99.1839543885901
99.2002065166193
99.2171287918442
99.2189203997876
99.2344671449117
99.2226853727668
99.1759741782012
99.1226584128771
99.1224932057949
99.1261597091061
99.1497915575055
99.2077490696511
99.2098764617613
99.1187816361508
99.0963577235556
99.1329710402117
99.1339792189942
99.0753826520065
98.9970100360447
98.9668644348881
98.9546649311846
98.9893276375441
99.0648426187038
99.081010767014
98.9888838157093
98.9599801707178
98.9942476923496
99.0446846355406
99.0620976244924
99.0163687539777
98.9662574802902
98.8955253870582
98.7130502819994
98.0257188155333
97.0356571855269
96.9591116705411
97.569722785585
98.0258726826136
98.3908204908356
98.5567361336434
98.6247494564477
98.6766305360693
98.7136040682629
98.7149593783602
98.7263120168709
98.7610542997548
98.7463350919833
98.7724006735289
98.7781858255412
98.6961500145167
98.6701947842961
98.5637315816011
98.5313698261113
98.5096442115547
98.4888203114987
98.4829099305969
98.5126547339287
98.4640870417604
98.4125987854757
98.3253811504271
98.1457851859547
98.0906496833135
98.086910872033
98.0568286884361
98.0188360034091
98.0062383894761
97.9254701852063
97.7779879489176
97.7621992647396
97.5571734760236
97.3766191147111
97.3233301820669
97.2132104201808
97.1634451908199
97.1567550082482
97.0344326937805
96.812696382156
96.6822829016972
96.4951118440626
96.4016327840104
96.3058254917511
96.2458542636269
96.2057554753802
96.017053828892
95.8313139581129
95.8086296964234
95.7130220853074
95.5459759006001
95.471088335986
95.4250522494142
95.3883925643425
95.364378469577
95.2182815353974
95.2632920514828
95.2878359189642
95.0778306124935
94.9622128050607
94.9880449898875
94.9366582797354
94.8703967438237
94.8919364264055
94.8359058500693
94.735836537849
94.7946546455355
94.8123107012843
94.7899454156829
94.7647162201203
94.7809889365408
94.7088304880901
94.7344133609363
94.8787407837812
94.8316787405379
94.7281726487417
94.8076082441356
94.8489320876058
94.8137936878665
94.8218717405361
94.8546191602712
94.8764915372969
94.8691077579897
94.9050738696682
94.9567898665141
94.9943072424644
94.9826506318236
94.9737192887818
94.987030341134
95.008034537113
95.0073619550685
94.9868805472628
94.9764552728796
94.9722139557725
94.9480380276139
94.9680256414722
94.9033618968342
94.8685372955619
94.917046186124
94.7972673911075
94.6273963026438
94.5923464455541
94.5575968383485
94.5075422153145
94.5099949358524
94.3589017455289
94.1195026322009
94.1363151279494
93.9833039215156
93.7715255701618
93.6655021844274
93.5641271335882
93.5301884825066
93.4287984799137
93.3286181976668
93.206463503846
92.9845822331334
92.8742997226471
92.8447267501814
92.6101210320518
92.4177668476243
92.3942607399127
92.2609645088848
92.0993678182317
91.9585850990138
91.8318044263508
91.5886669341481
91.5122191616171
91.3289182133965
91.114519832678
91.0440272025824
90.9015291417461
90.7819459905241
90.5728312855351
90.3301367185671
90.405485642633
90.3131725299897
90.0750380505465
89.9188739029194
89.8207739015367
89.7733205123516
89.756557146309
89.5911855647246
89.441951957119
89.4433701117207
89.424837407958
89.3541424189509
89.2837024646125
89.2667534914357
89.2830346506432
89.2061047867953
89.1346548573934
89.0374440456707
89.0651906097237
89.1393069582949
89.0292474005213
88.8559981921258
88.8378140469459
88.9407879390122
88.8533333773355
88.6589734465933
88.5399230558309
88.5828437408602
88.301196549413
87.9154988301926
87.4387337697189
86.8565578232649
86.140294850326
85.4202674344454
84.7852669486139
84.2053170459941
83.5789238387415
83.0491739899283
82.4647511221722
81.5953260972978
81.0993525079896
81.1920424878345
81.1709441121543
80.7385689454625
80.2778104113295
79.7358310375261
79.1456696110376
78.7522338910927
78.223035905706
77.5559690889279
76.9243568653617
76.3350718659143
75.7411387702429
75.091769393695
74.5234790534921
73.9974769776055
73.3541595839593
72.7510381546136
72.2150199924454
71.5952262333139
71.1413881335745
70.5725193124028
69.9156866841176
69.3774125343224
69.0619152773728
68.6335066868096
68.1652652113966
67.7965408264755
67.4985047234483
67.1581180703425
66.8467622952156
66.8548466017397
66.9496525398535
67.044362786713
67.3934195913178
67.7214291255462
67.9721218002694
68.517506360901
69.1462776976715
69.5360342006004
69.909633319732
70.3043069492169
70.7124353802629
71.1003153683271
71.5123716041349
71.9214281237981
72.3196358928572
72.6639986635263
72.9455218635962
73.3366481654779
73.886555074784
74.3161660021339
74.6366093510378
74.9326245449218
75.2636455644959
75.5609884895731
75.8731905939146
76.1955330103307
76.526487022176
76.8370358965708
77.1621927422407
77.5038394839274
77.8198247628378
78.1028941274947
78.442028171754
78.7569485628752
79.0486819379949
79.3340439046058
79.62232000301
79.8763590116204
80.1398370882074
80.3986435476112
80.6514650491687
80.9015864665957
81.1808078236594
81.441389140741
81.6726893127261
81.9198735191388
82.1743387014831
82.3981145659447
82.6125900126165
82.8114071358131
83.0342118564514
83.2614778597111
83.4459267649386
83.5945020939296
83.7698433009153
83.9608021401407
84.1283717053053
84.310628685784
84.5023610508703
84.6472807978028
84.8041647734507
84.9658914282292
85.1116745698151
85.2552375148485
85.388761849351
85.5000620348468
85.6339334488289
85.7700312768021
85.8999658490291
86.0280948548756
86.1452189632284
86.2575984556113
86.3635619116727
86.4364009219983
86.5402554583515
86.634817208109
86.7220898209449
86.8049906305168
86.8672381660683
86.9017800085793
86.9261275817505
86.9257780019911
86.8849510301319
86.7783967614261
86.5757805050192
86.2732228358283
85.8603672991479
85.3534299427404
84.7975519788214
84.1558380319271
83.4641116826369
82.7611932400884
82.0903133288819
81.4502791984056
80.8674532605291
80.3411839993443
79.877136200658
79.4588859007686
79.0882384853952
78.7165017927339
78.3396434175443
77.9634101652976
77.5984078870413
77.2337438242989
76.8386040410036
76.3887562075625
75.9601260145836
75.5272339135445
75.0796236890483
74.6298026165265
74.1666490602748
73.667187772974
73.1368680837926
72.5945284863115
72.0760803803384
71.5084316673474
70.9291065646724
70.347183912717
69.7378659719499
69.0868500923071
68.4346677142154
67.7936253373441
67.1712817771192
66.5338268890895
65.9293018634897
65.3920995239146
65.0138255668266
64.8823383762362
65.0070934880211
65.2776884663701
65.5072825116931
65.6148899065353
65.6566394207638
65.6798628454785
65.72582988786
65.769309831594
65.8300629155561
65.8847916626844
65.9457780155133
65.9846226767389
66.0679566656414
66.2108713153548
66.4697044351785
66.7926058672211
67.2017436683782
67.7751513542131
68.5418271789164
69.473765318914
70.6179995423343
71.9211924445146
73.2877747192827
74.5805528183338
75.7681148763167
76.8567661124911
77.8051970574346
78.6179882290934
79.390225057831
80.1357458908176
80.8424413707146
81.5295941598049
82.2114995033122
82.8794772944362
83.5200132194425
84.0801305374883
84.5870590528271
85.051395646346
85.4893766367229
85.9047606651731
86.3063134920366
86.6635994846134
87.0004235064063
87.2932479305514
87.4544423546964
87.5865723431161
87.8702578618392
88.1985289513172
88.5198773327451
88.7901103162597
89.0400761014086
89.2798404294448
89.5155881761126
89.7171057337309
89.9022296200601
90.0843772164666
90.2483531938103
90.3997777467771
90.5375462360415
90.6904715632747
90.8650412015772
90.9958160214774
91.095166721533
91.21260894451
91.3297884901671
91.4447221656961
91.5635420634333
91.6692413865037
91.7895478882559
91.8352298198428
91.7743759040308
91.3293638236397
89.8297086875827
87.5914994617428
87.0301601900499
88.5395012665785
90.0892628537923
90.9938745573892
91.5061936837303
91.8142325317847
92.0389642396292
92.186451487853
92.2743046941925
92.379268244092
92.5018138482165
92.5937669109594
92.6857294899551
92.792492742924
92.8676408823267
92.9174451367702
93.0024650530713
93.0721178195963
93.080851271769
93.1123142758998
93.1808270217171
93.2423932657388
93.2844203811178
93.3215773108315
93.3663356466893
93.3790259653656
93.3909705321655
93.4090887052272
93.4305837539686
93.4563871541378
93.4968034474567
93.5333497985597
93.55959682761
93.5888747366578
93.6009333015372
93.6385667762586
93.6869086434317
93.6967414814815
93.6987826720398
93.7203423878919
93.7540688303316
93.773978319054
93.7944778234427
93.8119338489764
93.8184103344726
93.8131135218159
93.8207719375271
93.8522740059784
93.8731184399569
93.8664368469002
93.8476935409203
93.8242852172488
93.8262939894003
93.8419583104501
93.824442436625
93.7827604497567
93.7286049422291
93.6514366741263
93.5701653278681
93.4084015198716
93.1879408761924
92.9493317067759
92.6414438203824
92.2975845659007
91.978991695042
91.6267528145427
91.2368507363673
90.9591848183609
90.701188905962
90.4430754412628
90.2869458319534
90.1989967254517
90.2257439766809
90.3718278222318
90.6051873167619
90.9256180048596
91.2973018405319
91.6590297547376
91.9776592000455
92.2217631329091
92.4561593516884
92.5882713319472
92.6352715239711
92.6236497987369
92.5462898968543
92.4837961461755
92.3936614338806
92.1519035202135
91.6150975210217
89.8611739654398
85.6444831407738
80.0884387667308
77.4753208902314
79.7662199300717
84.0438720795836
87.4555386154394
89.5347967849077
90.706518805839
91.2540339539781
91.4256250471784
91.687830761833
92.0047731692629
92.1475859570193
92.2065409659924
92.2312453307809
92.2503863673018
92.279260004832
92.2507848199207
92.2084842382857
92.2029811305644
92.1686950596359
92.0727253400517
92.0624526784089
92.0633626028447
92.0743716088602
92.0817576244601
92.0509216278682
92.0166529771877
91.9905579523392
91.971830507328
91.9013273427215
91.818135847641
91.7619794022221
91.7541198073868
91.735283954798
91.6594675242607
91.5787340851882
91.5680055292069
91.5326277014473
91.441866805869
91.356290482553
91.3366750256809
91.380017957352
91.3814376807561
91.3098516538167
91.2536497851274
91.2022399980629
91.1417729394705
91.1956479089979
91.2212363127095
91.1112273840368
91.0296219286568
90.9996661458967
90.946932617619
90.9134549926657
90.8430692768346
90.8129687987392
90.799533667357
90.7895696243947
90.7232345876882
90.5948151978721
90.6001180310686
90.6173640940535
90.5379048452858
90.5016755380383
90.4719116045029
90.4086461664432
90.3413128362065
90.2901131698573
90.253462373507
90.2661190835217
90.2556345201697
90.2142581597453
90.1867893313451
90.2102113682136
90.2364206313195
90.2381875840921
90.2304420763812
90.2732294385576
90.258126255227
90.2651516104799
90.2543129083436
90.2443540258485
90.2576717143311
90.2391320590248
90.0926852016448
90.2127736789917
90.1135890331989
89.9086937055743
89.7254365578768
89.4308485646955
89.1806150595801
89.0181362080131
89.0381579768328
89.0526496102067
88.8494368114555
