1798
3999.43349933624
650.420452594757
1
128
4
97.7673895875888
97.7474818623667
97.7220763653243
97.8276244824206
97.8687792288832
97.7414515231778
97.6430259676419
97.6455407154579
97.7238634663311
97.7321331193852
97.7022777936317
97.7538630379885
97.7567498109505
97.7484882928854
97.8435304072488
97.8460614810721
97.7226638621994
97.7505065988733
97.8128449238876
97.7203717429047
97.6873025612327
97.7293986206258
97.7914089781948
97.7924973253373
97.6946793463604
97.6107472246492
97.7160369099723
97.8211331306744
97.7857160586403
97.767237731735
97.7193939430405
97.6852818427645
97.7798871674144
97.8465122939697
97.7756677897695
97.7367109325817
97.7680285652755
97.6860173733561
97.694206858985
97.7986680292038
97.7816469657834
97.6759365895248
97.5870789428399
97.6718726155561
97.7802363995801
97.8442322225875
97.7765744768619
97.8098540333674
97.838133444575
97.734778136581
97.7896727594851
97.8738384099263
97.7811659116108
97.6715481433052
97.6092649563391
97.7084659163573
97.7510706349067
97.7193698709019
97.6834004644825
97.6294245165941
97.6464751175105
97.7314291678929
97.7478022864317
97.75303897304
97.802747823092
97.8120544230817
97.7358257568906
97.7032403546064
97.6733264084073
97.7088471523679
97.769731699285
97.7316285890633
97.7264824284752
97.8324044964143
97.901335174831
97.8302782837724
97.6380874138204
97.5433925778272
97.6813210429888
97.8748792435727
97.7777170873968
97.7864522472987
97.7967678943913
97.7738710214839
97.7517553742974
97.7705554919275
97.7834043840424
97.7323055546373
97.6998373496431
97.6754072874928
97.6993853622915
97.798088944623
97.831167591394
97.815852164047
97.8013229182939
97.7782159611371
97.7351155216908
97.725460481238
97.7119210397619
97.6621416674138
97.7545660918335
97.864449676747
97.7921217428016
97.7755323446806
97.8028749269186
97.8217651614878
97.830615818999
97.7793822144029
97.7263377789222
97.7220090198078
97.7623458412754
97.837407904382
97.8758971661116
97.8802960551714
97.8493582929618
97.729980763223
97.6463835301179
97.7125530123272
97.816679834181
97.8388876880843
97.7855462237191
97.7667453386829
97.7171334040555
97.6686798064223
97.7061699609057
97.791556755214
97.8031661338946
97.808606562971
97.8366795959464
97.7524711970445
97.7723868759294
97.9777523955233
98.0056196673126
97.8429411032227
97.6474871895547
97.5716120690112
97.618655839286
97.7999447451026
97.7590846675437
97.7341252336312
97.7618524588663
97.6552872227361
97.5732466357197
97.61680335882
97.6831731043893
97.6583026402374
97.6765406550604
97.7901371748599
97.8188926998323
97.7742407603479
97.8346735409471
97.9519795497543
97.9047114166626
97.7202191361752
97.6049897872352
97.6258650617378
97.7119075117193
97.7527404591984
97.6554216487787
97.6428909779986
97.7773021223562
97.8755871511232
97.8633866374248
97.8276406981875
97.7706445985171
97.7673691118565
97.8085944113606
97.822662234359
97.6978861457987
97.6675122183506
97.8116188832929
97.9271886421064
97.9535823709834
98.0105359566537
97.8450767523184
97.4573560250934
97.3782930068342
97.6222856565136
97.6831102846871
97.7375924164371
97.7915396396947
97.7382286386676
97.6720076734219
97.7675447650366
97.8326537441883
97.8248578156087
97.708754615905
97.6118990037218
97.6946936562316
97.7865837708469
97.7053006913898
97.6824205156494
97.7148578942504
97.7195274319105
97.7543298082235
97.7983686929965
97.7307208100371
97.6192898936679
97.5168319239138
97.53630521529
97.4913938004523
97.4947550322447
97.4972789661758
97.4858374988143
97.4786737142498
97.4276819092991
97.4275340127769
97.4424437117503
97.3309699964879
97.3122322859116
97.4322328412039
97.462600575007
97.3635724732297
97.4391005212776
97.4627400166146
97.2735441858784
97.1604592251904
97.2248529898752
97.285843458762
97.2640839741418
97.265638110639
97.2900131968465
97.1994322390961
97.0998380848482
97.1233589150696
97.215262281893
97.3165995033195
97.3323190036704
97.2298938366638
97.2095509567222
97.1474032383507
97.0872191541164
97.1432591975236
97.0677085930926
97.026273583371
97.095177140126
97.0360215076163
97.0338921211138
97.0677884298873
97.069680875213
97.0184363735623
96.9984282368906
96.9097695096289
96.7776396888733
96.7334460672196
96.8135164754745
96.9094584412205
96.8622002114906
96.8271748474131
96.9221973308317
96.905300046502
96.8708324594948
96.8719434261837
96.7423192951582
96.7058732871113
96.7785049202922
96.716642008039
96.6600481345251
96.651828367563
96.6357435347449
96.6247251996009
96.6571241710735
96.7671221860377
96.8156018688215
96.7214246901053
96.681071806475
96.5571841956487
96.4426439497809
96.5313853733133
96.6719881896438
96.4970862689799
96.3958423169624
96.5463565430632
96.6148815031797
96.5336174775076
96.4837376076575
96.4185485359129
96.3481364740387
96.3579209059332
96.4375866778462
96.4691719619375
96.47195876221
96.2922885753799
96.2783660905012
96.3900195171982
96.3678901710145
96.299503321217
96.2324994484198
96.1629224277154
96.1524638516261
96.1621201933216
96.1856626522773
96.1960518120952
96.238749621904
96.2695603613473
96.2316175290754
96.18747996979
96.1792756585379
95.997586385727
95.9921230028577
96.0616721416237
96.1402285811847
96.1037204624416
95.9416629747665
95.9532503284196
95.9604598660985
95.8966006821091
95.8600542135352
95.8632075557939
96.0019476447106
95.9897771935574
95.9107464629459
95.8647265245517
95.837378660074
95.8251694103615
95.8101487640837
95.8884102464617
95.9709727318889
95.9442349566208
95.9026541910128
95.6985778495223
95.6133424432775
95.6671391972069
95.7324707532592
95.8102672707352
95.7729483222223
95.6632790206329
95.641443751913
95.6149355695918
95.5564840222739
95.5085255911236
95.5510187131562
95.6020443323199
95.6481129801169
95.6560011013328
95.5491755454684
95.4786797928405
95.4602603538169
95.4669993108506
95.4844230555056
95.4327661208803
95.448452830663
95.4969826692711
95.4710760401037
95.4067403101649
95.4652734838176
95.4800181587188
95.4562903799614
95.3726632501953
95.3420224921111
95.3403384044407
95.434839364365
95.4998510472294
95.4627845793567
95.3385259687283
95.3117888301797
95.3520008162849
95.3096064600428
95.2527826610536
95.1613311169737
95.1489733837241
95.295893837017
95.3462448036886
95.3129701589542
95.2961173371911
95.2633841613452
95.2981343673522
95.3917810707604
95.4453262331204
95.4364438164924
95.3319290390002
95.2724216961676
95.2057999317194
95.1741862370585
95.2533324003773
95.3335931100993
95.3625046188909
95.3444952071505
95.2732510095087
95.2921093053769
95.3276182213687
95.351087442533
95.389359408926
95.4452711418963
95.3588076038379
95.2570003072673
95.3203972491306
95.3893256920913
95.4639919069727
95.5440100404939
95.5450764849928
95.509513200247
95.5124830803955
95.5439697226738
95.5384881730976
95.5288334544798
95.4799026163306
95.4575742492556
95.4497121088728
95.5402596832719
95.5793185471204
95.5491632654617
95.5440136889021
95.6220329821542
95.7131524271775
95.7466842508767
95.7230540331666
95.7454053064336
95.6821648325142
95.6542337731187
95.7198624036084
95.7310970018336
95.6499511231615
95.5736536902606
95.5309253911461
95.6329790310528
95.70258157349
95.7645640514477
95.8203224291382
95.8702165997927
95.8299070641333
95.7676060065679
95.7664285262725
95.8654394201901
95.8944253278787
95.8385643403598
95.8566389705506
95.9402357949264
95.9541658597384
95.9090241276261
95.8873933278462
95.904813226062
95.8660768412977
95.9026788520639
95.9735879016771
96.0255782422362
96.0451678498026
95.9835960480674
95.9606275110092
96.0384705336825
96.1280780180497
96.16224700176
96.1618971620109
96.111922502025
96.0399153255579
96.0763237112065
96.1405511227751
96.2348463949527
96.1863333755586
96.1563249015824
96.2035999688608
96.1886836942855
96.1761949557828
96.1736777240959
96.1723910363221
96.251892375942
96.3178780646365
96.251341612253
96.1877069064215
96.2062888456581
96.3122908446664
96.3825359291157
96.3348910237677
96.3892344633074
96.4448834517099
96.4225573682662
96.4321842765065
96.3835998510104
96.342615000077
96.406981198023
96.4358147748241
96.478763355095
96.4971772061177
96.3633838588871
96.3622811047304
96.4591586112769
96.5433187485276
96.5568924288554
96.5174375356523
96.47983778729
96.4905524032597
96.510620732387
96.5594780127101
96.6285032617159
96.635842860431
96.5795652979812
96.5480077437388
96.6299775003778
96.6659740379865
96.6952174354908
96.7146513395115
96.6780197021883
96.6800841909272
96.751116976465
96.787807112836
96.7800319410734
96.8081192225606
96.7716840090026
96.748371978681
96.7843894399475
96.755408503209
96.7386656614013
96.792753697444
96.7887731774206
96.8067505315305
96.807392214257
96.7979706843042
96.8400943466183
96.8233045375143
96.7867777803031
96.8217915304864
96.8898610901323
96.9284105859127
96.874940373868
96.8078794943368
96.8413881228032
96.896481321355
96.9002865919413
96.9021151206706
96.9905756222187
97.0283202961672
96.9858341953489
96.9278716051185
96.9142963401071
96.9489304415629
96.9903643953121
97.0228933617659
97.081660546625
97.0810909575599
97.0502576866271
97.0011603465925
96.9526545239955
96.9597721254347
97.0123617229955
97.0243363174551
96.983260993292
97.0223213413523
97.1145688957963
97.1163804200955
97.1219862687958
97.1094907849966
97.1198573244399
97.1420849217813
97.1540823384363
97.1195895564226
97.1066815056539
97.1837976574488
97.1940333280031
97.1477827394746
97.1383587497157
97.0750677506041
97.0781405258951
97.154965514067
97.1235533174331
97.0843860916686
97.1103333051574
97.1419694168685
97.1670238522556
97.181111882191
97.1468007646717
97.151846857369
97.1880858239257
97.1902139022663
97.1147397844784
97.0902487256192
97.2198689847522
97.2872917118954
97.2405322024633
97.1922265788988
97.2074675438537
97.1985310203171
97.1662436836052
97.1789226884757
97.2247255990828
97.2717083121755
97.3111938147961
97.2834326304455
97.2003971566344
97.206300270758
97.2938973251893
97.3286723468132
97.3161594935411
97.3334843107231
97.3729052243137
97.3593032513554
97.2683752588546
97.2008896128632
97.2678688885732
97.3304305284744
97.3289001798647
97.3667900641256
97.3984825091481
97.3924936580827
97.3560092609478
97.2989943377366
97.2861897947045
97.3118824928872
97.3336544477498
97.3460323018456
97.3500563265294
97.3677811132343
97.4403302661028
97.4353209623397
97.4169241641682
97.4453836426979
97.3899302774917
97.3491582292508
97.418678354419
97.4579189712655
97.4204502741709
97.3574060704172
97.373069768999
97.4110721553286
97.4133459247465
97.4302531332345
97.4425875371951
97.3961270598374
97.4198313050098
97.4899690715779
97.4900988874277
97.4972806619712
97.4363497241833
97.4163207312427
97.4926311081937
97.4985178632379
97.4744636872062
97.4317394245969
97.4115277391817
97.4505197420369
97.4555593595079
97.441775635095
97.4725820973121
97.499209319168
97.4716427249187
97.4501829000756
97.4433082900009
97.4559267479901
97.5033997738578
97.5332365023854
97.505382458816
97.4631581743927
97.4388212844301
97.396429768736
97.3819260591845
97.4466398761609
97.4678060396708
97.4189081854988
97.3877386769001
97.3852974315174
97.440737500764
97.4678111635979
97.3778787480626
97.2923999950184
97.2738157532066
97.2653654109453
97.2919979980514
97.3333386147024
97.3540325913626
97.336156415522
97.3425261183358
97.3626186357447
97.3468696655851
97.3350483905545
97.3564565123829
97.383010229235
97.3857397216053
97.3972821768997
97.3795549890138
97.3456431860288
97.2958450353031
97.2801817026905
97.3344273824468
97.4403661758553
97.4613372785429
97.3794227154557
97.3322889992562
97.3587091506135
97.3410455076478
97.2820223111557
97.2423157471683
97.2706227292386
97.3034587519405
97.2928912483153
97.3455241885259
97.3826384919556
97.4528275589852
97.5153061935025
97.4952453515873
97.4706841783966
97.4579927110706
97.5134373818662
97.5406332570989
97.5618374557914
97.5890842830096
97.5798342821393
97.6113727334472
97.6328872239021
97.60712510544
97.6500499630126
97.6932741142341
97.6620121256756
97.6272067810566
97.6348706792548
97.6605366112333
97.6489495088073
97.6224554511308
97.6431436551174
97.6862661415627
97.6720104748098
97.7069703216444
97.7397263270937
97.720831248544
97.7395304624525
97.7618148069918
97.7242013031259
97.7152702786424
97.711966117312
97.7080520294717
97.7309267431699
97.7592772842015
97.7517992834777
97.7507474007227
97.7979648053594
97.7738352512451
97.7509121994636
97.770869397894
97.8044535753094
97.7856464740178
97.7413287271673
97.7707843408506
97.7752301775675
97.7786275369996
97.8054814223069
97.8038703083675
97.7605226366615
97.7907391992297
97.8767876500121
97.8877911194187
97.8326920867673
97.8538920775878
97.9093163538009
97.9522321689455
97.9215480354921
97.8571363591263
97.8439296536178
97.8851597895376
97.9697834892805
97.9401384961493
97.8411273261197
97.8622156891282
97.9390517343155
98.012345540141
98.0542322685982
98.0660556280893
98.0773849021929
98.0595751929693
98.0207161897174
98.0279840201625
98.0440019295257
97.9951157722631
97.96557581752
97.9124276765627
97.9295138362984
98.0508523323721
98.1221752643817
98.0828020094517
98.0226363838409
98.0134561194858
98.0174678864002
98.0442551160148
98.0941493256428
98.1110733673613
98.115131201581
98.0947288877356
98.0212762076125
98.0330124108347
98.0488710120299
98.0472757192464
98.0837616578504
98.161101016453
98.1750489553051
98.1139847504796
98.0762531698461
98.0790950825359
98.1380420656247
98.1687710181515
98.0885833239337
98.12944901215
98.1743164247348
98.1035275435411
98.072175508737
98.2066268619559
98.28125665607
98.1802577243335
98.0925775380616
98.0596384019154
98.0593449273371
98.1162856387563
98.1380619443709
98.1437905296197
98.2097923600157
98.2405735792869
98.1966461687241
98.1184433258698
98.1597933768425
98.1743886117712
98.1320058286645
98.0721233818099
98.0433387570907
98.0888193842745
98.1160385148059
98.0909339133665
97.9903361588113
97.9563638333249
97.9930600679914
98.0316953334666
97.9756820164204
97.9689359941275
97.9929130384217
97.9451305939832
97.9187813695754
97.888102295762
97.881407236227
97.8755694451377
97.9319033680406
97.9891753250458
98.0259079593327
98.0425944558535
98.0172270426926
97.9842128199876
98.021851657824
98.0310658677006
97.902345786794
97.9160104249153
97.9565644564536
97.9187788009933
97.9169048830971
97.9489953599625
97.9323771497947
97.8897362465337
97.8747576161477
97.9315672896678
97.9413473066816
97.8477663006073
97.7631083611663
97.7254975051315
97.6871442234781
97.706763430569
97.6757916727314
97.6160625369038
97.6304379855982
97.6724437672467
97.6961822471768
97.7376438825656
97.6831627142806
97.5992409931787
97.4940801327493
97.3786925724943
97.3027168292925
97.1538119301606
96.948112314943
96.7679429628528
96.7572804845962
96.752831253902
96.8387985573819
97.0386965794929
97.1768147075557
97.2903514480861
97.4829929064223
97.6040198494534
97.6685190363805
97.7841113758197
97.9265329196349
97.9890683177086
97.9624998441424
97.9937880187827
98.0594397257056
97.9793264765867
97.903957238419
97.9567067454216
97.9933477941856
97.8874832586765
97.7707596759997
97.8652443758443
97.9608584075018
97.9565499330987
97.9460273841324
97.9802950142023
97.9818908978387
97.9596143597996
97.988362626164
98.1223547743759
98.1264801107581
98.0586960883832
98.0454925771525
98.0191878776768
98.0174351536053
98.0159065639571
97.9492675705054
97.9175476943539
97.9817793919069
98.0813244191945
98.067324883811
98.0607319628006
98.1131408918685
98.143204411748
98.1422616482474
98.0529925827939
98.0608686123837
98.0792801374743
98.0156606078267
98.0239599126599
98.0949166573594
98.1918097920158
98.2671056256595
98.2165805400485
98.1861346904964
98.2341769411089
98.1760487343387
98.1808290461178
98.1680263740676
98.1628451534492
98.2650221923169
98.3812302658276
98.4338570397693
98.4666683236111
98.4753773706519
98.44615841066
98.3902362397765
98.2785347461377
98.3163579218095
98.4112250384184
98.5534011937998
98.589838230632
98.6956336651424
98.7390968957165
98.6030952453801
98.5393320329925
98.7526228391268
98.8692214703676
98.7004845829999
98.491634910241
98.4553499216753
98.6233316118432
98.9105043886566
98.861290419105
98.7232477795867
98.8223611857269
99.0642812691274
99.2248551593898
99.0954319702544
98.9001454800084
99.0397338669902
99.1926451274275
99.0572151998474
98.7973957858055
98.9359795224739
99.1303146301566
98.9626774460805
99.0777960847315
99.3541021320977
99.4672021973345
99.2223456126387
99.0184490084241
99.4388540368449
99.6873009648625
99.3008404872816
98.9812845061169
98.9356055103979
99.2708674752725
99.8131876036816
99.902870536039
99.5069026157307
99.0360925288285
98.9660026913887
99.1306195052588
99.1143111981021
99.1822174509973
99.6632694642218
99.6830843237583
99.4261105793418
99.2943867814342
99.6076854318123
100.037645147536
100.128699967919
99.7942447589659
99.5544371760554
99.3031215706711
99.2749166945201
99.6326107950516
99.4957655228684
99.2236840206209
99.4228942968877
99.3208036025089
99.1660796462795
98.9659987282242
98.7751313289089
98.7173676993079
98.8403147946341
98.7265099015459
98.6315389562347
98.8163346294603
98.858872359959
98.6288172072999
98.5839626420088
98.7223887413873
98.5495513293747
98.4913590396293
98.6338348652221
98.685471621092
98.6537181564708
98.6764896248705
98.4288727939297
98.3095397200428
98.5131973978168
98.5855093801996
98.6031268897956
98.5572932775603
98.4827316359152
98.5330058713699
98.4996457950255
98.4932985864214
98.6260447499781
98.6869692152248
98.5679947923277
98.431205250436
98.4540587638154
98.4824055485656
98.4742534681183
98.6634857036744
98.6597757976113
98.5801351403796
98.5482074937065
98.6467589699892
98.7474821254409
98.6838977480005
98.6047264147416
98.7366896371184
98.7393252768534
98.480160160686
98.2977589883008
98.4691399003458
98.8297449529769
98.8419450502001
98.6275150291364
98.8543055440414
99.0667324238345
99.3009801874906
99.2794296375924
99.1938430226341
99.1662652419992
99.480047631509
99.7042736811999
99.4390338670656
99.0198298463122
99.0047286196279
99.1537311820317
99.1255983627008
99.1118855605635
99.3705301279692
99.5585837795307
99.7134205968284
99.554128024987
99.5883678573656
99.640570690465
99.237388401094
99.0182319871551
99.1345123457727
99.3732046092405
99.3121894175644
99.2325303663331
99.2625889037113
99.304621767971
99.3576693205151
99.3437699165725
99.1066735142362
98.8976637312074
98.9709271597729
98.8937253056118
98.9855551576759
99.0634092001679
99.224982709492
99.6579518910801
99.5789479081722
99.3495286040021
99.446774171289
99.2648042181122
99.1429122024448
99.2914316819557
99.0624524604389
99.0086154001243
99.2848741535877
99.2895616638047
98.8408091998102
98.8771037359914
99.008003315378
99.0383947099453
99.1033137238637
99.1299407187505
99.0782391380645
99.0073851787377
99.0409444606693
98.9954731410279
98.7870784994552
98.7720770274342
98.7616350902855
98.5969297502678
98.6636247696466
98.7529929087242
98.8329521989409
98.8403754995079
98.7886305278695
98.8797169000123
98.839989640445
98.7917946828967
98.9259541744727
98.7829168132988
98.5892132834207
98.6798871203195
98.7581852266674
98.7967124963681
98.7414529653471
98.6620948811573
98.6946003678351
98.6393110567272
98.5941449415782
98.6721722465353
98.7390476158733
98.7530963903783
98.6549575371686
98.6419785795384
98.7308946075012
98.728124239668
98.6849928890907
98.689235976683
98.7218433412128
98.6592381140684
98.6822593562784
98.7192339388831
98.6630949969431
98.568181457774
98.5449749502786
98.609532091525
98.6053707911943
98.5960116583686
98.5943912754979
98.6420664023252
98.6826139014842
98.6383777781446
98.5965633191823
98.5669025158178
98.6195584297713
98.6385393494456
98.6191640174461
98.6325004390184
98.716393736103
98.7088365974905
98.6557348760988
98.5943018045327
98.5260190176683
98.5411130439407
98.6260776516589
98.638675510378
98.6412516119775
98.6614560279848
98.7079919121898
98.683977116955
98.6284486550978
98.6344795899324
98.6252831014303
98.6467543030862
98.6831337956591
98.6635417380333
98.6586529384607
98.6354612881566
98.6334093033999
98.6479267827998
98.6446479673454
98.655286370027
98.6465631991977
98.6450708149483
98.6706517727294
98.6804054059658
98.6517317627656
98.6117335068169
98.6113373633803
98.6333639604643
98.6352979000352
98.5862175381244
98.5949859801553
98.5836618037657
98.5756344746491
98.6094490416999
98.6509553713109
98.6615564419596
98.6421450796676
98.6656158197045
98.625517057405
98.3813616139136
97.5453671277436
96.3532042414129
96.2798098379119
97.0418631383582
97.5913193088913
97.9713332856624
98.1439993108962
98.2280998287422
98.2870872940774
98.3462350058651
98.4019366178948
98.4199223137637
98.4682485147941
98.4732368010252
98.4497574864577
98.4940942140546
98.4587146653935
98.4079020029262
98.3638612086141
98.3760697858094
98.4038796978769
98.4108952304126
98.3818026436987
98.3873701576511
98.3735437523703
98.3576807208391
98.3704875276413
98.3418706395414
98.2912066572341
98.2573293061245
98.2382621865981
98.224815859044
98.2122552290145
98.2165315498681
98.1638837393429
98.1142362035501
98.0729872794105
98.0080778558586
97.9307540785574
97.8858544667465
97.8580518397494
97.7718398381443
97.7659786319442
97.6632116900221
97.6068808630725
97.5446511855482
97.4860830162228
97.4144703790001
97.3257238517834
97.2707572143289
97.2489886045977
97.2032756080041
97.1782670061381
97.1808697171678
97.1303647168981
97.0799491153943
97.0498635225796
97.0195661990954
97.0383149953762
97.019553313001
97.0149817841754
97.0101989117244
96.9140890747256
96.7467399389831
96.6968119537833
96.7645021945484
96.7183617905663
96.6481050425139
96.6159478336337
96.5909151153489
96.6781535651276
96.6802949299595
96.6685024669454
96.6259793567818
96.6352713169543
96.6565638477896
96.642783102648
96.652544687234
96.6494333086473
96.6275066064103
96.677167455376
96.7384813621672
96.7461985924632
96.7393074985557
96.7523971067673
96.7801044241789
96.805842398061
96.8594369462641
96.8848611915362
96.8904652008515
96.8996423024163
96.9325855706998
96.9637523547102
96.9789419814149
96.9933136694431
97.041900156901
97.0723972253121
97.093653176536
97.122275846811
97.1741572504091
97.2026799840775
97.1717065841359
97.185387945758
97.2438659814373
97.2094730594563
97.1841018802288
97.2848480224372
97.274682949167
97.2606107394479
97.3113094571485
97.3229596632267
97.3217149122649
97.3048824141577
97.2394111273936
97.2541233688814
97.2322474977146
97.2840237196625
97.3006890541804
97.2646233201856
97.262787538347
97.2838665084089
97.241117667997
97.2509156902276
97.2200764594638
97.1203011124666
97.1234850643407
97.1353510345747
97.1052195969161
97.0188663040827
97.0198928330845
96.9685633812634
96.9074359248898
96.8810509789444
96.833598975858
96.8020994177518
96.7639378883319
96.6832200734403
96.5787132167265
96.5358945232046
96.5208425521108
96.4609127534133
96.3748670637156
96.2872238879996
96.2232220855096
96.2027304127848
96.2058353461636
96.154780638177
96.0471891265293
95.9966160099648
95.9894864185147
95.992107188301
95.9500624572422
95.8761187190099
95.8249156866649
95.7483050508836
95.6719635378888
95.5790699260451
95.4934398934995
95.4884961257161
95.4424094231556
95.3668624401894
95.2747563251816
95.2448338845369
95.1629940058991
95.0647704603074
94.9425506869665
94.841521556945
94.52320434369
94.0426256783131
93.4329624263049
92.7178576139629
91.9692886237951
91.3232116056877
90.7456078859959
90.2376174760706
89.765207398823
89.2770712464295
88.5523685544224
87.6143478847164
87.1352004426865
87.3741246875814
87.5119634352031
87.1088505379956
86.4853180084956
85.7827643735981
85.0161335710226
84.2323597195076
83.4165658051394
82.5579164187316
81.7126243984096
80.9096622346404
80.1627609639553
79.4121549606497
78.6780854946196
77.9505295087408
77.2214628836207
76.5082267956463
75.8495339941814
75.1673880670678
74.567509130878
73.8079735554307
73.0114078455767
72.2744802609612
71.6726571507761
70.9617645274929
70.2443175982903
69.6421524689143
69.1209193428208
68.6248687352923
68.2589623158684
68.2248320977604
68.2246741774821
68.2267434643612
68.4313790708274
68.5918239707615
68.7158690047427
69.1346988431829
69.5951712504064
69.8245426110174
70.0407357848916
70.3114768694642
70.6301308792677
70.9133904518555
71.2490392001358
71.5813291844163
71.8926363526894
72.2036720152376
72.4645368262465
72.8130728103681
73.3290219617916
73.7205390451649
73.9794007239403
74.2303443770897
74.5766543687779
74.9142068164378
75.2445066617288
75.5656692538124
75.9322464621157
76.24352942768
76.592409113676
76.9868928257586
77.328649103563
77.6362673206683
77.9691175054247
78.2768807700788
78.6072698738648
78.9290076746851
79.2544768776552
79.5599179071074
79.8630780948395
80.1600421706748
80.4501441460771
80.7360798965674
81.0208085272712
81.2950370013389
81.5678382759293
81.8566164346105
82.1599542202359
82.4095144481705
82.6620589532512
82.9089014249877
83.1627563101805
83.3978103058297
83.6202634711758
83.8351200960217
84.0628636473358
84.256039310101
84.4512849599528
84.6569491921748
84.8732096661998
85.0643477029096
85.2394117576578
85.4337023855879
85.6220703451942
85.7723684843546
85.9170762175179
86.0819102842826
86.2581860215248
86.3966231808154
86.5404696556471
86.698462454239
86.8550319451261
86.99535845162
87.1282972331361
87.273214549445
87.3967112101132
87.4913042776396
87.6022539346038
87.7274184470305
87.8125598951675
87.8762335786527
87.9532931753778
87.9910013821022
87.9908383869266
87.9652786882134
87.9055308277259
87.7652576383297
87.5683563367472
87.3385146457751
87.0693486349089
86.7510565092083
86.3701730518368
85.9555227385235
85.552944456467
85.1624361587199
84.8498413452854
84.6162446084196
84.4590386894527
84.4116037907386
84.4692326165394
84.6239518432563
84.8421402610463
85.0560542682512
85.1869377921358
85.2361182161857
85.234910552969
85.1655087257582
85.0450499116441
84.8666178500124
84.6182211864582
84.3341339013536
84.0206330992138
83.6744555461061
83.3254407998075
82.9526038079009
82.6230224576643
82.3231120111236
82.0094472894006
81.7018899844149
81.3873001909863
81.0414492089346
80.7051174361837
80.3460350605139
79.9589657609565
79.5587770068149
79.2117266969058
78.9388078297188
78.804312772233
78.834166839072
79.0086292588796
79.1880635095828
79.2087691718983
79.0018619744417
78.710761869436
78.5160626631915
78.5368751056437
78.7428504569296
79.0158976857222
79.266469861868
79.4788657076574
79.6277842040438
79.7269234774224
79.7760996064072
79.8104640006494
79.8017717314497
79.7529869120136
79.6892867435676
79.6670362891538
79.6679693148904
79.7155042952961
79.817078060696
80.0318178128322
80.3327450728424
80.696616056867
81.100629071005
81.513006810261
81.9713416378544
82.4584740255877
82.935638678652
83.4488970662719
83.9668081446257
84.4827707821063
84.9727864400449
85.4336486272486
85.9140986643766
86.3272095041124
86.6762007231614
87.0502803419715
87.3913522359082
87.6897711425233
87.9640075490826
88.262034781212
88.5293210303355
88.6584909905208
88.771543702528
89.0533260759885
89.3622346564794
89.6149597075409
89.8133179105049
89.9823834718598
90.1286434383259
90.3156155679758
90.5005857614525
90.6457784347622
90.7748840357952
90.9207795671576
91.0519257123363
91.1722836074643
91.2944878192756
91.4063005314469
91.4876494911594
91.5803145587627
91.6698852808116
91.7411490756881
91.7976049743553
91.8614674232428
91.9404101310025
91.9928608146109
92.0021250532679
91.9982527160212
91.9603058147622
91.8191755751372
91.5863536666915
91.6153852860215
91.9391539970381
92.2159054245072
92.3561363542769
92.4469100756436
92.521694070531
92.5690537511556
92.567799883403
92.5832140172445
92.6946720336401
92.8279568614294
92.9234653653332
93.0110132913038
93.0721178034062
93.1263882394505
93.1797431098938
93.2403789706797
93.3299086205065
93.395389331965
93.4292042138855
93.4774502924319
93.5365365624768
93.5714903345654
93.5691848672323
93.5874361189494
93.6272050441702
93.6536160210336
93.6821502985861
93.7001068256749
93.7435054727726
93.8009848688971
93.8534175538448
93.8810994889601
93.872597104901
93.8740569047138
93.8977229288102
93.9348762365986
93.9807309470253
94.0277978346746
94.023412417303
94.043891589985
94.0931423828044
94.1149450053703
94.1345975728505
94.1567673497048
94.1817306010008
94.1587028786111
94.1402993471076
94.1797749653688
94.2224666548702
94.2422382186436
94.2334675731791
94.2566628172903
94.3167787208856
94.3530340189852
94.3295947199449
94.310187798225
94.3033365565095
94.2903003169949
94.2968054410607
94.3507839085202
94.3548319554105
94.2874649196056
94.238607872719
94.2128891171428
94.1308139533635
94.0805425750755
94.0573944741302
94.0054065060876
93.9458171781846
93.8898137943334
93.8272115512066
93.7990345143383
93.7832069040034
93.7656664845988
93.7837257558876
93.8312468005195
93.8674329811758
93.8933313909613
93.9128542362764
93.9651989763927
93.978705164958
93.9815100647137
93.9276562820958
93.8771112284171
93.868521860034
93.7958531220594
93.5687394918642
93.0805787915181
91.5450009816993
87.3032404503187
80.8145284261088
77.7639527476103
81.2503983223821
86.4890922147981
89.7333474209291
91.3296659860944
92.093719194141
92.3897064256419
92.4429474950967
92.6466738973211
92.8903983939316
92.9980862327635
93.081548829199
93.1553213091778
93.1782771103545
93.1405524840556
93.1191575368632
93.1065654686627
93.0513859028707
93.0290050230429
93.0390471329444
92.9936498299893
92.9153324777893
92.8895473621044
92.8724039045553
92.7995688959893
92.7293749677262
92.6594292728728
92.5678934332607
92.4985896532113
92.4186389970351
92.2987438798626
92.1754680429723
92.0563455416496
91.9036746785744
91.7710173458988
91.6537958723577
91.558013598284
91.4703110095456
91.4292802242965
91.4422038234972
91.4789225352094
91.476594836886
91.4483397307444
91.4726434118156
91.5372662172763
91.6464349298482
91.6690087564183
91.6306819650385
91.7274214450937
91.8035156990537
91.8533879825551
91.8747972392206
91.8862040809203
91.9079266350031
91.9671467527774
91.9906002121973
91.9791986955561
91.9234666787361
91.8184228986687
91.8691058863387
91.9914945231028
91.9964386554143
91.9858816244632
91.9582578275556
91.9041893221672
91.8974587910321
91.9738328841647
91.992376087444
92.0019917303213
92.0547324395828
92.012220960537
91.9412907634043
91.9696098762172
92.0233872696525
92.0591625106535
92.0400807788743
92.0625045693352
92.0475884684025
92.095510886246
92.1366264073859
92.1161509946242
92.0552190761805
91.990414798747
91.8311245624665
91.7730990168342
91.5444924505982
91.0303226614261
90.1829626091381
88.9616988034575
87.8586946254514
87.6858850415731
88.4557233503975
89.3552656108738
89.8810544771148
