1798
3999.43349933624
650.420452594757
1
128
4
96.4558881818332
96.5298931248333
96.4939675852187
96.4814899210001
96.4748655146541
96.4850713221875
96.5502701902974
96.566852255713
96.5554412878109
96.5103605763054
96.4341885044174
96.3988809140961
96.3789739982297
96.420282545891
96.4378510748125
96.4279380053138
96.4539950254024
96.5703842976068
96.5657895396093
96.4430070513104
96.3529958502209
96.4098159002749
96.481020506823
96.4943972344506
96.4273259586543
96.368973802265
96.434704549556
96.4602292656272
96.571304211832
96.6179767614663
96.4895285161417
96.4061328397752
96.3978352339997
96.4438723224957
96.4290263236931
96.4477310225655
96.4890003359544
96.6220473188621
96.6804314578014
96.5691033094294
96.4863977495473
96.4389907510822
96.4246318986481
96.4495849164609
96.556511559839
96.5321299545249
96.3957510145052
96.3819763259066
96.3395504286284
96.2710943766264
96.2592508941182
96.3081346004286
96.4357989156061
96.5577319401734
96.5113576072722
96.4855715065491
96.4664284194269
96.3883837199504
96.3890680570635
96.4046794249881
96.4515122222708
96.4527837409271
96.4234560174267
96.4514541364553
96.4787559865444
96.4671441634356
96.5685001801852
96.6243512360786
96.5190697345774
96.505560149051
96.4300328576243
96.3345997998932
96.4873472118791
96.6069488887422
96.4395223730504
96.3815732941604
96.391404409528
96.3758540289778
96.6210463232314
96.7811515321035
96.7815645345998
96.7809849748839
96.637121029846
96.5297284227098
96.393345748302
96.2832375401126
96.2675545993305
96.3876489319191
96.523073248061
96.6671605631307
96.7334191486721
96.588679632583
96.4684166445175
96.4568301157792
96.3694097202308
96.454540491544
96.5260686842261
96.46433048451
96.524496271684
96.500169107728
96.4466869296093
96.5118878574709
96.458727039443
96.4920935839761
96.5022563445987
96.4252471642163
96.5894979076411
96.6363716472496
96.5482575353865
96.6917199800496
96.69812287364
96.5346138914771
96.5018085069256
96.5939280634847
96.5471222959729
96.457420264877
96.4643474998156
96.5214045141797
96.6266930395933
96.695836205689
96.6130571010897
96.5000746981756
96.4818982162694
96.446326214132
96.5177290412289
96.5994368972412
96.4891677786117
96.418408770602
96.4481674041479
96.4903987038047
96.459707759299
96.3348736839727
96.2557572470751
96.4726255088488
96.7066002604853
96.7173624479952
96.586320738673
96.4989422937612
96.5881663991517
96.5467149145016
96.4090027080436
96.4164528545943
96.4288690415311
96.5794444371409
96.6107557276504
96.5364834154048
96.5791944583336
96.6337802314507
96.6501640578571
96.6375527542998
96.5579001028315
96.6035598033113
96.6230401610991
96.489660046382
96.4083341359065
96.3707858647591
96.4263993486363
96.6146444468573
96.7187530548621
96.6349728010236
96.5843920701049
96.5991469639871
96.6007475282339
96.6008506169612
96.6237815915682
96.6505328436376
96.5218773245286
96.5187239833874
96.5800084723245
96.5705774022221
96.4539904360127
96.4302826400003
96.3564935844019
96.3568449542979
96.521356598201
96.5215525831966
96.691073076401
96.8045938103653
96.6291437169777
96.6119609857532
96.5720300452402
96.4748544185897
96.3958280749393
96.3704111370404
96.3830549737614
96.2216090554194
96.111076974427
96.3787088315704
96.6044738945098
96.5162696030186
96.4097524457116
96.3741755664203
96.3454568765448
96.3350885376904
96.3208629039504
96.2982962475344
96.2222573731441
96.1182101784286
96.0964064232508
96.2530326209209
96.2362610185471
96.2011906763106
96.1260065966185
96.0240660704985
95.9772018504397
95.8434395505618
95.816247752564
95.922800318442
95.8603713640839
95.8938893789649
96.0075799055443
95.9082111404145
95.8164222585573
95.8474052681797
95.7412044149056
95.6398914990136
95.6075564263805
95.679385896684
95.7558244323374
95.6165686779806
95.4619157741864
95.5823858280338
95.493021462088
95.3234500473837
95.4471527053572
95.5218612904467
95.3245196887027
95.1988811159958
95.1738892951277
95.2427525077731
95.1609297910245
95.0989084149477
95.1751177292881
95.1806848434618
95.1855397840591
95.2223592440227
95.281777432354
95.218645631951
95.0319760501347
95.0371921740161
94.9791438965628
94.9261397943868
94.9802855747532
94.953705606341
94.846033701536
94.8641453080084
94.8508345787365
94.7346373439519
94.7564224524208
94.8134898269836
94.7164606682314
94.615303954025
94.6376882585314
94.5723146286788
94.4366329881396
94.5234623599988
94.4885439635325
94.4426334838333
94.5528600803315
94.5732262738432
94.5056959903461
94.4469507670936
94.4706954151676
94.5754717086636
94.4646244392965
94.232833079714
94.201397148038
94.2637469562428
94.1907144942424
94.1868715482217
94.2020216757523
94.2300999790942
94.2532241589497
94.1665024299084
94.085869338563
94.1292411178483
94.1247999621637
94.0784727025577
94.0676464210447
94.0584065228926
93.8782400326363
93.810282973042
93.8754865763762
93.8831719008626
93.8229940980733
93.7765905815437
93.781956765612
93.7548810535326
93.7614953510289
93.8168872489397
93.7251556313725
93.5806262234868
93.5459140280813
93.6097284580069
93.6211388114902
93.5830629814602
93.4580960298735
93.2907957139049
93.2708815651772
93.4806343410326
93.6670679128942
93.5921263047146
93.42721903366
93.331154076063
93.2249968772768
93.1282837727107
93.056629618837
93.1551737237304
93.1662263238391
93.0968448817533
93.0633563061977
93.1476128535553
93.2052799031534
93.0265582999806
92.8798175922903
92.9538851410289
92.9595061896153
92.8641541870776
92.845049868712
92.8786483734258
92.8548922343946
92.7512230533628
92.6485407979683
92.6515846457159
92.6814674362445
92.638138764394
92.6331004238758
92.6580760925569
92.6185335158543
92.5659051469487
92.4738533783275
92.3785372099012
92.3821121639334
92.5387727118261
92.5343947820161
92.3994891848708
92.4276897592914
92.4002566467655
92.311957460556
92.3301012811758
92.3637739113797
92.3973006557456
92.3428869284186
92.2507703906217
92.2577583131681
92.2983208018579
92.2484465575519
92.1561862249918
92.077978740912
92.1471923093505
92.1862129445611
92.1224386305237
92.1580516894939
92.21437515934
92.138660828417
92.0089309718587
92.0349358296214
92.1295771791876
92.0104986936643
91.927079046567
91.9637712869729
91.9816526213207
92.0393525429452
92.0716018810928
91.9672562670735
91.9634312019183
91.9914698964962
91.8447810860536
91.7598686886863
91.8871912915376
91.9771961888476
92.0046163798283
92.0540633538738
92.0474734501702
91.9964115004307
91.987768702381
91.9902663653405
92.0061552650671
92.0375865288559
92.1060392996039
92.0738615874057
91.9582394951483
91.9838076775778
92.1001216467404
92.1712852647554
92.2162192934452
92.2669830271768
92.3654171165164
92.3721237496635
92.2981826304684
92.2565856579367
92.3085254164499
92.3598154505313
92.3616911837527
92.3966555989775
92.459768473356
92.4626416679965
92.5003676787007
92.524178422568
92.5132691825172
92.5117482568688
92.5146005909198
92.583568271135
92.7045287783011
92.7197492827838
92.738269365562
92.7106190114123
92.7336023836942
92.812616663465
92.8664676644762
92.8148242476202
92.8076687083526
92.8284594064322
92.8279049368783
92.8878589814546
92.9583672614371
92.9866820656397
92.9474318015828
92.9183532476597
92.9608453170814
93.0661197211988
93.1462347366937
93.1678609892907
93.1394421843692
93.1296724318975
93.2258333256959
93.2096160404183
93.2685365963151
93.4066914221905
93.4257632345641
93.4436656149243
93.4992928337571
93.5173442134419
93.5033836168812
93.4600129757488
93.4880675603229
93.4907908673577
93.5338668077167
93.6467623416074
93.7102638247693
93.7165196455238
93.7650424643569
93.7163567648076
93.6785277122271
93.7092302465071
93.8398769221617
93.9162306061663
93.9289758689703
93.9146814595584
93.9489193532252
93.9149024648958
93.9010201978551
93.9612700392236
94.0343066469917
94.0183555940053
94.0221391441106
94.1009948818499
94.1650952518536
94.1193650461081
94.1566660785038
94.1989872383774
94.204735959001
94.1974906540279
94.2402625584115
94.3102967330371
94.3857239159561
94.3593932241562
94.329472761635
94.3704659674126
94.4002146495235
94.3733012889063
94.3849583144106
94.4180387601
94.467102123478
94.4996362726655
94.4533674333223
94.4508116939312
94.5500298106709
94.511118663985
94.4907802705584
94.6356209716973
94.7079586891071
94.647291870233
94.6085380524242
94.6712319561462
94.7551688946761
94.806081861988
94.7690599374555
94.7560502977121
94.8080100186424
94.8261186201605
94.8344843087887
94.8824015607706
94.9230441502812
94.9143956619935
94.8501972924116
94.8804637785506
94.9462753410722
94.9249128373972
95.0018860069755
95.0311708673936
94.975446775598
94.9712218143483
95.0582930186427
95.1036234585232
95.1109642506043
95.0928842480343
95.037523272225
95.0642040790282
95.1414154919061
95.1642891038751
95.1966562082673
95.1618531327402
95.1843882925806
95.2089872755084
95.2205989656028
95.2814577613903
95.3094476805602
95.2980460854663
95.2952408560117
95.3465743893508
95.3287462216377
95.2994162047923
95.3384461833084
95.3609855756042
95.334273947466
95.3821013624942
95.4936501034201
95.4945064980972
95.4978102112419
95.5222441994782
95.4724315835419
95.4390641040865
95.4618292280731
95.4758934452735
95.4801736572043
95.5372096508865
95.550132197429
95.504353761196
95.4808912013359
95.4946983600142
95.5719343965676
95.654226356682
95.6037796488714
95.5043793858193
95.5077602144303
95.5795165706722
95.6207643683825
95.6224199007324
95.6527168711829
95.6544515410707
95.6316302477042
95.6399102133575
95.6285311295522
95.5991579801675
95.6661472865808
95.6602497294565
95.6548467628209
95.6557892508956
95.6236633721843
95.6399183438976
95.6635685597841
95.646228429761
95.6618364053013
95.6990750631843
95.7210865728166
95.7459814667417
95.7132892278249
95.6865613260981
95.7839581130151
95.8124736006221
95.7721896904925
95.7770733460585
95.7503303516706
95.7342602297833
95.7697646785691
95.8289825820562
95.8957202037733
95.8757331074068
95.8889971734888
95.8959311983923
95.9331048666769
96.0040023269796
96.04333694275
95.994024525393
96.040553607358
96.0487409989083
95.9591395633342
96.011438375854
96.0736212472068
96.0565474354376
96.0498871490294
96.034490596271
96.045614464903
96.0400417094473
95.9574883019948
95.9288060798607
96.0057515532737
96.0325596117862
96.0049132645666
96.0288812220391
96.0387203035325
96.0034191164513
96.0742140069374
96.1869197232457
96.1806785552042
96.1582496734346
96.1684380920389
96.133740149092
96.0982687541696
96.1058063927441
96.138250476152
96.1681407583889
96.1742268936826
96.1398563799027
96.1237086955708
96.1140879602207
96.1824400517851
96.2465952568662
96.2369861048871
96.2126888581385
96.1826069794606
96.1954108421182
96.2605763314934
96.3026895373963
96.3047054314982
96.3050714868307
96.318916380931
96.2854212154036
96.2849142036887
96.2740172215457
96.2792460943045
96.2937137572751
96.2433992478017
96.1852583465145
96.2185052127565
96.2395167231585
96.2296784934932
96.2879199407709
96.306382701455
96.2078446505478
96.1726251505914
96.1935893842054
96.1495841191871
96.1476978456882
96.22862322995
96.227693948231
96.1531682831661
96.1095133903596
96.1581948835954
96.1506829672483
96.0091913284821
95.9212302490246
95.9133675569486
95.9064111567556
95.8624012221124
95.8679258858712
95.9354056962057
95.9864902421228
96.0210577635759
96.0007043586438
95.9782821171885
95.9731550529617
95.9874867986315
95.981885086889
95.9874170113987
96.0319236818698
96.0564902285123
96.0267575127587
95.9858006046617
95.9836271454386
96.074258542735
96.0950596376873
96.0352378623096
96.0282781508094
95.9867426850257
95.8622211044737
95.8109916025035
95.7771699799115
95.7217742304251
95.7121519262239
95.7087886383671
95.7390046790452
95.866675045277
96.0289095568
96.1094867261277
96.1237180111121
96.126272210165
96.208411215193
96.2829314006783
96.2776273287913
96.3048902928023
96.345253839895
96.3604400805102
96.3861533395792
96.4034427634638
96.4285890862849
96.4980314179298
96.5229688782187
96.5008972876162
96.5044853961198
96.53586059214
96.540073696687
96.5281832679456
96.5514883434751
96.5623369332175
96.5715810246316
96.6356833461384
96.6860331630551
96.6944451852701
96.6832853534829
96.6663638234558
96.6728172156328
96.6794727165356
96.6488103366268
96.6581061116339
96.6893305217388
96.6713181916533
96.6523080881239
96.6389883815857
96.616423890561
96.653054562649
96.6602155209231
96.6425292460658
96.6619208002932
96.6467684573083
96.6386266511902
96.7088174253107
96.765935161887
96.7724891279604
96.7402142560275
96.7447210094752
96.7780119273255
96.7430156675468
96.6689321887239
96.7296544197348
96.855351985853
96.8876640872934
96.9569269967388
96.9694956330182
96.9451350170173
96.9109125228397
96.9064714928998
96.9461274103216
96.9917570479865
97.027680348888
97.0158843749226
96.9794067441052
97.0014703128165
97.0506162749049
97.1179067193087
97.158399647849
97.1499314870113
97.103304631269
97.0912477129653
97.1796784149208
97.2372920005189
97.2571392675885
97.1749504555019
97.0735073949897
97.140904565265
97.2009299258734
97.211795839701
97.179551295061
97.2244467897312
97.2987137809182
97.2947723510093
97.2537104846625
97.2068573582439
97.2081776284215
97.2636578677098
97.2968883584155
97.3732891206328
97.3893708348273
97.2366602042815
97.3050491758506
97.4458420556085
97.3789022926431
97.3480326066417
97.3344447846283
97.2926767754457
97.3115831225949
97.3318407875875
97.4167737635905
97.458837323914
97.3928931435271
97.3473846040835
97.4081549911743
97.4251645638425
97.4012178711717
97.4685494510394
97.5086641201624
97.4238850463656
97.386682520781
97.3864622875361
97.402849520986
97.4809307289699
97.5197000549751
97.4892405117547
97.4108992387013
97.3922332972022
97.3631037701043
97.3756040315975
97.3990312018955
97.3646217748827
97.3323907263458
97.2517012262315
97.2107204389411
97.2373607647642
97.1393120264969
97.1115708877908
97.1484636497049
97.1022231609689
97.0634668782576
97.0612177418794
97.1043512072066
97.0435792821469
96.9680954668809
96.9859625790875
97.0738506745749
97.1127925919661
97.0450074575397
97.0500967041745
97.1760319031839
97.1832380839836
97.1167454603886
97.0452153723349
97.1383108201768
97.209163486463
97.1274476798044
97.1411081458022
97.1055909960079
97.0569262323889
97.0946055354454
97.0243752211585
96.9243613284686
96.9637127324896
97.0443449241297
97.0355799205491
96.937242406028
96.8102870586408
96.7506017844554
96.6815659522439
96.6086599695981
96.5924349512931
96.605054727421
96.5080521961766
96.4106472185043
96.4355763121434
96.4728232521044
96.5050238095806
96.536448859659
96.5406455566248
96.4650083089857
96.3448794754239
96.2199494499735
96.07758185648
95.905941148782
95.5607389936724
95.0728882089678
94.5920240424229
94.3264182110753
94.3450635757837
94.5412538802122
94.7969478386296
95.018637168665
95.2955787989249
95.6198091329491
95.9493531168013
96.2302725465416
96.4295091798025
96.6057215917574
96.6848802131487
96.850736924291
97.0203299834013
97.0448736681688
97.0878403307611
97.1887529598626
97.2963743460413
97.2668112059969
97.3252086661176
97.3714767545733
97.3658440552258
97.3446763190287
97.2745071339526
97.1821112175969
97.1900065530716
97.2648668813407
97.2954693930929
97.2570303674718
97.3219882019479
97.3933374430327
97.3604048847005
97.300117089091
97.2637578894444
97.2687257767381
97.3037392342599
97.3078567102357
97.2146949560711
97.1724080167026
97.1631758137649
97.1415444243894
97.2302028401627
97.3385735110302
97.4362250544904
97.4439999446124
97.368603491143
97.3812182390871
97.3983144349413
97.434963082155
97.4804050937674
97.4196685319195
97.3546969168298
97.4365424663874
97.5138025156976
97.4718144546356
97.4415498272678
97.4778604022275
97.6395738076218
97.6751919160609
97.5324895747224
97.6183228077205
97.6668329198811
97.5815459011765
97.6854355980743
97.8051905843209
97.7949929414585
97.9741153311971
98.1123981369226
97.979858126371
98.086465556098
98.2881218015436
98.2302726526881
98.2586131280999
98.3435197906138
98.3261811774591
98.1502963178519
98.15749723356
98.306198681952
98.5394030692362
98.642993544798
98.6944809566859
98.6537233013717
98.4594880745887
98.3910835308941
98.442180632005
98.465311590429
98.6384139026673
98.8303207457091
98.9253356975338
98.9046292895247
98.8136947426398
98.9064057248024
98.8548187423376
98.9055516826544
99.0576163372044
99.0036576160784
98.9271810448928
98.9054329676858
99.1123083710873
99.3082725187403
99.1740360608596
99.1063459960342
99.2631139554673
99.4059024277528
99.5708382300411
99.4605474084475
99.282579404563
99.3513286298332
99.5300360264164
99.8567660381691
99.7628782891053
99.7843536662463
99.8516283007652
99.807925790184
99.8526137745907
99.7588891156821
99.5254061104675
99.781803574536
100.07116587732
99.9018530860791
99.8829688613218
99.9211461094323
99.864483767656
100.012015797262
100.323573607817
100.155418544832
100.149867132742
100.217060243762
100.276474946889
100.349155585051
100.211033572816
99.701532938125
99.2749305074438
99.2520105444413
99.3489778704419
99.3120669360199
99.2427014262627
99.1514272067158
99.1905891868845
99.1323600473592
98.8483253644806
98.7718036818092
98.7253847908737
98.6545265731433
98.6724044271664
98.5395110000024
98.3155674758729
98.2398677677568
98.1136358665464
98.2510261480055
98.3305890884945
98.1074675001558
98.0172161905293
98.1755912621582
98.3500858982099
98.3654237719225
98.2435324398953
98.2455761334882
98.2978410176974
98.3267626781408
98.2975114220548
98.2819182244669
98.2185621169579
98.2083160729867
98.1244599493986
98.1691141943578
98.22624518728
98.1219101126789
98.085069431449
98.2020870378831
98.2792635556933
98.2466743918969
98.16353317436
98.2154843406233
98.3211328130326
98.3969771230865
98.3441309185673
98.3717897687139
98.4896115674502
98.4309465990926
98.3451228865862
98.3316322024655
98.3999242929102
98.5089628446999
98.5194406811424
98.6463418938601
98.7847103449878
98.9972450811931
99.1560677197746
99.0234822821627
99.4034053719008
99.6849725969667
99.2416975588516
99.3064612933508
99.8413457305552
99.8951684783002
99.7221677103422
100.067256483119
100.097408555296
99.6791352658104
99.5268019077035
99.841400048966
100.10253920352
99.951946086133
99.799920302085
100.075263834113
100.03431508036
99.8929864887197
99.6958114722391
99.5361507005481
99.6423809352971
99.5952766552799
99.5761747791227
99.6220788908741
99.6560958717261
99.5098775921598
99.5320746015973
99.4178308242631
99.0964991795441
99.1281944464324
99.6691784241136
99.808925274949
99.5347427516172
99.6988737668903
99.9083949888263
99.9043813567781
99.3261437668406
99.1172933963451
99.408653897138
99.4680055277205
99.7920571181553
99.9841507439063
99.5855279909455
99.4151057853204
99.3534243125807
99.3056124873609
99.290028270625
99.2349160279562
98.9901434312753
98.8009699470236
98.8164476934982
99.0245378864649
99.1137841148964
98.948303018098
98.8013511077735
98.8388454037662
98.9854816846485
98.9482203671722
98.7356065253182
98.7086361688981
98.7406131112109
98.7349551162629
98.7074927825881
98.6068400896352
98.451585062891
98.5204965862801
98.6203309109339
98.6208415345908
98.6142051476651
98.477747982977
98.4653093712169
98.5237787690665
98.5654017908306
98.6353955126341
98.6405636754009
98.5223193673262
98.4574729513643
98.5020344732903
98.430697108021
98.4206202437606
98.5405753003398
98.539738028059
98.4422967107515
98.405296112879
98.3491650912034
98.3486013538769
98.39176887448
98.3964035617387
98.432996623119
98.4735476975511
98.4255414375451
98.4142450835579
98.4925461771054
98.5024700295901
98.3764123270166
98.2948370982257
98.3677470936371
98.429182703187
98.3764417215141
98.3345646964735
98.3441807349094
98.3528541823636
98.3256086389232
98.3494814302238
98.4275019971027
98.4665907640416
98.4870166864007
98.4093775907249
98.3467976030137
98.3395722679618
98.3620915523057
98.3579705106762
98.3582279467095
98.3870040045724
98.4032968870373
98.4036030329029
98.3972467848148
98.4071884232328
98.3950439376167
98.429411502371
98.4069998687813
98.38535409037
98.3652766545202
98.3157490251576
98.3507806994597
98.3462298883311
98.3237848614293
98.3056289691823
98.2762214104982
98.2332639504118
98.2460415529227
98.3261626325815
98.3483514828462
98.3319361383584
98.318852944985
98.2663769504987
98.2528662201193
98.22626093697
98.2032771292548
98.2197976350291
98.2312949370102
98.2353419593433
98.2628208241497
98.2574345780223
98.3167427902491
98.3189501105123
98.2273067959648
97.6540531946977
95.653039755978
93.2093735355323
93.4168547359718
95.028328462642
96.1379325412777
96.9764525034758
97.3719505604199
97.6178634536352
97.7885716159352
97.8308611610253
97.8663566790168
97.932372649279
97.9504316399509
97.9301133457392
97.9931047375053
97.9611066703764
97.9310193872701
97.9819268114913
97.8594676072358
97.8621792573055
97.8888972775758
97.8222803059208
97.7842142004084
97.7734084484821
97.6993720816881
97.7230768280117
97.7628553774369
97.711781116448
97.6410588064097
97.5932460650288
97.5480520680834
97.4516431130469
97.407763405316
97.3318930584812
97.2489945224893
97.3599814750908
97.2193237171608
97.114918277261
97.0296306353406
96.8095528640009
96.7485988030396
96.7154744152863
96.5763028888201
96.5175052682774
96.4494095100281
96.2726196073213
96.211391640482
96.0774703457237
95.9935358859433
95.9595039373514
95.7702248626868
95.7181112411594
95.7437184012435
95.600402832378
95.4877695229579
95.43802994322
95.3307563524952
95.2723314124206
95.2052285848088
95.0685025165327
95.2648149152398
95.3343013319398
95.1364270657645
95.1099871054307
95.0975893193168
94.9120903181376
94.7617167846206
94.6903833255299
94.5941542173633
94.5848413922811
94.7489645981707
94.7394941085332
94.6946538328832
94.6865965281595
94.6862251612551
94.6014933292521
94.6360101323649
94.7410779099619
94.6761819397121
94.6482531935459
94.7969394983182
94.7954089429854
94.7492928834715
94.778844027598
94.831296470343
94.8948695236722
94.9561428275649
95.0133277857462
95.0189331989696
95.0151014468413
95.0413489419912
95.0833493803562
95.1235290939927
95.1881478848996
95.2307180374238
95.242377201532
95.2773036971542
95.2892423272325
95.3238286552605
95.390060223147
95.314809880225
95.296547579626
95.5005933259957
95.5258715773242
95.469249580472
95.5167549832412
95.4737155650991
95.4664621135384
95.5794829874565
95.5079567648452
95.4047580274167
95.6433270673472
95.6103126669652
95.5816547068866
95.5882160365202
95.526035953004
95.5231219644577
95.4641130816535
95.4653146601948
95.4595413688099
95.3418888565282
95.4534748605506
95.5220922730807
95.341295043486
95.2468764827197
95.2569257401512
95.146946482908
95.0521780961894
95.0366173392737
94.9419142572373
94.7637407557159
94.7376696253696
94.613373795049
94.5102904927086
94.4796561092475
94.332167952631
94.2115044818612
94.0831082823758
93.905227058653
93.9358224357249
93.8375610692112
93.6873263362172
93.5876243990584
93.4583825857894
93.3629746026868
93.325273593359
93.2016989392514
93.0806276580413
93.0285036677261
92.9817690089519
92.9208251847232
92.7874734061551
92.6746084509289
92.5794703637719
92.4351466497517
92.3278903138724
92.1967233739267
92.1204636525286
92.084517687289
91.9156537011115
91.7537927580232
91.6766724542734
91.6458943159253
91.5085568620377
91.3326281914885
91.2220635048363
91.0406204475351
90.5266918460923
89.7856823771467
88.7714577327078
87.5634311478327
86.2808479331577
85.1628280850109
84.2309155379116
83.3906961115686
82.552652495508
81.7175357988576
80.5313661288547
79.0399012720556
78.295820483769
78.7460183984934
78.9647529521473
78.4181120531218
77.6112918372458
76.6558739188675
75.6541546251004
74.6826386224334
73.6325393190299
72.5326452367134
71.4542994495753
70.3852813908936
69.3345728873735
68.240484539529
67.2152069257431
66.1750608249651
65.0882647763871
64.0836294527415
63.1156736038629
62.0802575691998
61.016829412491
59.7747478040255
58.5081207523217
57.2613403324594
55.9516016107253
54.4619779264782
52.9891283716893
51.5741323310173
50.2345846516966
48.8921753307406
47.7551490832809
47.1309508276865
46.6976508007429
46.433639965791
46.5437909865099
46.6399471354608
46.772570099794
47.2853910301528
47.8158575805704
48.103112661953
48.4114871875208
48.7847732139136
49.1856871531225
49.5235463692504
49.9243422206796
50.3531679722824
50.7891318130081
51.1761753588778
51.5193597274013
52.0182713482221
52.6912150869893
53.1976714151808
53.581637625391
53.9495848611629
54.4279794706053
54.9053719015195
55.3802718567081
55.8790199939968
56.409296706917
56.8880692183882
57.4401772656485
58.0222827244346
58.5372005201886
59.0237768511705
59.5768389375839
60.0668564211935
60.5585246191721
61.0757380845124
61.585842899135
62.0686466716331
62.5847148009722
63.0780405163449
63.5665499575034
64.0693976657442
64.5912593607866
65.073569140593
65.5685338849969
66.0577561847797
66.5490860363595
67.023872319597
67.5156448813287
67.9800266542342
68.431263319123
68.8761251938602
69.3122551803055
69.7128468633794
70.1460468604373
70.5620388275006
70.9709756982512
71.3451523243265
71.7182648066968
72.0884491613779
72.4876545471101
72.8427070412544
73.1744114820633
73.4884844814858
73.8054133654647
74.0972311977195
74.4065150269541
74.7399234541129
75.0677378792383
75.3755106457587
75.663455457676
75.9252019674998
76.2073368974936
76.4689421383353
76.7213804732724
76.9689586055289
77.2031218955685
77.4033172337127
77.5955125999116
77.7508534468012
77.866654354622
77.9353264140416
78.0006376943474
77.9867660902665
77.8924625248488
77.712220986273
77.4670581334446
77.1352070406225
76.7063130866826
76.1755023618155
75.5957187487017
74.9921171545157
74.3812111633559
73.766536287462
73.2257957399959
72.7958031067005
72.5132842769043
72.4111062268128
72.4909017660169
72.7427038888428
73.1152053182263
73.4792395260851
73.7834869532966
73.9724728324526
74.0276143791734
73.9447485375928
73.7658141436404
73.4894262353933
73.1485777210344
72.756819121801
72.312136372048
71.7887424674481
71.2377269968933
70.6865864678087
70.1685234892464
69.6829716164993
69.2225387611589
68.7482304801746
68.2609194592538
67.784522408742
67.31014226006
66.7771885635848
66.1908783586569
65.599653300193
65.0745778595865
64.6585685712047
64.458778779616
64.5236465042957
64.796203695752
65.0054639891903
64.9826750907695
64.6678695144076
64.2518876625261
63.9626053260454
63.9859197069363
64.2786993233728
64.7123451210217
65.1035986850567
65.4515320534451
65.7297557142368
65.9326942815334
66.0251601716734
66.0284240454395
65.9531495123991
65.8701182183761
65.7674847049442
65.6760045869504
65.6174984611723
65.6718518301453
65.8327894935422
66.1398703660888
66.6046807900759
67.1864964599994
67.8200266205122
68.5503996839742
69.3368392584329
70.1719548977534
71.0048288102292
71.8909284449754
72.8010853609485
73.7095374508824
74.5875872073287
75.4260328678498
76.2308645591987
76.9925911399314
77.6849858815824
78.3685389366265
78.9981931060182
79.5800311091204
80.1409338095794
80.6867131813216
81.0944439894565
81.2777786723434
81.5241901033932
82.0914296559092
82.6345261238254
83.0694556055843
83.4599873700144
83.8114922075251
84.1478221829872
84.5051064153452
84.8306150526026
85.1173952138593
85.3611803707541
85.6221721894525
85.8776402627155
86.0951340658749
86.283039673079
86.4950073968853
86.6921882473917
86.8686910760917
87.0479261605222
87.1938188993513
87.2915765887922
87.4035644864364
87.4885905410517
87.5469795503844
87.5687270207927
87.5583949332636
87.4789743267832
87.2208912200157
86.8382982159696
86.9394306793087
87.4855350522776
87.9333877055241
88.2373420802528
88.4520595500539
88.5692871132645
88.6317152208777
88.6185436216958
88.6949488142697
88.8946355467429
89.1025488047651
89.2830427469708
89.4453670160261
89.5886082251316
89.7311076880431
89.8709274030392
89.9705901150265
90.0577123745337
90.1536907655716
90.2507486740114
90.3478871347909
90.4390626252978
90.5003346968345
90.5230600395778
90.5550329785662
90.6346858397077
90.7280604963455
90.7876077298078
90.8132096103052
90.8500823544656
90.9083267801127
90.9464728953941
90.9835065964416
91.0819189522851
91.1316583313153
91.150881982728
91.2075375064289
91.2564089341232
91.2923997574686
91.364618549243
91.4303350922863
91.4373323138009
91.4621470095421
91.4911440785955
91.4934841836569
91.5307971935397
91.5542409417695
91.5570644986269
91.5997682421404
91.6503933210059
91.6836704818354
91.6908446589883
91.7196486262665
91.7277943230653
91.7614335567944
91.7665151452679
91.7584807734328
91.7971010249736
91.8081480439323
91.7920069547036
91.7784080904507
91.7404903307625
91.6829700590911
91.5797926777487
91.5016685951219
91.3783725405564
91.2612194707311
91.1433999558665
91.0216142865415
90.9379277929954
90.8909545000208
90.8111800845069
90.7331640721071
90.7037066702811
90.6837495395802
90.6682804649624
90.6684506824387
90.6848124020356
90.7472156626429
90.7920128953479
90.857672668196
90.8735079349124
90.8488878155153
90.8276124409245
90.7190334609934
90.5419150512694
90.2423476816357
89.7641188699591
88.7610876047686
85.772736031166
78.2485857483626
67.5917562040119
62.7753403086361
68.5265048380558
77.5301591936255
83.4774782791341
86.5123377899002
88.0063154568318
88.5920380519956
88.7605660033902
89.1954506778845
89.6021374450667
89.7975666049064
89.8855701468103
89.9477000887042
89.9733912319628
89.9067871820043
89.8587891781477
89.8578095583927
89.7715309189847
89.6586338229849
89.6469704223886
89.6445127615172
89.5311300134387
89.4422388984676
89.3538116915421
89.2234524266292
89.0999587492249
88.99154761103
88.8352391198701
88.6908113308323
88.4661692762597
88.2296654452771
88.0086055359387
87.7918286366027
87.6005724969417
87.392197266048
87.1572456061174
86.9665990596996
86.8661956987791
86.8053648554439
86.7473264076165
86.777501463222
86.8035485467475
86.9018652880976
87.0231614289052
87.0865319995829
87.1601592670248
87.2913902567015
87.4181122083653
87.5067700486464
87.5604186847955
87.6796634964194
87.7972173588576
87.8916356401616
87.9059441671408
87.946633163069
88.0256690185135
88.0327188632172
87.9292446272056
87.8206826363237
87.9280998333041
88.0523639339805
88.051881314814
88.0990620600323
88.1450910481162
88.1354927156308
88.0799495936653
88.1079639802776
88.1359373443055
88.1303491043919
88.1425838625533
88.1825042711894
88.1938809301894
88.252699278292
88.2394950127983
88.2072157105431
88.2359776321629
88.2869994077263
88.2961781272921
88.2799234167793
88.213777501092
88.1789769079407
88.1099221656883
87.9959390006578
87.8110880985741
87.8139421541225
87.2279876564254
86.2248180044425
84.8493243828205
82.8699904489961
81.0482204631638
80.8184876038766
82.2529297260165
83.8326872531944
84.6933214923833
