1798
3999.43349933624
650.420452594757
1
128
4
97.0489903830826
96.9986082132592
96.9934295150248
96.9957640168868
96.8867536269648
96.8780229214089
96.9423214254795
96.97311900613
96.9278780744445
96.9505248401405
96.9792897892076
96.9823567654997
96.9490212708569
96.8880602309398
96.8794487371417
96.9196211284505
96.9456827350726
96.961853814856
96.8831972745663
96.8705485236748
96.8692721797694
96.8204353984138
96.8382584058782
96.8923041197256
96.9370983935738
96.8732271757587
96.8365660253156
96.9409126126637
97.0008894367217
96.9818977931575
96.9144189890556
96.8898658341508
96.9253180862141
96.9740076590906
96.9883146357554
97.0080598827078
97.0182523732409
96.9565409412544
96.8939728812431
96.9611753175808
97.0143649905701
96.9183957883321
96.8710265927818
96.9825970813935
96.9501252298516
96.8065629555276
96.8584476718388
96.940057213417
96.8751621271653
96.766351171251
96.7568158902048
96.7733297223203
96.7220875123137
96.8866314828473
97.029320519906
97.0223905754916
96.948618197677
96.8480030370018
96.8550161104811
96.8968832764523
96.9239307705055
96.9449883793226
96.8411450150271
96.8971545119258
96.9445221990785
96.8430609723255
96.8227951552271
96.8378403489372
96.8374760856148
96.9124254351898
96.9112674728899
96.9485494928043
97.0318881098308
96.9908306812446
96.909749695222
96.8250368376148
96.7560525787076
96.7854876043767
96.9216206077811
97.0531091270957
97.0949396989713
97.0805838357023
97.023621490772
96.9996120524414
96.8403208360209
96.7502577422342
96.8716027052791
96.9359921662348
96.9700716529086
97.0244591516059
96.9694153877364
96.9195967905333
96.9173769228128
96.8345592082548
96.7824477701264
96.8975388465663
97.0396119094546
96.9894657711849
96.9933369734122
97.092577930322
97.0215566869742
96.9825680750172
96.9753437674739
96.9462775113921
96.8804505682394
96.8875869724525
96.9567374738787
97.0012741168212
97.1056719985277
97.1831716818624
97.1643309101647
97.0357044984044
96.9150164012597
96.9271605076819
96.9866024147441
97.0921275382569
97.0187120155025
96.9381024248974
97.0157901746343
96.9790607688404
96.9052351155859
96.9301777102436
96.9356514357495
96.9997488247469
97.0141643799786
96.9312158829255
96.8999573492291
96.913288753462
96.9115103056354
96.9447250227731
96.9007430221108
96.8465544387613
96.8282604269418
96.9261635966488
97.0030189086005
96.9024909117221
96.9729521756812
97.1342886759178
96.9500358111663
96.8446396824541
96.8421300269761
96.8898503726527
96.926529913483
96.8833182249684
97.0310530414242
97.1465304995666
97.0989646552367
97.0728746790956
97.0647905256016
97.0179169134132
96.9776621312731
97.0010995653864
96.8594841199497
96.7761617942973
96.9164384906969
97.0268063400029
97.0294268545691
97.0121969078114
97.0532319506811
97.1120098072032
97.0481604254694
96.9510262552914
96.9348589014862
96.9499075254677
96.9059726624117
96.9293632412648
97.0047574853675
97.0707390846849
97.1286289620306
97.1568029264339
97.0584255665252
96.9390388654428
96.8002029809363
96.8098685831357
96.9185553519518
97.0630670248136
97.1317332626541
96.9941646640857
96.9153401352314
97.0882369856177
97.0957772688274
96.9235766147348
96.7475002468193
96.7019053129499
96.8183193392974
96.8087484683937
96.791976217251
96.8530761420855
96.8398395033041
96.9561405010593
97.016208486387
96.9582699628425
96.8508703917257
96.7361538605971
96.7029773455381
96.6881821732126
96.6991340033625
96.6223236045578
96.6247397012213
96.7614793346213
96.7488339591778
96.7337678277534
96.6435544734354
96.5198631772994
96.4958035111362
96.5077163263165
96.5235391157008
96.5353664872664
96.4406758827367
96.4977613930363
96.5442396768939
96.4296460578452
96.3383349421589
96.2396591082223
96.2013774842734
96.261021912089
96.2286545512089
96.2519458313159
96.2896920740795
96.1714073573059
96.109885152103
96.276052585262
96.2106007423967
96.0454869944599
96.084218429625
96.1273751700329
95.993974653678
95.9342983133172
95.96210816088
96.0028868160007
95.8749762449521
95.7224559890683
95.7645867534461
95.9951460175153
96.0351959518814
95.8680199734831
95.7962859465798
95.7810427301362
95.7028157665501
95.6472103313585
95.6276241318985
95.6217124382632
95.5427476470425
95.44643284014
95.5042667027024
95.7091142447638
95.6881478147093
95.5839582494177
95.5422120686898
95.4766965788713
95.3898493218566
95.3014507180717
95.2386709728748
95.2897822719121
95.2935549085781
95.2980189730547
95.2818146055286
95.2289432727288
95.177122121353
95.2120943316264
95.2315428359037
95.1373707844343
95.0746002426092
95.1486240475479
95.0922710157241
95.111327391855
95.1884873347945
95.1390708663425
95.0343052346881
94.9960983097061
95.0411427018434
95.0729069339135
95.0023624419503
94.8920731459693
94.8028780526189
94.7870456664681
94.7765664968826
94.7701517939922
94.7624758885434
94.7798679405023
94.7554351557281
94.7060693977539
94.6692831144958
94.6231281021786
94.5840627724164
94.5874235984035
94.5685235405029
94.5436454339594
94.4369456665415
94.4561222886821
94.5110033244417
94.4288391580605
94.4445212732465
94.5366716465528
94.5384705820642
94.4841088907761
94.4225789221924
94.309676609229
94.1688092783508
94.2226887165232
94.2946327992019
94.2708583025698
94.1523076392661
94.1168386112643
94.0765433191221
94.0143022237764
94.0153244186341
94.077598557019
93.9570270063262
93.8675622563515
93.9478601666005
93.9429960305675
93.9615735059655
93.9594331624332
93.8814316744588
93.8697900900928
93.8257606595532
93.7748915676701
93.7171941295706
93.6943678808403
93.7116840086678
93.6722963954002
93.6274564910932
93.6828144326437
93.620157682033
93.5910674095372
93.6809072526638
93.7073330886625
93.6003243055307
93.5151576415239
93.4062470903984
93.323103453425
93.3664757049517
93.4681212739408
93.486518903305
93.4790475222321
93.3747294737927
93.2235549707648
93.2041749463913
93.3101073213279
93.3151187597492
93.2389933603397
93.18789621156
93.166732455826
93.1041202534376
93.1120016548372
93.182457362202
93.1750385459425
93.1061336763447
93.1011131023771
93.1149291857479
93.1322360805118
93.130726666332
93.157655190461
93.1407912143478
93.0238428455519
92.9530499452439
92.9804563906734
93.0330880785236
93.0533024601176
92.9526600879233
93.0232635265363
93.0731146917136
92.9756656534074
92.9370761018151
92.961387335806
92.9842288985112
93.0147875877325
92.9693643460155
92.9121814645724
92.9371013762014
92.969736458412
92.938461551579
92.9539704546205
92.9281018103356
92.8966521888221
92.9840112826235
93.0069952599321
92.9187054050088
92.9476469619014
93.0431937882536
93.0709273083846
93.1064052008555
93.103755597228
93.0613469349409
93.0926988302888
93.1287468286109
93.0852173720723
93.1400744630764
93.2218275952358
93.2427292922096
93.31119945718
93.3407519626245
93.3236218579598
93.3596007401197
93.4063257328848
93.3745079674822
93.3585842456652
93.4269837519044
93.4025974168808
93.3603742928939
93.441001701654
93.5485532475986
93.5779349338214
93.5581995633634
93.565417571111
93.5788141467734
93.595192842459
93.6139228684722
93.6754248666024
93.7265623141989
93.7187579138082
93.6861139326565
93.6667977109065
93.6669464319067
93.6809976427433
93.8322988512297
93.8963275961983
93.8473948288081
93.8766746025446
93.8631059079927
93.8676658842669
93.9289617688965
94.0107405293979
94.0228215563555
94.0033075772292
93.9999376378735
94.0055992980327
94.0233948701518
94.1234944194758
94.197237944841
94.2424215529743
94.2381810250362
94.2472881943051
94.2429347854577
94.2222260269422
94.237388579756
94.2528933517283
94.2591940232083
94.2603551210675
94.3371709620255
94.4976880764708
94.5037619394992
94.4453934079327
94.5513909082339
94.6451887803798
94.616887461994
94.5546565990089
94.5702152173019
94.6319245913919
94.602076658717
94.5981088896475
94.6388728042524
94.6308415183845
94.6416078197132
94.6716548944024
94.6999423628447
94.7816724888787
94.8932539835331
94.9417510223241
94.8670858941478
94.8089025476338
94.9283004208749
95.0303260761536
94.9317468242466
94.8396745521381
94.8858846885167
94.9353595217487
94.9503057596138
95.0344018007226
95.0998753617333
95.1834641049424
95.1616881641418
95.0954693442209
95.1172418961912
95.1317188424673
95.1018338254469
95.1213978438799
95.1410422836746
95.1214388096601
95.1097873790044
95.1764694522459
95.2916754305142
95.3558948094837
95.3939031823815
95.4140020813815
95.3379926825642
95.3075220862001
95.3144969383012
95.3159744671949
95.3309259075753
95.3752849539136
95.4675502574627
95.5602380982034
95.5685303230168
95.5337665675112
95.4927149921295
95.5142699226575
95.5190270461028
95.5195575306124
95.5136873711906
95.5382976254463
95.6259901486069
95.6401960835148
95.6121992438033
95.6757930089306
95.7237507273452
95.756274377206
95.7684835656878
95.7217028176773
95.6975460324329
95.8219476127036
95.8532654488289
95.7699744998865
95.7320791802616
95.7547309032261
95.8090740077541
95.9212441024547
95.9189636857669
95.8194359045229
95.8237735401098
95.903909797723
95.9633994214116
95.9772785900729
95.892420953314
95.8331424201984
95.8880694266837
95.9352597197268
95.9522395924258
95.9630910035829
95.9996741901355
96.0166833902644
96.0023196962748
95.9960469381175
96.0208477053568
96.0688777806554
96.0382777683444
95.989714933948
95.9926922965174
95.9978862746365
96.0419335068151
96.1115199664162
96.1576261878699
96.1772881307709
96.0942506601762
96.0975179281976
96.1634938764983
96.142553226444
96.1478459996145
96.2111635082795
96.158326514422
96.0843857648845
96.1099943684458
96.1544474218112
96.210571681496
96.24413455071
96.211915474281
96.1807978351234
96.1506688093094
96.1621154639387
96.2088937429609
96.1945153352725
96.2158246462053
96.3043563178199
96.3202646130844
96.320087740471
96.3161809503562
96.2639831243143
96.2528238590321
96.278790975764
96.283306339268
96.2590858390144
96.3118989829295
96.3985526594309
96.459859824851
96.486351741381
96.417633283934
96.4074549477706
96.4607069479092
96.4664231498712
96.5334155132792
96.5729955918755
96.5119815275926
96.4844517005124
96.4977635704619
96.4934453442319
96.4472721606594
96.4046428442852
96.4155836363917
96.4896967751767
96.5952137295076
96.6378365889785
96.6147503576294
96.5552838566946
96.5446527139024
96.5493426700981
96.5408070920555
96.5596276118957
96.5436828472149
96.5614478087178
96.5454503801645
96.5095987402293
96.5585527805634
96.622255018298
96.6183604388577
96.6152579026311
96.6261947314514
96.6190648643745
96.680505908957
96.7267356720774
96.6734171327806
96.6343314044365
96.6355358212783
96.6323796532617
96.6532485377788
96.6744478027156
96.6836720955258
96.7372684449767
96.7413673192943
96.7031128491088
96.7022504722945
96.7122141853113
96.7469646014258
96.749557772365
96.7188214655222
96.7624351438964
96.8072469113692
96.7971242248738
96.7815175191902
96.7178960231871
96.6270169203756
96.6871196698089
96.8058750094801
96.8099624826785
96.7433833279077
96.7171668807768
96.6972660745988
96.7110910480487
96.7386161621791
96.7537523893874
96.7804232122762
96.8028087131911
96.7354071410505
96.6590597986865
96.6482405878144
96.685670513335
96.6671936558395
96.6338721085519
96.6287104284013
96.6740951945013
96.6807522820785
96.6348485741607
96.5849536459413
96.580914677755
96.5515441024649
96.4668171245309
96.4725798369894
96.5951408502866
96.6389653273373
96.588630524524
96.5380421187897
96.5442638946342
96.5797781037868
96.6094915436644
96.6137480451791
96.5704348313796
96.5626124863816
96.6236339720206
96.6418107091637
96.6224439493654
96.6220393868348
96.617590580097
96.6415568264882
96.6511840079544
96.599038577337
96.5268503993334
96.5085418404853
96.5120081228329
96.4678958628974
96.4291527631362
96.4164473394616
96.3621662064387
96.3320914021146
96.4417322849527
96.5931845797045
96.7255967815977
96.7900857338691
96.7296946904691
96.6937266111514
96.7467124870157
96.7873478705547
96.8143696340938
96.8618156495801
96.8775289023321
96.8745859189533
96.8921914721303
96.9158027989526
96.9715215859115
97.0042585697927
97.0199060787851
97.0219938865355
97.0050408269314
97.0331920101503
97.0378827482945
97.013538414629
97.0273450827948
97.0698268861169
97.0933367230344
97.1360216278524
97.2069885499865
97.2179697053134
97.1814971356488
97.1178572666375
97.0798281720615
97.1067211512874
97.129047053226
97.1382450594523
97.1337279757314
97.1199708437925
97.1311700010576
97.1386228866491
97.1551973379703
97.1515553167842
97.1238964794757
97.1205996442168
97.1512148437749
97.1743770749505
97.1618611738566
97.1803237087857
97.2116957741615
97.2092697061383
97.20377845224
97.2012339447262
97.2179377598144
97.2313053854922
97.2267750390921
97.2570286629119
97.3311857127162
97.3637419281462
97.3104212458959
97.3391950866183
97.3763258117153
97.3978127321625
97.4045971380317
97.4093003122144
97.3848341718693
97.358776277513
97.3396558986424
97.3445121121075
97.3873120563454
97.4739155512786
97.5152662292997
97.4935280601454
97.4787608499708
97.394931266005
97.3316929307235
97.3919886253864
97.490641653853
97.5239266931327
97.5400239266585
97.5686723634627
97.558394201714
97.5073668442396
97.4214229717425
97.5116904674682
97.6988997450741
97.659549554267
97.5206204982135
97.5109849262442
97.5953601998357
97.5963319301133
97.6395023105794
97.7170465336455
97.728409079799
97.6991471399214
97.629756218268
97.6283814344824
97.6550706389384
97.6642449321804
97.680789606682
97.664894082725
97.7255398484108
97.7220886221441
97.6632276332547
97.657722357762
97.6959669029354
97.7335539377432
97.7383736916196
97.7888514122438
97.7914449476541
97.723963801812
97.7050257014592
97.7573531608744
97.8264612439012
97.7921334186518
97.8170212415778
97.8100327270224
97.7597904566732
97.7896387480281
97.8566277405532
97.8601273541997
97.7817578304061
97.7376369944242
97.7381077562441
97.6778217511973
97.7201592127366
97.7577212647334
97.6254547640797
97.5233490182755
97.501981609714
97.5092671921808
97.495415469567
97.5213782474209
97.5674718691215
97.5143343656245
97.4875762243587
97.4578454210502
97.413059876674
97.4302214887084
97.482131604766
97.6028162088951
97.5777640402685
97.4741084401505
97.5136521272938
97.5463776691887
97.5934675036236
97.5483670020552
97.4353847680788
97.4344703185097
97.4751513912356
97.4866257747196
97.4966109574879
97.5327950433659
97.5233665295843
97.5169451864005
97.4719298646244
97.4265236466063
97.4406494470425
97.412470258937
97.370598531771
97.4325895145241
97.3761365468537
97.2703410803555
97.2935483281081
97.2771230051081
97.1956579348309
97.1447162782295
97.083150870678
97.0365143630316
97.0007450013707
97.0294189110025
97.0920616653989
97.0677824840843
96.9965042983329
96.9626873277462
96.9340305046856
96.8584348056471
96.658761891956
96.3964283668982
96.074121518469
95.6691548291415
95.3616960114884
95.3103455407768
95.4570332860855
95.6285390806978
95.8251763865593
96.0387389818267
96.3032666546018
96.5721504249867
96.8135306174496
96.9628240365974
97.0347112329205
97.1394178749509
97.3075987295982
97.4695325438899
97.5687413380933
97.5818405557748
97.6382224372207
97.6818274828334
97.6777113187619
97.677124925616
97.6791528395326
97.681651854806
97.7406840239273
97.7547359974406
97.6907439017728
97.5924247070448
97.5892273788813
97.6240806037751
97.5949891409686
97.591256785585
97.6243426799849
97.6636626037647
97.7121198242397
97.7708594936077
97.7171270852061
97.6654766602584
97.7131456249718
97.6408677453032
97.4653556613059
97.4229119075727
97.5138559091882
97.5411582987223
97.541501056091
97.5872982077767
97.6703818369448
97.7700085097911
97.7621375229113
97.6892577121449
97.7059793957315
97.7791747156591
97.8284850408158
97.8101952722964
97.7321267053943
97.7504244309485
97.82024999268
97.842079570535
97.8090335815077
97.8565812123801
97.8971577755952
97.8293236478733
97.9028687827104
98.05105513192
98.1418060011431
98.1676784193201
98.0828767739818
98.0787649341208
98.1993593207689
98.2701317614263
98.2783246304378
98.4120344800543
98.5323693543274
98.4214188326418
98.4359003367884
98.4250403359223
98.3622953429533
98.3572984520851
98.4601609784818
98.6196885155347
98.5826324455659
98.5103157525065
98.5420218391293
98.6100344599662
98.7256766819998
98.8102572646123
98.7286389087052
98.6212866397053
98.7223948841914
98.8935834341082
98.9997494457377
99.1459244632238
99.15766869042
98.951526516477
99.0116924816291
99.1265914564922
98.8733847694435
98.8600735350599
99.2178195750836
99.319523803133
99.210685305723
99.3093563089153
99.4006721322814
99.5667131317001
99.6181498377094
99.3149798037437
99.2685830596803
99.2420973536911
99.2917451022686
99.8052044669451
99.9144171928802
99.6795226454191
99.5186018484261
99.8036033790455
99.9027405465391
99.5741912692185
99.7222380742258
100.025662400769
99.8938173715613
99.7264797981715
99.7656236005865
100.017094055804
99.9002742509767
99.1125607888263
99.1029128397588
99.6424531416568
99.9813838786244
100.047866576346
100.075520894959
100.469913417359
100.554094754578
100.225157607131
99.7160096893492
99.2832274946839
99.4853979870594
99.6514498289501
99.4930869577607
99.2629287776857
98.9962970810406
99.180279320244
99.2155335043369
98.8109962234997
98.7924814449006
98.9854698699756
98.9927762613296
98.8950416555026
98.6054797354884
98.4429550770902
98.4692606872396
98.5993894190705
98.5367549209714
98.3880715382942
98.4600037453786
98.4684987580607
98.4197663798105
98.4582441271792
98.4018314498188
98.1979936238762
98.1937949065327
98.4240496935713
98.5541006953984
98.5694345345192
98.6330321924314
98.63673517573
98.5064570907212
98.3360633833759
98.2568629762083
98.2653013671632
98.2994994415838
98.3059649146809
98.3451114088356
98.4826943913762
98.5695072901238
98.5547942393255
98.5671881805586
98.5330467812948
98.337203813207
98.4878812429537
98.5882586188771
98.5474119254517
98.4581065529739
98.4681280925302
98.6312464512247
98.5848374924004
98.4435912001783
98.5994087741479
98.7505637418931
98.8955580388613
99.0843294479962
99.2978412209278
99.405496235456
99.6078817513839
99.6702139680296
99.559936862013
99.4655443104073
99.3736950881836
99.3456986907581
99.5312036662991
99.6632024704556
99.6088830092864
99.3907511419579
99.4654276817342
99.569184293792
99.4303322590865
99.4999482475886
99.5822220926069
99.6151177124368
99.446911528657
99.5781747849327
100.053384807955
100.042816427856
99.5710881747453
99.4019742649064
99.533216518833
99.5546689792878
99.4777939172474
99.6757048586147
99.5450309264254
99.3583400217358
99.3763556719905
99.2786247694216
99.1976965363819
99.3069591172483
99.566177116779
99.6539868798001
99.6538782640967
99.8518385592576
99.9304763761877
99.7955117110746
99.5348686846818
99.4664899329779
99.5353357228122
99.3681333230704
99.2513748099007
99.1983101862824
99.1781270032391
99.2488023015705
99.4568477111917
99.5232069355894
99.4548389142418
99.3114487078726
99.1056423551096
99.0052348129493
99.1633873908441
99.150422136309
99.1259088205304
99.1887313104855
99.0306737241876
98.8674131313286
98.7470092426356
98.801548549082
99.0627314137565
99.0889889453577
98.8775282666681
98.8301194249174
98.8960593654344
98.760999228533
98.7409021449754
98.8243892422681
98.8387998767795
98.852529408574
98.7872470441015
98.6944845381052
98.7735939594274
98.7651281881942
98.7501359842123
98.7722977903662
98.7530372986287
98.7333510257152
98.7595186797757
98.7990502671588
98.7380721852779
98.7027844981529
98.7278913517167
98.7206110504382
98.7771602723288
98.72379428036
98.602999445293
98.5834278157513
98.625081186418
98.6272963218082
98.5675760288507
98.5874228836505
98.6877550129174
98.7628999597404
98.7550676181563
98.6930104505536
98.6226138056513
98.5659518428489
98.6030630334255
98.6264673487894
98.6918217563747
98.7384339055824
98.6632146847787
98.6104977777083
98.5981721260417
98.5882046152146
98.537302734631
98.5898486515585
98.6154702764131
98.6005845350594
98.5935567132601
98.6121945891873
98.6195506451451
98.6519229452868
98.6452117987266
98.6727695510766
98.6924562919633
98.6346825859022
98.6173769252846
98.6548015953402
98.660967280798
98.6592484070204
98.6597131634986
98.6488919877318
98.609943244934
98.5976849008177
98.6159296338949
98.6045850962834
98.5391284514764
98.5517126246826
98.5379575232721
98.4940807129233
98.544376737238
98.6217545792168
98.586856358339
98.5901990691374
98.5774524003243
98.5342920783858
98.5113545717939
98.4965842191353
98.4999041114662
98.578805012973
98.5566995115116
98.5371287257915
98.5696282337482
98.5701856079017
98.601201305116
98.6108969063769
98.2319640872294
96.7295994911877
94.7397719852662
94.6863131034108
95.9043880442623
96.7575647325097
97.4272874034251
97.7362193560346
97.9505192042393
98.1058533990521
98.1793739513788
98.2664885854163
98.3162800969305
98.2908892886112
98.2468062745992
98.2688846974226
98.2811249455008
98.2038140182178
98.3115387744073
98.3044884614787
98.2619253505672
98.2695766031401
98.2326040275398
98.1262870310359
98.0907606379769
98.0718297569131
98.1162674602716
98.2157436554074
98.1448215333363
98.0562838805002
98.0225901219497
97.9556748177779
97.8241685644031
97.7570865685159
97.7887307259559
97.6952749760662
97.7324616676438
97.6914743622621
97.6902229387703
97.6786009796572
97.4676632217444
97.330293968877
97.2193715344294
97.1370224500136
97.1512928851619
97.1901049394517
96.9707519775733
96.881468511063
96.7764758214391
96.6401611323491
96.59446519756
96.5043739532385
96.473517135531
96.4958457448936
96.4185530081006
96.3025981239955
96.244293750892
96.1815089554021
96.1026433816001
96.0421523896694
95.9075737358029
96.0455307504941
96.2097214031483
96.0761363378061
95.9960591960407
95.9616197875147
95.8381360582153
95.7281922549986
95.6678916671234
95.5870290399757
95.5652845207762
95.7524090743294
95.765343455464
95.699395751116
95.6632219596195
95.6566614102862
95.5826037585302
95.5834467558262
95.6459472671614
95.6184591283513
95.6410458754005
95.7840150254189
95.8002945075294
95.7904175007033
95.8111949337047
95.7918695006992
95.8245060938479
95.8717580171436
95.9274424114592
95.953549814949
95.9788732417022
96.006598134011
96.032855292818
96.0543743411439
96.0692290686381
96.0995747550415
96.1498624872555
96.1894797251574
96.2150893446564
96.2278263503104
96.2408102641804
96.2181870251738
96.2291194607948
96.3734343916525
96.385966116338
96.3626109252884
96.4281909041949
96.4012002491805
96.293660494469
96.324282573107
96.2781532519315
96.1923281095226
96.5026675638532
96.5440451543861
96.5030311736443
96.5062460372205
96.3879947979032
96.3705702528659
96.2951361666762
96.2459703166147
96.2495123541547
96.2614912919843
96.3972132341924
96.4432988355294
96.301379837769
96.1891246198632
96.1994174802525
96.1205018934145
96.0217271669258
95.9380054006853
95.8980629920542
95.8231314248473
95.8465544449069
95.778576231292
95.7137320236747
95.6358821861359
95.4384552773844
95.3195240633884
95.2140378273353
95.1379644486342
95.2425762135385
95.18316835992
95.0152104622208
94.8693127929549
94.7461433673477
94.691689732544
94.6961427273005
94.5850276051319
94.4926588534542
94.5054926743688
94.4839958075376
94.4406545478057
94.3171986941874
94.1917414349725
94.0987120921643
93.9884908354426
93.9099085450605
93.8243084498945
93.7907630749797
93.7462628347055
93.642979743855
93.545106897716
93.4221416537051
93.4044569796765
93.3292397843912
93.2316852619938
93.1674275253578
93.0739767088548
92.6918299321434
92.1018232463561
91.2746582245328
90.3311138396543
89.3813002652212
88.5130428886188
87.7187957832953
87.020620863546
86.3873919775412
85.8564182812895
85.0159868893253
83.8090034313547
83.141898485659
83.4222409225416
83.598575987081
83.1478067584583
82.5389486693881
81.8116520905378
81.1018245517797
80.4924206576237
79.6504251861908
78.7038897216732
77.790800753731
76.9424071448595
76.137857276667
75.2999920438007
74.5658344495654
73.7696844146271
72.8455124909292
72.0958612248173
71.446385212925
70.6476215295185
69.9772205683151
69.0084608324642
67.9064757500242
66.9105545106734
66.0595162868596
64.8908629354709
63.6366607303507
62.4461220738719
61.348545195736
60.2638853395021
59.3524901779272
58.9614667316725
58.6153964723787
58.313208451971
58.3969545475474
58.4244207958713
58.4369129160059
58.8910991324036
59.3647654382832
59.5270909629439
59.6926168549088
59.9599676185804
60.2655536789408
60.5134055167124
60.8301029486119
61.1485742046614
61.4693501637867
61.7386107754975
61.960257292122
62.387774066331
63.0077551134699
63.3955971252558
63.6473107625543
63.9196543762231
64.3020800060388
64.6468623786239
65.0128492585027
65.3825304918196
65.7889752122643
66.1504174528053
66.5678137744456
67.0166145024109
67.4269623074111
67.7958600068103
68.2234538239653
68.6010616666285
68.9887560541611
69.3879960304447
69.784782201273
70.1774490971629
70.5703171023726
70.9365199458321
71.3261671266523
71.7145360466565
72.1169799638368
72.4943652835196
72.8769939434154
73.2649928133372
73.6598016839609
74.0108944775361
74.3958595098109
74.7784958357103
75.139035346569
75.4467039947391
75.7655904848785
76.0885774729987
76.412686582678
76.7169627657997
77.0260718300693
77.3414902919644
77.6649365159972
77.9566660465636
78.2448832909696
78.5278877051208
78.796473404493
79.0359248953487
79.2753477757161
79.5055914287662
79.763723764449
80.0047984857101
80.2438580363827
80.4941622790158
80.7318430681307
80.9298173472563
81.1565545300111
81.3695178778078
81.5764172435216
81.7825715764934
81.9652628776177
82.1148213534431
82.2682553984778
82.4168419011395
82.5141975924779
82.5869608094868
82.6600895451557
82.6768325505507
82.6212714540382
82.4743937724592
82.2800972225422
82.0382101820966
81.7363229850835
81.3309446440858
80.863016173798
80.3794008312867
79.9012380353226
79.4067660637961
78.956028589793
78.5880274533761
78.3412575351764
78.2271700936635
78.2759237208154
78.4779991170547
78.7649031831003
79.0473182618246
79.3074508465539
79.4946654880165
79.5546696669484
79.5121490977328
79.4025863065068
79.2067579728433
78.9645575307049
78.6540503919723
78.2946481852848
77.8848580932326
77.4632569343762
77.048001162192
76.6448593136515
76.2353132201395
75.8726707572808
75.499396159095
75.1185967977816
74.7284549386164
74.3153745729956
73.871192229606
73.414308206687
72.9407831023603
72.4974346129519
72.1153635498752
71.9096919246359
71.9288387314303
72.1242128379938
72.3093944532093
72.3412880262535
72.1219049005475
71.7454272871233
71.4417627161987
71.410953778439
71.5918179020816
71.880576048523
72.181413122514
72.4639237158057
72.6647081310705
72.8065184387963
72.8871618552402
72.9230102840113
72.8841937927957
72.8288549217845
72.7469524773479
72.6856535358985
72.6264516292056
72.624113542336
72.7035081802111
72.9309599224205
73.2584354187263
73.649400333024
74.1054836109344
74.6529134198286
75.2320052089363
75.8461212149291
76.4861851587223
77.166322913126
77.8430057194728
78.5028435623427
79.1535011318159
79.8140670871577
80.4396115811749
81.0304290095065
81.594044644164
82.1225437628872
82.5892160014337
83.0472054339677
83.5013287096814
83.9359717546627
84.2831403413551
84.4532241723684
84.6284964201308
85.0512872692493
85.471662075176
85.8305044544854
86.159724866602
86.4460913880206
86.7304925351105
87.0432118843635
87.2994478016543
87.493798786863
87.7164375518941
87.9370396249243
88.1161092330312
88.2888723795083
88.4642077238902
88.6492534429588
88.8232331179232
88.9678026076491
89.1095735104563
89.2403039071313
89.3524288824176
89.473589125267
89.5627449456808
89.6366079136534
89.6553050627364
89.5881712324247
89.4960887337574
89.2922691360492
89.0009976211427
89.0685877012623
89.48945996834
89.8717131580616
90.1195971532652
90.2829942912732
90.4083694865797
90.4606191174542
90.4438403154685
90.4687469542811
90.6415882821759
90.8551165824291
90.9822243818672
91.0955084919271
91.2288462143866
91.3440891105832
91.4126078577498
91.4904425881976
91.5911722269393
91.7056677375239
91.7998845216227
91.8577555217417
91.9045824152393
91.9622926601113
92.0242776369739
92.0968417104972
92.1360130676491
92.1590988607831
92.2146212846425
92.2742829312402
92.3100750428091
92.3530428210051
92.3822968359733
92.4101674660428
92.4482399727942
92.5069827414205
92.5445931659738
92.5989145742214
92.6496241610745
92.6697052002938
92.6899720842939
92.7211503820586
92.7832976676337
92.819031925561
92.8141130762574
92.8378791785527
92.8971661009493
92.9271985780629
92.9350013072234
92.9681292691109
92.9993020392831
93.0114656246761
93.0260133032384
93.0614949233599
93.0745463382739
93.1030390174974
93.1226568620764
93.1188585440387
93.1433910806108
93.1667665680016
93.1427710597394
93.1019479521848
93.0559854320456
92.9768461673923
92.9100756608092
92.865595820389
92.7978442116218
92.7345191798412
92.6380055670679
92.5177569613788
92.454801082337
92.4282788313966
92.3904105774651
92.3288758879679
92.3058081884304
92.3093667820816
92.2570194658113
92.254947117932
92.3360884102099
92.3721588893043
92.3790897811834
92.4337962574195
92.4723688471753
92.4776822715136
92.4545391685172
92.4352992637423
92.3620488565903
92.1963021281769
91.9022014186712
91.2656995913498
89.175482835095
83.5617755995871
75.158563457928
71.1095879535312
75.4438928013639
82.2891663486279
86.7103248019252
88.97659692085
90.1078349725847
90.5376348767457
90.6440464499755
90.9521140214338
91.3083634015752
91.4828843430887
91.5497883768471
91.5819498242545
91.6108745155873
91.5838414652663
91.5305351761345
91.4754952343645
91.3902021537313
91.3587970966201
91.3376903230165
91.2772010941117
91.2285684876331
91.1774971337528
91.0704886125131
90.9823873134508
90.8878656669205
90.7486977857645
90.5896401813509
90.5020230598949
90.393944011529
90.216286894826
90.0060293978206
89.8114968308942
89.6440514843162
89.4786424328433
89.2595885560924
89.0674779437653
88.9870133308502
88.986118952955
88.9654505365886
88.9367263131682
88.9736129492336
89.0205485629423
88.9968423732447
89.0402018110549
89.1863347195695
89.320985567468
89.4488036682113
89.5105755965621
89.5164944672452
89.5761075843638
89.6447695392108
89.7552107125667
89.8362269453818
89.8452993443844
89.8791441053883
89.9726904813017
89.9092876184572
89.7646277654143
89.769459694989
89.8674769682249
89.925329229991
89.9458363561154
89.9443806101909
89.9839447743414
89.9747928620737
89.9850667355296
90.0033649237607
90.0054347668716
89.9994178461858
89.9932104529528
90.0789329776398
90.1530992695168
90.1298559776676
90.136892539779
90.1141248912233
90.1464549080467
90.1850512405088
90.191499384153
90.1480568716805
90.1261097259805
90.0853887284053
90.0361146585842
89.9165030325368
89.9023163738675
89.5732363547978
88.9324902190989
87.8124224546378
86.1340054154937
84.5737056184299
84.2363015457327
85.2777350213629
86.5495726854997
87.3362806068242
