1798
3999.43349933624
650.420452594757
1
128
4
98.7014977874169
98.6379052599908
98.714457766667
98.7131151274731
98.6182897123302
98.5657696841369
98.6669637719613
98.7428144038173
98.7315850580229
98.7197005353293
98.7900898837504
98.8401023632157
98.8408847856844
98.8232144349338
98.7709672356481
98.7336987195441
98.6678545339694
98.6086784888033
98.7098029884539
98.6908009842417
98.6773525204066
98.6661951623326
98.6712310577469
98.7310700666448
98.7729797146755
98.6826413830453
98.5716222127433
98.6373921446364
98.6871049330128
98.6207099684186
98.6793224908968
98.7108287731164
98.6476790978985
98.6335498374329
98.6924485266336
98.6942218082051
98.6899430348236
98.6187205607196
98.6206573127637
98.7140827568565
98.7402799374182
98.730443084337
98.7210081958572
98.6031757030998
98.5020649656912
98.553525944154
98.7134255513018
98.7272356200626
98.6488559924909
98.6405872866262
98.6693843740468
98.5909147475
98.5575212176793
98.5515812842025
98.6761620107633
98.7483052483016
98.6091869440565
98.5543924487806
98.6599945789726
98.7057858992819
98.5963700166753
98.5361107257613
98.5707854048276
98.6196802795914
98.6906667064291
98.6810932646922
98.6452546672811
98.5973805693198
98.5386847251245
98.5529803778247
98.7441625814316
98.6012232978818
98.4408008370491
98.6612160968126
98.7488904488894
98.7881153533314
98.7270947198953
98.4059002141832
98.4343432223269
98.7799613871794
98.7776324703388
98.8070278991424
98.7204164162276
98.7298149757876
98.8073572943071
98.46884548914
98.3168173013613
98.3117391335216
98.2939723685967
98.3491435781546
98.3786840636281
98.5053090353093
98.5086193480932
98.71520069104
99.3190385938588
99.4521253564194
98.9893404706867
98.444825645841
98.399026762254
98.6062719625622
98.458279731803
98.4546541644896
98.8094062221778
99.3202505616916
99.429918165185
99.0664954044325
98.7166612529567
98.3524499922675
98.1678076404109
98.6225538483888
98.7610711230848
98.3570226505601
98.3367506223477
98.3014650433509
98.2408086404422
98.3577392310076
98.4280765728452
98.4116520196615
98.4664647118553
98.7159914125912
98.903389100792
98.663520499581
98.3955972793261
98.4177276306958
98.915656646416
99.1926098024945
98.8511251814717
98.3658841593698
98.3834429424573
98.5416719416431
98.7811720195667
98.9946241393361
98.8518420676068
98.7583584365452
98.7299735149945
98.5549686408158
98.4622863196586
98.6214758422056
98.5337821369478
98.3488984427351
98.3805312666589
98.440400212984
98.497347449009
98.3618352906542
98.4912087821115
98.4886309616493
98.453847746406
98.6405401180697
98.7102754771541
98.6870491648303
98.6810986795802
98.7058196655491
98.8124395220161
98.6300858981519
98.4562644082933
98.5633176889717
98.6722556927925
98.6471185313649
98.6427843238528
98.7251681473782
98.6781353393647
98.6008953803492
98.7360105003832
98.7575780127247
98.6422221641433
98.4615432372807
98.5217017173441
98.6156533403514
98.6107008185582
98.5498479227857
98.6655330738025
98.5970100173101
98.4543924830767
98.4905295068081
98.8310576004006
98.6516421862095
98.3143862797266
98.3947360613527
98.6030975324158
98.5599338881104
98.5962905815673
98.6770272240909
98.6257759981644
98.584198366515
98.7602442961025
98.8081390819071
98.5293531765542
98.2029570637813
98.0998279471516
98.2481992652713
98.4642164321558
98.5323137094026
98.5020685373514
98.398604870494
98.4001699547565
98.4694475473482
98.6218353079303
98.56343213352
98.2835742134465
98.3450718548368
98.345541025748
98.2324542482287
98.1721326537712
98.2190061168631
98.2052291102959
98.2308934572698
98.2568445347681
98.2300771138853
98.2102701255257
98.2008385250879
98.2834294934833
98.2153706548225
98.1012872452883
98.0244131439834
98.0530025948536
98.0824499752592
98.0670518683826
98.1092919516234
98.1487610310495
98.0550652589374
97.9928115723784
97.9189915834323
97.8002809013244
97.8622658204418
97.9431104203969
97.8833424654946
97.9349294791941
97.9805924607974
98.0645883231573
98.0964353201919
97.8977620736183
97.6676783924817
97.6543098576379
97.6405521577426
97.53976447304
97.6315491853818
97.7023707533282
97.6231653541436
97.5392368363265
97.5549022231695
97.5977974911681
97.6440499326583
97.6001369836067
97.4834257635995
97.4103117076414
97.4848836875171
97.5654402511874
97.5033147913216
97.485623908451
97.4905276420722
97.4237667351989
97.3550723195026
97.3235628764092
97.2535664096526
97.3119698717955
97.3872672631697
97.3714445320417
97.3191064976737
97.2763317254146
97.2961277689226
97.2923249443571
97.1892743264989
97.1475538399149
97.1622866696416
97.202992870437
97.1202608896383
97.0767574057108
97.017897377282
97.0002191169045
96.9746855776188
96.8977441841422
96.8737566990747
96.9578898360347
96.9962638015553
96.9059509974885
96.8368015330927
96.9763140110688
97.0270327014534
96.8688514645409
96.8077665155651
96.7598236069598
96.7330995268604
96.7403185407875
96.8025968242328
96.7508937098461
96.656996928154
96.6471185810127
96.6342189488977
96.6272403906289
96.714529790338
96.6617669637842
96.5729191897953
96.5094941681671
96.4721238920904
96.4116532864198
96.3105184412083
96.3446762821487
96.4324647888016
96.5372078195198
96.5648892287313
96.4531720075619
96.3407518831026
96.3024808130557
96.3364643320449
96.3533660682184
96.2657642231845
96.3264766882246
96.3739424730199
96.3339643407713
96.353605756411
96.2707113365206
96.1462173764518
96.1541351857827
96.2947304401873
96.374616827338
96.2670355654349
96.227103297376
96.1856664107957
96.1792253724054
96.2129483305522
96.1948389525633
96.2067249001
96.1275953842281
96.0341406389584
96.0770361125271
96.097368679095
96.1675607198498
96.1613744581129
96.0733026992007
95.9818084928471
95.9415703187822
95.8849296393292
95.8869303687467
96.0167845639853
96.0307575187502
95.9083196791546
95.8997245501624
95.9270443658447
95.9435035486044
95.9335880895344
95.8617689388578
95.8024556036514
95.8648179249227
95.9519310676579
95.9016959891784
95.9061872999778
95.8954356335018
95.8738354498448
95.9051274223345
95.9448240661655
95.9775314181294
95.9589860346033
95.8740082144303
95.8285053287843
95.7845171469941
95.7439644080782
95.7362918293729
95.7441695044321
95.7870680944447
95.88475638144
95.9474763799371
95.9275622533864
95.8613508228444
95.852888590453
95.7642276657574
95.6799096737353
95.7498616137472
95.8779145245287
95.8179477067326
95.7095837300658
95.7944194298157
95.7986583353776
95.7920675818679
95.7835949643274
95.7511858437293
95.7822697991793
95.8812052909176
95.9269778445939
95.7809666379807
95.6866824798913
95.794696674995
95.7637886616712
95.6973747384505
95.6930556833322
95.685372721549
95.7717550232912
95.7544961283448
95.641862797068
95.6272518216995
95.7580175181192
95.8447209766548
95.7515845714199
95.6473124158928
95.7386308392316
95.7371641511711
95.7311094747584
95.7287561921846
95.7553919667308
95.7298169326542
95.6783119190899
95.7404482167036
95.8239788850453
95.8270277786157
95.7173165015361
95.65982815294
95.7217592529232
95.7733276923689
95.771034137905
95.7493725730096
95.7193606140719
95.8294210585512
95.857735023444
95.7873963794089
95.6931887358563
95.6608397071386
95.6868013687668
95.7667002207572
95.8404537493159
95.8373150338831
95.7440674011434
95.6023833693595
95.6214122460725
95.7217562949414
95.7566345995567
95.6891265759467
95.6307884204897
95.6776747047856
95.7862786758954
95.837858998797
95.7848475268354
95.7047767477053
95.7240170605232
95.7620107304827
95.7913381081131
95.749901354776
95.7055166628869
95.7249517802212
95.8432237815174
95.8356741525233
95.8026412819648
95.799138739489
95.797374790587
95.8125799535274
95.8098748795634
95.8174170619345
95.8649559048934
95.8345984789178
95.8463626612861
95.9048440138197
95.9105948305607
95.9218727507987
95.8991143608842
95.788557605548
95.8776648503747
96.0186054809806
95.9964661955014
95.8888767795945
95.8311669939198
95.8526928116865
95.9086814210984
95.9649070198851
95.953986488071
95.9685895683503
95.9800474565625
95.9238079295398
95.9746414884501
96.0764680335378
96.0447950174568
95.9493148206475
95.9215708568281
95.9621785240818
96.0317419258279
96.0142463369801
95.9622853464925
95.9863298262472
96.0499853452511
96.0571494704048
96.037558292251
96.0841145185937
96.0899496658231
96.0489195543933
96.0066411317582
96.0130829241215
96.0908661559511
96.0292892447366
95.9530972807898
95.9544041730253
96.0291618396778
96.0936376089907
96.0796525950986
96.0886211309297
96.1140203473155
96.0696046711844
96.1619279781761
96.2367430607943
96.207025826706
96.1934350735792
96.2131949909244
96.2253664155635
96.2086735318811
96.1468926009666
96.1047473662407
96.0667247796959
96.1489848039421
96.2306451279335
96.2650588215602
96.3115853676374
96.2760068415615
96.1804089555214
96.1900742142674
96.1758237501733
96.2305179854529
96.2858951500365
96.2657167838828
96.2715980070357
96.2897832333681
96.2466515901843
96.2457213606575
96.3148623617356
96.3853832887049
96.3888652767711
96.3744864768419
96.3457192435813
96.3074907876337
96.2494234863226
96.3107825747753
96.3864570125272
96.3569785277871
96.3539622140356
96.4265335668344
96.444866715456
96.3993197055489
96.3369021233471
96.3342642685407
96.342353744672
96.3099892191767
96.2893327711983
96.3392888901996
96.3821413058216
96.4029303729527
96.384352414405
96.3895595464603
96.3403979567866
96.2994173354607
96.2524207046402
96.2881324463919
96.3081488605065
96.306255064109
96.2735490239174
96.2519066369959
96.2442121971163
96.24045108166
96.2632556827107
96.2923694199563
96.237955818157
96.2367775540359
96.342543687778
96.3398855962747
96.2848886174385
96.243754114255
96.1826297753737
96.259044716504
96.3344593810398
96.33785912043
96.3572972440795
96.393047057882
96.3191445284146
96.2087761857686
96.2518668848205
96.2812657280771
96.2840729387694
96.3472689786122
96.394559606999
96.4294165368113
96.4264724996183
96.4640316711155
96.5018595114084
96.4731173351969
96.4071338099059
96.4269375685404
96.4906857776424
96.5353825133504
96.5533143804989
96.5936934400626
96.5435555186439
96.4837533989354
96.498142914588
96.5126563668036
96.5088716375494
96.5291167302109
96.5325629900107
96.5161060675957
96.5497783243198
96.6321287050575
96.6208775917785
96.5562086253942
96.4748483311167
96.5596755837316
96.6132782522209
96.5922673725116
96.5953392828873
96.5247063955981
96.478749871204
96.5630081078393
96.6583643167746
96.65622197774
96.6536522464222
96.6784325454315
96.6509020582225
96.6643553459422
96.710503222585
96.753962320398
96.8158436404173
96.8329738169255
96.7919761969448
96.7774013652019
96.8126667166965
96.8882063409739
96.9075564185749
96.87566701623
96.7961738761204
96.7370281891802
96.7761094285555
96.8287993709885
96.8894681119436
96.9160899350095
96.8749220129564
96.8585395691834
96.8737095791146
96.8927253151524
96.8819814369164
96.9205970214389
96.9174080776874
96.9389008505766
96.9754283386662
96.9649088358001
96.9218067401099
96.9192117766458
96.9787240971492
97.0482286646896
96.9914572841528
96.8791632267381
96.8481751280574
96.9049480868176
96.9277927253258
96.9259854510533
96.9817084903539
97.0266981136687
97.0203988088172
97.0412214445316
97.0544700279135
97.0439712557783
96.962107245867
96.9066107298005
96.9183255705391
96.9335012349964
96.9531249188852
96.9972973231283
97.0112045265165
97.0071721582195
97.0252471968244
97.0518515075722
97.060847549175
97.0640339049675
97.0598236286843
97.0596062173728
97.0060587669441
96.9942036455131
97.0110689427958
97.0052820523035
97.0620533435066
97.1278800645192
97.0950936479907
97.0627601656228
97.0621908937669
97.0276162948376
96.9858399053816
97.0231951110718
97.0047393284479
96.9518060280334
96.955570579131
97.0390382354834
97.0801318715477
97.1097716300297
97.1237961966091
97.1330625135651
97.1709875500673
97.2042047721203
97.2069298680837
97.1999459070325
97.1460185436363
97.101385816513
97.0625025094267
97.0978745183442
97.1835460072496
97.2338471623766
97.2317827066374
97.2301919158314
97.2140644910407
97.2048264357019
97.2059011528153
97.1872666149955
97.151016172793
97.1552940179381
97.2070356530667
97.2560229651424
97.2241745264134
97.2095676232706
97.1924088273693
97.1741350454755
97.2286283761622
97.3136766140593
97.3150914426001
97.2815656634564
97.2480530953041
97.2707550687918
97.2681866078705
97.2690756511871
97.2383318460504
97.2004844502895
97.2161109124336
97.2337112278674
97.2501247092798
97.2507529645824
97.2490868951105
97.2659547453789
97.2378124620467
97.2607554340412
97.2985585613774
97.3288644576289
97.316870952773
97.3179287725526
97.2921146967393
97.3098694935412
97.3996361610806
97.4003629459925
97.3276322910927
97.3054980395052
97.2574872734353
97.3091425306986
97.415741295659
97.4367484830667
97.4591666697487
97.4552298556036
97.4340512777274
97.4498395100111
97.4557879974046
97.4969951332513
97.5044454721737
97.5230821951836
97.5199899943423
97.5017334231045
97.5128115382262
97.5231652144176
97.5096909741057
97.5797205158585
97.5843605125252
97.6174783339987
97.6590919496612
97.5673822092507
97.5361588250838
97.6239296832209
97.6801865135565
97.6658528504081
97.6618315370661
97.6892743734908
97.688662975253
97.6822310577686
97.7108704093958
97.7459532628727
97.6800950999208
97.6352665316006
97.6551940908002
97.7237223898207
97.6821908985097
97.673810865036
97.6865495123448
97.694381653522
97.6718113711774
97.7045767163538
97.7844728001619
97.7983014724335
97.6916959225186
97.6949764237697
97.803599114745
97.8200144874699
97.8206616424155
97.8451855936451
97.735416338766
97.6461968981331
97.7151970541603
97.8021465173654
97.7839880147476
97.8263610041692
97.9121365379169
97.9119237818018
97.7881555239699
97.7393420303996
97.8170165227482
97.7977168919924
97.723297097046
97.7991779058299
97.8939563279318
97.8820960171667
97.8683119595434
97.9419347097727
97.9416052905069
97.8622813826403
97.766255501217
97.8107599605469
97.864860596233
97.8621482850316
97.7771410123777
97.8174973904505
97.8272148373665
97.8225660227593
97.8473608569774
97.7980382988557
97.7217823495136
97.7663983821345
97.8765093091927
97.8930069879304
97.7936691522933
97.7492276982344
97.7391071656921
97.741117817926
97.833100179305
97.8898240041342
97.819521075249
97.8035319054795
97.8092605715516
97.7751339784308
97.7809297989096
97.8028730048319
97.8025999593901
97.814415481342
97.7886655069913
97.7642250862327
97.7449332596574
97.7393415122594
97.7343021774797
97.7006685722924
97.7187225885987
97.7355950070637
97.7536988635991
97.7461291557526
97.7422256774222
97.801589644949
97.7656473988364
97.6888689722209
97.67930319384
97.6314785823211
97.6012235947234
97.6755250258289
97.659392898121
97.5951609746238
97.5535447588207
97.5190061509327
97.4248137718644
97.358733334626
97.3130853096511
97.2411570831036
97.2305716790167
97.3335878367664
97.4412953956872
97.5041147443061
97.477953869442
97.5127260304827
97.5871101136904
97.6746221622083
97.7842759920329
97.9159354281508
97.9451628739427
97.883555319806
97.9500862813963
98.0626490229368
97.9901198619667
98.0535950693372
98.078021127485
98.0224836097592
97.9945708187662
97.8866540385075
97.7787462299573
97.8889658931613
97.9464800827868
97.8597916856525
97.7984606399611
97.846747217794
97.9860308627403
98.1045478815138
98.111658975421
98.0594086719034
97.9409425362614
97.8682293256022
97.8315404365396
97.8550821194576
97.8820970967252
97.9237648873516
97.8691942082767
97.7567854863675
97.7178286777183
97.8207764470492
97.8848752901601
97.8838420951753
97.8731964691564
97.8763954683516
97.8530617066642
97.8958586867676
97.9904989384652
98.0545579157024
97.9837031833832
97.944500285731
97.9636972861992
98.0437566607406
98.0854204456458
98.1018838728526
98.0989419211788
98.1159889723602
98.2021889071809
98.3038463638327
98.3506238090822
98.3463002041071
98.3053721493975
98.3172911178403
98.3701332750202
98.4552746811319
98.5038990023607
98.507891896736
98.4018666972043
98.3072742637397
98.4258750271218
98.6158265854622
98.6875817612472
98.872707774544
98.8780616930236
98.7868983341292
98.7808365183364
98.8227575155131
98.8006344639836
98.8182164761346
98.9064496381555
99.044914378993
98.9586921587149
98.8797222689773
98.8994424703798
99.0383102312619
99.2124660472854
99.2522057047304
99.1770162121932
99.191127627564
99.2634232442747
99.3857858884397
99.2348163716835
99.1311531049291
99.1910462219887
99.3373683969401
99.3864050888543
99.3805146212891
99.2074812728032
99.2284001449453
99.5152224050415
99.5489534946482
99.5153340541772
99.69336294683
99.7222988344533
99.6133087986867
99.6111836475455
99.8978954591749
99.6995876527148
99.5874116411093
99.8034393547118
99.842036649911
99.9771767390828
100.293083897819
100.196924965871
99.8028417070842
99.4842343643506
99.9137729823693
100.504178242712
100.498528130919
100.1299200304
99.8545687420181
99.7178429842863
99.8702730725516
100.101880984572
100.507338098728
100.470508186618
100.269914325791
100.396175898921
100.56507312143
100.27338173881
100.212077038168
99.976437245678
99.4346424868246
99.5528998722617
99.9658285366534
99.6335862506954
99.2737395349697
99.2136019503472
99.2881166451096
99.2379546517278
99.1085816177822
98.9563898856825
98.7781596280934
98.6204784327575
98.6170667998982
98.5912352776165
98.4225433303702
98.3621609298952
98.4717340380243
98.5188470628245
98.6248204948158
98.7792296215719
98.8103317144413
98.7060410307163
98.6495462883143
98.4856678531159
98.5000281415816
98.6578603496647
98.7083403446487
98.532125881955
98.3454287772003
98.4295347445926
98.6778001025144
98.8114114261413
98.6697214600047
98.4255538059467
98.4738645625232
98.6296352011261
98.5780297703686
98.4269223891114
98.6077627093653
98.8822613885589
98.8728898909782
98.680475007441
98.6684478640848
98.7895579120523
98.7415114714401
98.5451093711201
98.6189086552127
98.7937174912455
98.8826468125252
98.9909772714898
98.9232389776584
98.7770810127298
99.0387491426071
99.3828904184892
99.5421447656071
99.4083118278448
99.4537097780133
99.768180852123
100.000964494868
99.8963586702645
99.8671106753042
99.9987336786754
100.132617125885
99.833186744667
99.6310555870803
99.8648781088251
100.236425275593
100.205830465083
100.145740569342
100.210447495582
99.9229965790563
99.6045956105349
99.7490744423343
99.9104683182745
100.044027491716
99.9538719448373
99.8156295841276
99.8010997403943
99.7671930774519
99.5172309517055
99.2206156522147
99.1653440261173
99.4863963953135
99.5777033951254
99.4100613285793
99.3823665336445
99.5100166304964
99.6579886306879
99.9486800244623
100.016887903564
99.868845532486
99.8032350673606
99.8453801328914
99.5817518626886
99.4587783157467
99.5004960362379
99.6801859834983
99.8480981998388
99.7352642468339
99.3664556254328
99.2089329904119
99.2515991907406
99.2436672129718
99.0088224419218
98.8993843041626
99.0484192823629
99.2171314259231
99.0922209195635
99.111465930468
99.0625726388089
98.8704275421382
98.7422405259736
98.7275669482531
98.6980861691036
98.6913505725698
98.609392623664
98.5200332276487
98.5753608863509
98.6686131922228
98.6875173875587
98.6640389435786
98.5239941236349
98.467306392766
98.4531762526646
98.4225845077254
98.4674292612251
98.4676282444097
98.3403035580627
98.2740400644071
98.3654025947761
98.5031184442982
98.4642136734236
98.4013275866842
98.368557761224
98.4304730808103
98.5115413477929
98.479441030462
98.2910011458328
98.2002590378634
98.1825584035732
98.1571752423463
98.2379998834648
98.3783651245573
98.3549317491639
98.2262407142743
98.1191838986552
98.2001678681604
98.3556719791494
98.339779024307
98.2478830666179
98.1629383500823
98.0573584834782
98.1300290573745
98.217634778497
98.2230932024682
98.1680830075501
98.1825302257833
98.1603848550758
98.1030027917614
98.1058482703668
98.2004637939394
98.1679864712489
98.073416430862
98.0152088313017
97.9893751053167
98.0635488286757
98.1101423896445
98.1009224052617
98.0863780745416
98.0832262565269
98.0652571092413
98.0030905527518
98.021030424969
98.0249511131144
97.9492845982473
97.9925442755809
98.0097627952481
98.0512117130278
98.1481563442149
98.1322966149188
98.0372963880163
97.9475064679697
97.9263036709601
97.9822100828564
97.9769881802354
97.9042970078914
97.8695622215065
97.8930439160208
97.9341180667382
97.8992507603094
97.8293077803241
97.7779758076845
97.7968824741238
97.8343222239052
97.7890071361675
97.7903210985556
97.806427608008
97.8231109205645
97.8032832224843
97.8157389773531
97.7086867665031
97.636519683528
97.5784841544376
97.5821314766705
97.5533690517532
97.3800096007118
97.0553691764435
96.6092120468616
96.6549869929677
97.0274129029255
97.2534697838544
97.390700282796
97.4827483845643
97.3657447493953
97.3356228918939
97.3755948103456
97.3756309315934
97.3480470520979
97.341298998152
97.385789935511
97.3427403304268
97.2594564650666
97.0762704169885
96.9398432920742
97.0441273167382
96.9677994381487
96.9294293897045
96.8834970865693
96.851150802325
96.7087575135025
96.4857953444423
96.1589029565597
96.0460300169691
96.0343255306145
95.9443926531583
95.7865918342775
95.5876928641247
95.4238398872006
95.2296084854754
94.9657669118446
94.6486257120407
94.2034886487774
94.1849836763451
93.9581449329268
93.9222779453277
93.9174332762514
93.6847587336814
93.4554608734952
93.2266113424589
92.8682710999547
92.8129294482419
92.9410829396031
92.7128362531039
92.5603882641058
92.3642863827415
92.2853286839783
92.1610764249493
92.0050148494666
92.0372227193241
92.0342647341122
91.8417666433065
91.7479146753767
91.8836393477852
91.9048134789013
91.6851715460293
91.3783149630692
91.2156208246082
91.6510359621075
91.6472106400249
91.2822741886855
91.3862077901397
91.64722980017
91.6510638405654
91.5426702360847
91.3682324477197
91.1468009358807
91.2780924614055
91.54331536645
91.4991396255618
91.414153328014
91.3805757636621
91.3931933595553
91.3830647823881
91.4678775528922
91.4179878298996
91.2556338774444
91.2954540356236
91.4977218504487
91.461985456396
91.3857869392598
91.3719002478032
91.3927505177194
91.388556002356
91.3680418405429
91.3862829127173
91.3655538268808
91.3224057579211
91.2931909834133
91.276511607835
91.2373196154681
91.2036292987218
91.1724817416436
91.17321396829
91.1560222751729
91.1609894962331
91.0911338376802
90.9537003433792
90.7478254438846
90.8378736620491
90.9265477554988
90.7307139332878
90.610738123214
90.7777072260838
90.819180720868
90.701106889433
90.4514624390218
89.9547789701428
90.0184408888114
90.4092295812873
90.2977395462357
90.2427986632766
90.2498330659488
90.2054344449157
90.1901827714491
89.9735621015422
89.7299925907287
89.47235465748
89.4960388384231
89.6723142612677
89.6015196244384
89.3178540318365
89.3601770756613
89.3698713391612
89.1872878464569
89.0219573120865
88.8895567323896
88.721644317035
88.5255720551868
88.5888175536787
88.4499633842916
88.4374097024592
88.4613683573501
88.2564683176045
87.9565139327256
87.5804782417281
87.6687992616724
88.073699153468
88.0278354445937
87.7727997781797
87.6169706314463
87.6186812076091
87.7200987494585
87.6678168238323
87.3898617834429
87.3350853458945
87.4776544973204
87.5299601315539
87.5388613740203
87.5113927106464
87.5054909106236
87.4236482237395
87.2028531088387
87.0274471195401
86.9760398805754
87.2027911790473
87.1997140293148
86.9613071861632
86.8015666030276
86.8410054679173
86.6944629283606
86.2579404019407
85.8829690032817
85.944568142104
85.9808587281676
85.5980527558441
85.2141654248788
84.7591718125959
84.355601201615
83.9627880140357
83.5299423458334
83.0144337935038
82.4541284764555
81.7579741947485
81.2598205566171
80.7824086407139
80.3598489205894
80.2169312288884
80.0573160813691
79.6467357261012
79.0320990325684
78.4544801379501
77.7818566300748
77.217489993904
76.9318804400328
76.437968824675
75.8821519873791
75.3455527714145
74.854006320828
74.33050323681
73.8147132527055
73.3783822886393
72.9436650868231
72.3543244585448
71.8644302915622
71.3830382764977
70.9336401965728
70.619471366931
70.1507847004253
69.5612252663501
69.0860937384744
68.7485294384402
68.3253711955799
67.9064869150928
67.5768797854155
67.3033150433022
67.123736984665
67.2435539531681
67.634756017261
67.9633437066547
68.3448139300047
68.7377997921989
69.0142837090379
69.3837130452448
69.9394168018076
70.3732882863724
70.7146673431689
71.0697482274103
71.4744536330375
71.925917428832
72.4547344563608
73.0220402095313
73.599873409719
74.1529940416385
74.6693692961753
75.1970365251092
75.8598032042487
76.4871145316334
77.0063763502174
77.4830534539105
77.9589551286283
78.4074188305823
78.8450272910269
79.2830525229793
79.703236322574
80.0883448899867
80.4685113949918
80.8656372886794
81.2467677804408
81.5822167547184
81.9270741105633
82.2512948997693
82.5441053524482
82.857411651276
83.190731312011
83.4681394792191
83.7154700927418
83.9763123744847
84.2467483018147
84.4965567792661
84.7281774923372
84.9579663244227
85.1822674858746
85.3634628042568
85.5518282465289
85.7478196403769
85.9411132841259
86.1235345443081
86.2963844537896
86.4671602667354
86.6311414039791
86.7824237066192
86.9252739750807
87.0734727910248
87.2269654684331
87.3426006616267
87.4441322941837
87.5508900584629
87.6739479590588
87.7895818951987
87.8891946683403
87.9887816781322
88.0808884980089
88.1575715046968
88.2663441797419
88.3889326963956
88.5217085828659
88.6474144145484
88.7281443278535
88.8082810611508
88.9294381341778
89.0457161571845
89.1522243963746
89.2429506826463
89.3110811538501
89.3598946981609
89.4092808815071
89.4599452015035
89.4885540008383
89.4877594394969
89.4909863423635
89.484366334313
89.454607182798
89.3761130880845
89.2693897466246
89.1535998265613
89.0116887431901
88.8361035899651
88.6410182098587
88.4039513879188
88.1581682726958
87.9023171542176
87.6138941141948
87.3042300275651
87.0165038523591
86.7345560399967
86.458317228356
86.200557885231
85.9488377041455
85.6911141763565
85.4564504944539
85.2217403940845
84.9848179262712
84.7591586659891
84.5312596756674
84.2751440845507
84.0268465808122
83.7621288685498
83.454241341089
83.1486639883069
82.8740103849117
82.5724831480777
82.2382725732957
81.900426386623
81.5584006198897
81.2138395343983
80.8970516475359
80.5763432836004
80.228094824471
79.8731140585643
79.5585463181707
79.2410224637619
78.9208570742083
78.5672588377234
78.1825795380098
77.8098708311098
77.4292474566277
76.9978916369834
76.6007274137571
76.2657843644265
75.9794571758878
75.7169160518482
75.5325390902392
75.4265201999937
75.3288925820155
75.2195968303967
75.1350630687348
75.086778850225
75.0848305713454
75.1218106800849
75.2363058691042
75.4355967770013
75.7268829493208
76.0533367266958
76.3869729746361
76.7153513662051
77.0864638138199
77.52189554992
78.0155053719843
78.5129350114301
79.0513651916932
79.645555682044
80.2114323398812
80.7228674519167
81.2385186979277
81.7486746204956
82.2487955136426
82.7265004119976
83.1819661447501
83.604317188974
84.0363273814729
84.4336572874076
84.7843615294352
85.1057356290345
85.4109880949541
85.6681569717758
85.8574143897601
86.029648136084
86.2341178425893
86.4133346578905
86.5306563054856
86.6738894024811
86.8916189728841
87.1177394181144
87.3303792431785
87.5358854058499
87.729283746189
87.8752645418007
88.0251889912104
88.1671162272141
88.2817098760721
88.4182819229944
88.5644673556558
88.6766711279476
88.794125203732
88.9023192794926
88.9901317718594
89.0566115195213
89.1435100397378
89.2644618899775
89.3609692138573
89.4033654680102
89.4443178255898
89.5157341779575
89.6082361663828
89.6704294089421
89.6833251832438
89.6851703051684
89.6993407637748
89.6857698529928
89.6330339636243
89.5431964283284
89.4423610122428
89.4402290080414
89.5979384303232
89.7819200814344
89.936692493565
90.1394935834
90.3796777473888
90.6060870052311
90.7852932156454
90.9116370982375
91.043581196588
91.1702422180021
91.2722896967705
91.3296525372002
91.4008347528378
91.5047703379211
91.5810396282633
91.6376825472758
91.6875447726949
91.7340420607964
91.7938472385338
91.8758544549719
91.9413995791595
91.944379133798
91.9576824729288
91.9987529589292
92.0528087528721
92.0940013341476
92.1138814659023
92.1343478632699
92.1663744504554
92.168225735836
92.1963530837813
92.2117293854203
92.2046739803533
92.2164588338618
92.2621554141279
92.3012183858661
92.3066144050987
92.3241996013463
92.3555060576133
92.3594765449439
92.3651736115103
92.3732674592874
92.3701561300283
92.3658270545783
92.3866104926907
92.4046847105196
92.4057761448263
92.4027332312108
92.4162158347207
92.3852598546703
92.326286021823
92.285453011651
92.2120653028926
92.0956085167341
91.9499318930679
91.7523754116255
91.5597527942683
91.3157209723662
90.9826488075643
90.5991699386825
90.2094061108602
89.8874664882881
89.5953670197324
89.2613105799069
88.9318673362199
88.6838933185981
88.5676864667361
88.5177448433457
88.6220969583061
88.8396765997269
89.092360527099
89.36923845523
89.6826371294665
89.959385126169
90.1444858798018
90.2538195203851
90.290517325213
90.2207528758035
90.0887023107184
89.9652613482031
89.8309797129537
89.5801522527054
89.209515151238
88.8100284133988
88.5756395918852
87.9654738226555
86.020545881359
83.5722582831037
83.3446776478273
85.5755599584166
87.9696132612436
89.4133636817429
90.1838250677748
90.5923989212477
90.8221248991917
90.9584112430999
91.0823329896306
91.1735278777268
91.241334987055
91.2627443349652
91.2641793940733
91.2760927656031
91.3107672826042
91.2906447104925
91.251568403628
91.2419149326414
91.2369793336804
91.1833517655653
91.1687388539914
91.1763924898393
91.2019396248799
91.2479364586117
91.2650373237068
91.23818403317
91.2204543583578
91.2308445974498
91.2398083791565
91.2047716149709
91.2056865203941
91.2145524817087
91.1724341799995
91.1317772569987
91.1355485589152
91.1211072783374
91.0780111552412
91.0747767274296
91.0915909157396
91.0450055661223
91.0092555411192
90.9990424427391
90.9985714703383
90.9900482764459
90.9580463992289
90.9210850404492
90.8819816820316
90.8202684316273
90.7855935309533
90.7243810120587
90.6963544216467
90.6704509347102
90.6391559025677
90.5729399126345
90.5204700621275
90.4871996020132
90.4172122360458
90.2562600194819
90.0866023693989
89.9829808035725
89.8952764356095
89.7283807112591
89.594774283145
89.5044377645674
89.3959529676032
89.2819643787039
89.1970334319002
89.0880025495279
88.961191069764
88.9004970731287
88.9352602098179
88.9692415317905
88.9853746840609
88.9709158889904
88.9551225380422
88.990081147241
89.0420982573048
89.05606087261
89.0955568020122
89.1716029283614
89.276690307454
89.2956501795305
89.3149573291385
89.214265242946
89.4396688243635
89.5998896171723
89.4566977851747
89.4181138331613
89.3840054499459
89.3491033615623
89.3145202533915
89.3053409818083
89.2502828692579
89.117297550887
