1798
3999.43349933624
650.420452594757
1
128
4
97.026203138616
97.1699517788903
97.122779024
96.9271063339296
96.8534092795746
96.9171147953258
97.0309471763157
97.0230858521289
96.9169514633212
96.7969280840235
96.9400918020592
97.0304575617865
96.9761835964894
97.002540010415
96.9488379392495
97.0345122833479
97.1283564931883
97.1661075114023
97.0421868653802
96.9178923685297
96.9548065030984
96.9869934116217
96.889422899804
96.9377165628307
96.9907196022109
96.8308801092279
96.7102302013964
96.9177483582193
97.1535757496316
97.0338455034624
96.946053396808
97.0176509501846
97.1142581340263
97.0822568354917
97.0011408994424
97.0138833183615
96.9639493449459
96.94981016848
97.0711495052945
97.1049279918229
96.9901052525008
97.0575757919902
96.9224868764408
96.9132162249136
96.905658226923
96.5976157412101
96.8118469785817
97.0778148069166
97.0744067839951
96.7163833813037
96.5580815993617
96.9184574128881
97.1533316281488
97.3030414055564
97.4532622954633
97.0427864348841
96.7202822541831
96.7998658134256
97.1237127477682
97.238160367523
96.6301939529146
96.1850361163673
96.662044502188
96.876349342172
96.8784199182656
96.852150525454
97.0941647464687
97.3214952888509
97.319998067965
97.1526158140706
97.0468287657548
96.9211361988967
97.0093593212775
97.2471483155116
97.2287527896444
96.7588967652884
96.5248004596643
96.890375518616
97.0537005274602
96.9888447249552
97.1735749680972
97.2827418956324
97.2454185282603
97.0612250855278
97.1422850171117
97.0265900116052
96.9020777724507
96.9753167013237
96.9927513519217
96.9928910776207
97.2112890226818
97.3393071425387
97.2124388479932
97.0835950071936
96.8688450896124
96.7920510856212
96.9388026190163
97.0006446164998
97.0608406728004
97.1414481376204
97.1357029415802
97.0178604583318
96.9818201919783
97.0876118627178
97.0301547644852
96.8653860634788
96.9232614500112
96.937217028768
97.0523485349904
97.1881737838902
97.2525406813387
97.2741483724781
97.1605960259892
97.0500569198303
97.0462462950189
97.076129255961
97.0507747083717
97.0043212126067
96.9876881355152
96.9614465135075
96.9467337849415
96.907360328564
96.9481711170442
97.0128664648884
97.0088414203136
96.9845023068336
97.0182825145904
96.9011054631776
96.8616744544935
96.9725416662194
96.9062785339061
96.7380284301364
96.7883140516218
96.9552956014396
97.0931173018953
97.0200077620437
96.9617522202148
97.0600918969501
97.1278680304853
97.0710229530294
97.0061589476449
96.9017444092799
96.8980295961076
97.1030819410004
97.2228123263438
97.0565171130254
96.9498241998176
96.8976874683429
96.9048557217983
97.0443904417646
97.1220143852697
97.0612905375984
97.0439905174482
96.9600208191621
96.9305883731009
97.1647743988927
97.2842976494531
97.1882930209054
97.1181050901873
97.0907231798736
97.0404564005337
97.0820921208607
97.1613733439808
97.0907929418661
96.9696911483022
96.8581054075957
96.9110365078809
97.1595733541702
97.1855990024143
97.0751868288992
97.0358363862009
97.0254249661603
96.9131852748432
96.8689120510001
96.9471690326835
96.9659103022832
97.1967598452191
97.3571666652959
97.2182062931488
97.0706111307426
97.1150442636422
97.1952495872758
97.0846191840196
96.8956932369133
96.7725615076875
96.691063556797
96.7114755379495
96.8445872924702
96.9749267075252
97.1152489721639
97.2209000931764
97.2723629984192
97.07002683653
96.872849207968
96.8660058451139
96.7231672921198
96.6462468986882
96.7013492617788
96.7265942311949
96.7850439031155
96.8418328441225
96.9059549840813
96.8144550148828
96.5592306189502
96.4988512649375
96.60026958267
96.6016927378251
96.5621451633967
96.5430899199471
96.5761705476741
96.7340658340356
96.7729360880029
96.6025051873998
96.38158391459
96.3353754406115
96.374457555677
96.4940325506904
96.6163534184492
96.4691423774846
96.3822409093257
96.3054035126035
96.2090254427558
96.3807571283904
96.4951285094386
96.4567209651403
96.3549859280535
96.2958127872964
96.2762167629588
96.203713223287
96.1366341309478
96.0429202378088
96.0417474084364
96.1783194768967
96.1892330005002
96.092773542843
95.9953344625857
95.8792059389759
95.814898165257
95.8896269014209
96.0473427507982
96.0072036911586
95.9283425720125
95.8631837805063
95.6988956822846
95.7094077888058
95.8261841485405
95.8442552026804
95.7452568273393
95.6872084879786
95.6412941996912
95.6415581938238
95.6627664345503
95.6627322247528
95.6708195608497
95.6682540731969
95.5920884188852
95.5981702168204
95.5687843511114
95.4369172383968
95.3566263525883
95.4314678488281
95.5223677279291
95.3890366206495
95.3013688755496
95.3786227270259
95.3156258475456
95.353351713483
95.4439786832814
95.3998587524225
95.2732160965202
95.2351723458959
95.1487743969513
95.1070094492752
95.144356027123
95.2093290002092
95.2517424350783
95.2096626611281
95.1725601969487
95.0571261203424
94.9629811353155
94.9791679652236
95.0098784437596
94.9919539290755
94.9192764804292
94.900383995229
94.896691556465
94.8666653163728
94.8866817864295
94.8948408241584
94.8147103152288
94.7610598146891
94.8405686325168
94.801590030237
94.6506259376511
94.6448557280724
94.7551508485121
94.8186056479417
94.7517970955512
94.7640030581642
94.7665078776742
94.580347355469
94.4477925711786
94.5298223024556
94.5885736320022
94.6179798396326
94.6237629420315
94.6481149184418
94.6345731123965
94.5611676460556
94.5355882007983
94.4668943233817
94.4001229518258
94.3747351814526
94.3593820799938
94.3216961247672
94.2847171611022
94.3839426632911
94.3880402803131
94.321922249695
94.2812771041925
94.3560534286338
94.4064843518578
94.2876410327146
94.2815247279221
94.3029913381519
94.235103506899
94.2104474673536
94.3029510503652
94.2907709037849
94.2148900933493
94.1438960413382
94.1206181371655
94.2008174133381
94.19718240262
94.0593238610471
94.025836693209
94.0860705415819
94.1250635835025
94.1168217998207
94.11844680032
94.1778425738594
94.1297587049885
94.0075400281732
93.9232824019356
93.9608682232621
94.0931526570684
94.0990658905255
94.0442560430259
93.9328696075115
93.8452885991216
93.9632522998519
94.0525547762641
94.1121295130126
94.0846122563382
94.04300739331
94.0547862266587
94.0312682528761
93.9971980145585
94.0378709631088
94.0092064698238
93.9429188551634
93.889995607836
93.8181352735194
93.8832631051029
94.0197094754993
94.0306515044568
93.9182448552111
93.9166295973693
94.0276095386708
94.0552866399846
93.9686278991926
93.9857442488282
94.0362323045627
93.9194977072327
93.8557511127825
93.8963526031698
93.8736796977078
93.9043474422218
93.9707545306041
94.0018052865645
94.0212251150563
93.9874690425226
93.881022659118
93.8561447090289
93.9435777580399
93.9561175016286
93.9403893899609
94.0078866113966
93.9080512223479
93.7959910905372
93.9216238467089
94.0108318058241
94.0050181167037
93.9538325699384
93.9732265109841
94.0262842935896
94.0072035811696
93.9836327685871
94.0151922514924
93.9290457910509
93.8512007352475
93.84323948272
93.8795723466206
93.9664171656054
93.9484699233462
93.9305695984733
93.9806680116245
93.9033443675018
93.9092189567754
93.9933631335364
93.9907407793665
93.991697421912
94.0769019096395
94.0902242849391
93.9951129078329
93.9378201456653
93.9538926952186
93.9505267087305
93.9582049875735
94.0040479951035
94.0173242054233
94.022239968497
94.0275255695474
94.0127722703226
93.9583256096299
93.9239376435733
93.9752152363217
94.0681682626753
94.1302299751362
94.1150457383193
94.0061955061817
94.0774362367338
94.1977747795436
94.1972946260603
94.1282501950888
94.0225795159456
94.0364055280738
94.1377792367109
94.1226637011699
94.0885152249936
94.1273353840317
94.128894667923
94.1754974002532
94.2543056820286
94.3110135680486
94.2677615455305
94.1406716863757
94.1012706157708
94.1623099445727
94.223377272961
94.1923278060238
94.1972997715204
94.2971518724985
94.331083332999
94.3318719961679
94.3031903022646
94.2312231506443
94.2561422753626
94.305590391332
94.2808705357922
94.3076491878331
94.3955501297283
94.354574474466
94.3329777254783
94.3784222305272
94.4134185194665
94.4216138764691
94.3783073757305
94.4170517193955
94.4223049196414
94.3408950326997
94.3501592618755
94.4666501786201
94.5093827536061
94.5266398868324
94.4713403394879
94.4573043736512
94.5002597682051
94.4566400613237
94.3863589066035
94.4009441328639
94.4273790744816
94.436501480573
94.4685746805258
94.4865707691554
94.5440430845037
94.602580862845
94.5349763705278
94.4621007957332
94.4493748361331
94.5423417088748
94.6513282932443
94.671431603731
94.6155362876001
94.5605350462464
94.588415410493
94.6651615848836
94.7142911109154
94.7289506908881
94.7013262955874
94.6636591732
94.6809292436275
94.6790470689747
94.6248201492981
94.6635375200734
94.7165258854351
94.7336525839778
94.7468147412795
94.768431524315
94.780275988811
94.664357856941
94.6817700432743
94.7955290969674
94.7887265687293
94.7425461130094
94.7342185677774
94.7341544846243
94.7645806256632
94.8330483027791
94.858868711363
94.8351698951268
94.831839717814
94.8325958576745
94.8241386887599
94.8384143603904
94.8564560823739
94.9012667602453
94.897830307162
94.8611405249965
94.8918085467164
94.8953954774108
94.8697220657221
94.8865953711676
94.8923224958685
94.8996295784602
94.9323857742898
94.9128930948907
94.9046270672881
94.9333919839807
94.9215666950057
94.9415560392242
94.9422228868642
94.9646270261361
94.9701010421541
94.9217528697642
94.902787736561
94.9188986444413
94.8467537592865
94.8143510642969
94.8653014641631
94.8750190307183
94.8580310336693
94.8294720618888
94.839156974875
94.8544094645201
94.7931964077998
94.7858589045339
94.7897746290548
94.7409551332387
94.7669095310686
94.8085423295508
94.8229916619501
94.8382381612437
94.8213628125096
94.7796696010486
94.8269707798118
94.906538378679
94.8737306113433
94.8040968662236
94.8161939154851
94.8516133965067
94.8628181205069
94.8408461748713
94.8435477311637
94.8866712443682
94.9065826188159
94.9020620992548
94.9066898034113
94.9278390037345
94.9595375634346
94.9679221502824
94.968815335855
94.9892222551022
95.0205964428365
95.0307357900999
95.0149850485553
95.0548808385363
95.075655149117
95.0772362517092
95.145461846209
95.1884790282014
95.1661326834951
95.1794476515996
95.2222587674882
95.16810784784
95.1403345224471
95.1989653984566
95.2306984658223
95.1798820448967
95.1918570881803
95.2661552738075
95.2595951753798
95.1817975171581
95.2007730143974
95.2793098532704
95.2829846594183
95.2565433844512
95.2562951901668
95.2373835199469
95.2212918414171
95.2293268742596
95.2982922601923
95.2875996359346
95.2608353005447
95.3065472090303
95.363453334551
95.376298094849
95.3840781082473
95.4256573044565
95.4703098065188
95.447049483167
95.4114971798944
95.4574168707908
95.524729237234
95.5481723053085
95.5798267355719
95.5672358290733
95.5085134017839
95.5106919700193
95.551856568465
95.5750298567004
95.6171747135953
95.6313016404052
95.5914351370144
95.5474751555161
95.5574532625072
95.5910973923675
95.5999089200042
95.6171559700112
95.6218059100015
95.6103982131811
95.6222846891026
95.638451528106
95.6595245525496
95.6952266042828
95.6972038836394
95.6487283980213
95.6149587404015
95.6353384161938
95.7143112618407
95.720978135138
95.6676888170109
95.6382505517071
95.6336625050754
95.630856312306
95.6193774536062
95.6407127202765
95.6821534905292
95.7071386786835
95.7225814519428
95.7381720887202
95.7391026580073
95.6721442074939
95.6158670351167
95.6566675940733
95.7137197919166
95.7150183321045
95.7377151257371
95.7385880140778
95.6969600857718
95.7325689950277
95.7839591978208
95.8180380442835
95.84187168211
95.8049204652558
95.7530293631509
95.700371244717
95.7007273339019
95.7387823892545
95.7357959970774
95.7377690579369
95.7565917842166
95.7929941027058
95.8379461078839
95.8182486948355
95.804003245866
95.839982646867
95.8992207476314
95.9342545266462
95.9079810276315
95.8871145697591
95.9217563988165
95.9304948317068
95.9300068116714
95.9376949220044
95.9491316914717
95.9086502380383
95.8865934927477
95.9567690878928
95.9898014790613
95.9949258986122
96.0085081199498
95.9822436486811
95.9746878599621
95.978689164189
95.9956179074649
96.0092811087844
96.0194776627346
96.0369886906236
96.0266842592421
96.0136315114094
96.0337407846971
96.0741775683184
96.0568720624697
95.9823065441299
95.9610613404392
95.9802471296422
96.0059938465954
96.0277440511598
96.0024705505032
95.9977942838302
96.0178631974415
96.0071465243384
95.995429038527
96.0010358505972
95.9756192713732
95.9340821711926
95.9393083990453
95.9668672296432
95.9972694278195
96.0529738780504
96.0713482185959
96.033088917771
96.045332257707
96.0975903721146
96.1339675063555
96.127276862931
96.1445501487695
96.1641486217988
96.191682982284
96.2219820895068
96.2154303404236
96.2074433173595
96.1905904289679
96.1771637187627
96.2153030425065
96.1922320823023
96.1501204644452
96.2413963841332
96.2930024638224
96.2820377682634
96.3127801515319
96.2619220619227
96.2208795086177
96.2462642670859
96.2903833292335
96.3478146305781
96.4074449302386
96.4284526134392
96.4064645547616
96.3879948706686
96.3954997628196
96.406207785987
96.3859246560584
96.3946937584534
96.4853267569432
96.5453683764392
96.5512301780372
96.5135994662651
96.4701124901762
96.5130012892648
96.5222225228878
96.5661430827307
96.6176825003103
96.5577308327528
96.5948036813119
96.6047315474841
96.5701403776243
96.6163658019075
96.659091504576
96.6742445195401
96.6680246630713
96.6295981771159
96.7041108951531
96.7843664625576
96.761716999186
96.6724652542069
96.5607417264302
96.5378454769954
96.644445700617
96.7061313322115
96.661909739886
96.6514968859247
96.7255855047083
96.7646313928699
96.7452012248661
96.7306806540777
96.7713156042376
96.8397389752394
96.8276766580621
96.7738126205059
96.7716192851086
96.7458085369443
96.701253977004
96.699380557008
96.6971212352254
96.6922040833078
96.7203034520593
96.7400955428287
96.7601495839608
96.7380123962814
96.7071160203303
96.6946946090974
96.7291260375251
96.7442471330862
96.7333376581881
96.7070456500185
96.6274581604684
96.5678276999897
96.6388451912594
96.7356645114971
96.774035777426
96.7973415646314
96.7726916734879
96.7429077122656
96.7921692136137
96.7920484535423
96.7329992869085
96.6926679775429
96.7190852106832
96.763996025824
96.7580728586335
96.6711542286652
96.6468818949857
96.7311163632726
96.7334848467963
96.6945781503236
96.7263580467353
96.7555005401867
96.7808726570758
96.7277558413507
96.6552417630952
96.6117296798352
96.618413207082
96.6858542896955
96.7034254973674
96.6732422972253
96.6562882866026
96.6434832165408
96.6798191161161
96.7349228845022
96.6788778703426
96.5870621686663
96.5894693584228
96.6167572761671
96.6004421968515
96.5609324710963
96.5485019412174
96.4983721764688
96.3672301474493
96.2702086943367
96.2382584291893
96.2468968283974
96.2556266676117
96.2449861963062
96.3279768968135
96.4402620024294
96.4915763729499
96.5426155469092
96.5862844703924
96.6082845262786
96.6140835578112
96.6222391266495
96.6491666011218
96.68477100802
96.7921303959696
96.8048868955236
96.8123663834362
96.9489911804958
97.0693764705425
97.0962568638853
97.1071381946236
97.1264600880638
97.1480222102721
97.0921945747908
96.942096737695
96.8175383459153
96.7508315996514
96.7165639440126
96.7246299256374
96.7587092465096
96.7668974706981
96.7956319735968
96.8688945072671
96.8715598930109
96.8686285692336
96.9467778961845
96.921784553513
96.8244565360431
96.7500830213748
96.6338471361534
96.6408780081571
96.7203374487223
96.79158282605
96.8867189418519
96.9139174530125
96.9516252249034
96.9912277079366
96.9164658208452
96.9089320690237
96.947570322565
96.9151386397571
96.9794776804067
97.0907288359978
97.0227756798826
96.9437214786225
97.0198126137711
97.1065591426895
97.0991086591246
97.0989311321604
97.139161809639
97.176549765212
97.2283667098495
97.2681305968649
97.2277414267321
97.270499789817
97.4149558418758
97.5726722782642
97.6820035884482
97.6435804344595
97.6289706150549
97.7744462059282
97.7572904834179
97.5830965881612
97.5920994213592
97.7665461797436
97.9964530877741
98.0833284787451
97.9383188958176
97.7872612476902
97.8140811059796
97.9253620094572
97.9849245173347
98.0381786002499
98.0576015409046
98.1738317519196
98.2112067416321
98.1856806299187
98.3317592720608
98.415967961591
98.3632694513978
98.4737988595251
98.4648602619895
98.2428749088422
98.272193495807
98.5411194714063
98.5530896377225
98.3572542997435
98.4642836294478
98.6363388885008
98.6623009202688
98.7976054834223
98.7488933101448
98.7011215699742
98.7046120516056
98.624734581786
98.6297548977477
98.8173009496398
99.0890642528058
99.0628309661801
98.9602010801538
99.0678606816239
99.0480544334852
99.0712033388482
99.2037761954217
99.2777064987191
99.2282658741339
99.1666130826112
99.6600950779093
99.890950919242
99.4050458491022
99.3426733089104
99.3145705057007
99.2917947522175
99.7495667775801
99.9830478135626
99.9828902803011
100.403395023971
100.373468584232
99.890362387964
99.8429538412481
99.603896565202
99.1429376599154
99.0647188822331
99.0257102009376
98.9702888498575
99.0625131799427
99.014042483505
98.6160025550536
98.5595112560823
98.907307946023
98.9149300308615
98.6511396515882
98.4552449535122
98.3400843189698
98.2562551319845
98.1195386180176
97.8912083359714
97.7352677797959
97.6562697622668
97.6455192128311
97.8552479104599
98.0544025650932
97.9765903696078
97.8199738288199
97.7677183590787
97.7154320493472
97.801297589926
97.7852967688222
97.6135775194916
97.735120204913
97.9045735318272
97.8323993120915
97.826003500912
97.8791710598647
97.9500010792956
97.9793197714802
97.8763988146044
97.7645468981379
97.8060043518649
97.8240624529582
97.7060561370787
97.667445936495
97.7036161129223
97.7809774541288
98.0363715523073
98.1231072616061
98.0213126653658
97.9139760171806
97.8267658643283
97.9013461217345
98.0899459507662
98.3319790387471
98.3352393457244
98.2794693595623
98.404033175065
98.4581492530674
98.5540509962863
98.6264227881632
98.6732088168448
98.7936050067735
98.9620621223931
99.2885924882465
99.3802239140296
99.3083821673373
99.4387546052943
99.5166924116434
99.5037227880282
99.4748896891016
99.451266290494
99.3348426284036
99.2430154958881
99.1943154683912
99.2137687008261
99.4402032935898
99.4833090546898
99.4209599990226
99.3986417762242
99.3818201683351
99.4371092278709
99.190949694884
98.8698717999991
98.9465546703494
99.1285193812824
98.9247405870428
98.6739797391389
98.6525254868642
98.7438781337895
98.9994269043823
99.232264139546
99.244177470168
99.1650380534853
99.1183835725475
99.0885569507427
99.3498860576629
99.7909719832601
99.69122645569
99.4870225796404
99.6244809570056
99.5311672234478
99.2697143093153
99.0852676288254
98.9246384843073
98.8570175764754
98.8529184099942
98.9214522274325
98.8854069982794
98.8596802852769
98.7832470239516
98.7124675957122
98.6432059943038
98.5560342083368
98.6421474107617
98.670574517763
98.3960420112934
98.169478889092
98.1881480660286
98.2934529829832
98.3263876023825
98.2641323298919
98.1776574638266
98.2290413403856
98.2759745020848
98.123743625172
97.912641194109
97.8960145912717
98.0210255094639
98.0667497396838
97.96184544767
97.9153761549412
97.9062255180014
97.7879208902929
97.7511211818186
97.8252170877954
97.8663884152854
97.8622670684925
97.7916415535043
97.7017809909558
97.7348017459907
97.815678375835
97.7549898286627
97.7291262646219
97.8214182373203
97.8137684977411
97.6840738028853
97.6208411646407
97.6418157818771
97.6398749436208
97.6214403054568
97.578885339217
97.5779329273666
97.6618322473396
97.6842941658767
97.6791438120287
97.7145315984434
97.7233924549822
97.6697472404669
97.6345199994635
97.6610213188171
97.6237556084969
97.5722284589123
97.5964179617077
97.5705627338588
97.5443298182843
97.5362643508484
97.5157792202916
97.5018780747964
97.5402151781162
97.5371957768838
97.5174648943628
97.5595379546115
97.5521146104779
97.5051082930994
97.4504481119181
97.4193956442542
97.4426466282436
97.429965206934
97.4462411702455
97.5342649681817
97.552131165619
97.4996535970198
97.4500013039666
97.4060385323358
97.3715351287711
97.3859626081254
97.3990826916387
97.3554048357807
97.3390475048476
97.3397147878823
97.3034620102383
97.2869081635412
97.2888788482511
97.284030442038
97.2507367946188
97.2302047897854
97.2797942490515
97.2487567495077
97.1811053824318
97.1892434206255
97.1541994725853
97.0861481653377
97.0624012896214
97.0529244027807
96.9738724515133
96.9188104105155
96.9959222128187
97.094440626149
96.9947207876077
96.7669226466819
96.2657703778315
95.7807569675823
95.9144687109916
96.2583444959257
96.4663531009536
96.6586242060578
96.7206762306762
96.686702091478
96.7009590051211
96.754956574324
96.782018440207
96.751676253103
96.6688907581038
96.6179020699622
96.6082248910134
96.4835989896453
96.3439143353918
96.4714209942613
96.5091940798256
96.4100370942851
96.3206018038593
96.1731552584029
96.0297286407812
95.8580417585365
95.6102575244769
95.4328873091767
95.4796416177332
95.437438018453
95.3031342270198
95.1244161824482
94.8600049150921
94.5323689675608
94.2904793377465
94.0665710231697
93.7824162364335
93.6956348598964
93.5999153109422
93.4226449995722
93.4115891338995
93.1525358813304
92.8140077418622
92.5480763425284
92.2721651505527
92.098964003017
92.1487266510518
92.0544636399923
91.8973677626563
91.6728409023977
91.4056928349949
91.3501304695552
91.2488156830356
91.1677480093394
91.1763664556693
91.098013150207
90.9418491929746
90.8338920530521
90.7806633205625
90.6803330710947
90.5062597728195
90.2448415615353
90.3473149249736
90.7655553131139
90.6792537299308
90.5068944212189
90.584318329638
90.6334667306468
90.5805469112533
90.4749293088607
90.2497705425162
90.1091668803918
90.3704991459955
90.5350707377086
90.4437328401759
90.3399713942759
90.3056029889376
90.2770964449116
90.2695765325965
90.3507161737032
90.2929943473624
90.2199936506586
90.3646648551951
90.4727723033974
90.4364007371514
90.4034341507571
90.3559730274793
90.3321999704692
90.3124621541124
90.3006691713797
90.2862380739756
90.2821501394157
90.2444095088235
90.1955126248133
90.1633121380707
90.1441494759779
90.1239099120309
90.1005116043373
90.0677785110282
90.0134320826731
89.9762448467421
89.9427477913712
89.8176406301677
89.7159351119089
89.8752393612946
89.8911202426437
89.7637724229443
89.7696199216548
89.7798547527562
89.6972667602628
89.6181143737307
89.3609371383509
89.0510153451824
89.407361619953
89.6871316580939
89.6782847911459
89.6250348411908
89.456641225262
89.3114430573465
89.1011014324594
88.9086241916333
88.8669988058969
88.7722454314464
88.9228166262499
89.0720826307991
88.9096120040029
88.7106734127825
88.6842977524012
88.5441249073056
88.3228717840223
88.1745659487765
88.0557996658631
87.880015298887
87.9005196108743
87.9109748437046
87.7862180907446
87.7378775767453
87.5646844563864
87.3609273233035
87.1184372658186
86.8665114099412
87.1169828696433
87.3366960873716
87.2000987681547
86.9931267796543
86.805524445513
86.7457924862292
86.8162249357469
86.738881956775
86.5847236729661
86.5512540879973
86.60959840012
86.6665029145506
86.6138015885061
86.5230368656652
86.4429075500763
86.3182830391207
86.2147497409843
86.0976546531818
86.0722358452706
86.1932635391555
86.0923869449018
85.847074080381
85.659834519288
85.6027361991398
85.4371183866936
85.0950801113796
84.8492135229948
84.9313548886551
84.8221994765365
84.4377345552804
83.9226888634672
83.3368539537092
82.8442683360021
82.3349511557067
81.7741805791226
81.1894532613741
80.5881402738563
79.952051598535
79.4151870272537
78.8607264716409
78.476877820796
78.3326326893254
78.0458022948494
77.4933226625228
76.9039826954794
76.3239405668961
75.6584204273974
75.1226289882887
74.695604899955
74.144701597305
73.5597219563271
72.9594496864836
72.3903838545656
71.7983669840226
71.2449368041889
70.7487211008309
70.2086593006817
69.6011534410822
69.0817131765551
68.5418071292521
68.0597837121061
67.6200487554745
67.0805125294253
66.4812197559702
65.9599963067776
65.4792249430967
64.9780697265437
64.4713502920131
64.0433002465444
63.7379832132624
63.5798940068699
63.7316244634438
64.0843435320564
64.3940515637157
64.7852144529792
65.160112903587
65.4910605856091
65.9730579837585
66.545501522443
66.9886739269648
67.3666323958434
67.7395806056628
68.176260310393
68.669606571212
69.212713948834
69.7820038978834
70.4023103067214
71.0109050059448
71.5496620370973
72.1238506274871
72.8299803052264
73.460644548295
73.9711408391851
74.4241758544145
74.9066906698399
75.3807678068553
75.8502281081481
76.3166291816097
76.7696379794204
77.1737848720323
77.5673341953423
77.9724704547068
78.3687756791508
78.7345780758556
79.1000010368714
79.4531040264492
79.7651237630796
80.063757400149
80.3886327826575
80.6981135041662
80.9852688896124
81.2739456456928
81.5638176816327
81.823413194912
82.0869080206535
82.3485932570552
82.5841555606435
82.7871518160254
82.9974172078507
83.2074949918749
83.4074591052751
83.6119426763686
83.8293428588248
84.031976872571
84.2350108785503
84.4119619584206
84.5771384476147
84.7481361418955
84.908656872187
85.060718587272
85.2075605077764
85.32693507086
85.450527595709
85.5791942688972
85.7022526181313
85.8264121400297
85.9559768860618
86.0749779166264
86.1821175985613
86.294533634078
86.4138901797219
86.5326282835848
86.6705802283914
86.7840277499152
86.8891600596092
87.0024911492353
87.1071410505508
87.2010207274534
87.2915414700148
87.3680429576828
87.4333032366886
87.4804162291734
87.5063328468877
87.5225757259482
87.5399028805511
87.5161266347154
87.4708440061214
87.4259418433899
87.3365971131768
87.1873723478378
87.02620810732
86.8516541209953
86.6390196040566
86.4028473723114
86.1539740568836
85.8807892903215
85.5736635067167
85.24703180065
84.9537374143073
84.6669179765634
84.3880435810205
84.1217757751261
83.8684569206607
83.6104524168835
83.3603917845633
83.1312542718785
82.9079746302391
82.6827728783662
82.4407417604271
82.1660177334367
81.8797711766592
81.5396443238469
81.17179534809
80.832299598381
80.5090715466719
80.1540835724989
79.7652534247389
79.3713869712714
78.9730201892308
78.5640232435149
78.1830356554375
77.8106196175288
77.4379266933212
77.0613533283249
76.7262683449331
76.3856496894275
75.9712423511314
75.5269804852145
75.0920907415194
74.6144383127039
74.11510533033
73.5978935514828
73.0991244109322
72.6297236882356
72.214689422268
71.8817574077303
71.6376263072184
71.467554168272
71.3416550538166
71.2212959668115
71.1049189418693
71.0286713065345
71.0110192356965
71.024081886804
71.146608910595
71.4144345991439
71.7835410456231
72.1634472453674
72.6011866522758
73.0897605902571
73.5856795898481
74.0880146157921
74.6801314945856
75.3374739186291
75.9989045746493
76.643056331403
77.2778117570974
77.8812269211387
78.5007034107537
79.0994003879842
79.6638089763554
80.2136965788873
80.7582322149004
81.2803578659593
81.7573910506455
82.2173647750786
82.6369727960935
82.9841282631455
83.2961563703903
83.5656127062725
83.808805222272
84.0162217184842
84.2211764325399
84.4283158075677
84.5670865913429
84.7134822988032
84.9626397891128
85.2328897183972
85.4926910561949
85.7152076710561
85.9347227107589
86.1233207821309
86.2823608145691
86.4477313216141
86.5992494533307
86.7234939177878
86.8753074416431
87.0277481723971
87.137848249757
87.2367098600369
87.3584989249155
87.4935058396768
87.5861167937337
87.6521285943475
87.7492870504771
87.8509267227891
87.9461724872383
88.0204851696246
88.0677543539319
88.1219330815488
88.1818952805482
88.2005633895666
88.205357458228
88.1944593520055
88.1546751366317
88.0407965933311
87.9087010233393
87.892990891848
88.0366796352919
88.2084834492588
88.3619193133159
88.5792912581968
88.8639881620613
89.0929729930719
89.2611466935336
89.414260573537
89.5540916262968
89.6786126667336
89.7767965873414
89.8857934965677
89.9955709041083
90.0925451571607
90.1647025351904
90.235293653492
90.3340724018251
90.4215972348969
90.4746607014444
90.4969204775818
90.5264502672599
90.5987640742954
90.6540775147372
90.6715062327342
90.7202426247333
90.7438327379517
90.753104953797
90.7896294779642
90.8190238701822
90.846814084842
90.8939905297093
90.9230221823713
90.9571569890513
90.9961984739045
90.983603498085
90.9641531440416
90.9924613993618
91.0576982931246
91.112435481926
91.1086429233875
91.1141631720253
91.143924548817
91.1491567656165
91.1429023382812
91.1549454039019
91.1757108855028
91.1844478999302
91.145558252764
91.1470789006215
91.1563841135607
91.1154185050656
91.0453473878379
90.9517907914021
90.8788614461726
90.8015760303597
90.6022080888181
90.3332136556582
90.0320918212305
89.7186502618833
89.3689654492325
89.0185371257745
88.7259628850762
88.4250617873658
88.0333874849649
87.7125531273834
87.5092761103075
87.4009307532664
87.4052092772609
87.5308817145049
87.7007717207793
87.9026691264877
88.1730406042906
88.4605009676695
88.6789238450997
88.8811077312753
88.9752247965979
88.9766918259262
88.9068369481914
88.7913522693182
88.6647730358559
88.4968419172357
88.2177183764653
87.865395352828
87.5100420913573
87.2365050129299
86.4289689504373
84.1417359583528
81.3020623881816
80.8250042762153
83.1686581594685
85.9561809617228
87.7759790461599
88.7407259731126
89.2160724894946
89.4444667865754
89.5652655317342
89.7152244011928
89.8816312797434
89.9398592644874
89.9616016156461
90.0159329664267
90.0040382002901
89.9913109447407
90.0249174476973
90.0315621858867
90.0078771523417
89.96660741131
89.9252039044717
89.9348119398147
89.9819440922763
90.0324361713187
90.0707867137741
90.0751173849454
90.0465963024841
90.0374475866928
90.0033723418034
89.9908964916233
90.0118709039732
90.0200340842396
89.962967759969
89.9534299866426
89.9926883644978
89.9617364034477
89.9235321529763
89.9371981306516
89.9139613216964
89.8574220841241
89.794857885133
89.7963187816917
89.8389281122709
89.8341638539433
89.7721218714549
89.7587840848711
89.7134226879368
89.6314154187245
89.5713843818796
89.564208433104
89.552095865495
89.4905884240831
89.4552887424694
89.4160350463024
89.3460867736431
89.2997283861637
89.2190345005342
89.1363363110939
89.0108896197165
88.842463316078
88.7313956164957
88.6434628492618
88.5053174644729
88.3761889877684
88.2443589071535
88.1085025087359
87.9700675853175
87.8731051825669
87.7723844444102
87.6905160338
87.6511492271874
87.6768603331738
87.6646332785211
87.6821970223544
87.7022751710538
87.7010198168737
87.7071843518896
87.7204862763492
87.7416005429614
87.8158023830732
87.8648541962612
87.90883771791
87.9453166346316
87.9412472445732
87.8940133095239
88.1776185348132
88.2872551552319
88.2590106917944
88.2712032526652
88.1790481488523
88.090925525434
88.0389827039123
88.0560944091388
88.0533778293394
87.9509854015729
