1798
3999.43349933624
650.420452594757
1
128
4
96.2667727210547
96.2359421448815
96.2421864224904
96.3160858650459
96.3425986623193
96.3836454738249
96.3221923857542
96.2243214182929
96.3149825788744
96.4421284411642
96.3882313937484
96.3445882766224
96.3330620317661
96.4350175053391
96.4412612557745
96.3418834293013
96.2862139744576
96.267051091537
96.292873484155
96.3044946848932
96.3398037788013
96.3664615842628
96.3167269574107
96.360445164775
96.3655957963157
96.3595442667557
96.3925387143271
96.4257646791168
96.3951190651938
96.2869344839966
96.3129649754716
96.3602964565742
96.3146806584549
96.3128107560051
96.2587179022837
96.281595037256
96.4001820118498
96.3708743942859
96.3326550745225
96.3819431670376
96.404020002142
96.4452702997389
96.3691101090517
96.2662713039952
96.2968627228579
96.3903293675945
96.4160860275104
96.2877689247843
96.2790725978812
96.4138060054871
96.2842502567374
96.3232305177508
96.3889753217073
96.3352356503307
96.3080688414529
96.3916774670917
96.396174146938
96.3883513057785
96.412226466484
96.4106507915889
96.3712378187386
96.3846506660988
96.3535210539071
96.337269171787
96.3771190859536
96.3686427002131
96.3533807533316
96.3901040880467
96.3586934875906
96.4004382206596
96.3414322516155
96.3431959597869
96.5289102249198
96.5243146732083
96.3709792518675
96.3136924129253
96.2738132694196
96.3567843132473
96.4316247415545
96.4476265374438
96.3157422334151
96.268563082228
96.3809253444626
96.4218111240256
96.4052028503944
96.4607091885241
96.420234316748
96.3649699970323
96.3979355543988
96.4585623598035
96.461045974903
96.4022733060135
96.3967494826881
96.4509326252622
96.465718988135
96.4508728504577
96.4008318067135
96.4627525507762
96.5239088959843
96.538560854466
96.4886976754435
96.4206750238099
96.4248061715101
96.491113604857
96.4963442323509
96.4593330845624
96.468548495576
96.4417167534237
96.4569932071377
96.4260077450857
96.4497086504612
96.5558574479317
96.5188195304332
96.5053163478369
96.5739518265502
96.4929103472883
96.3274051655004
96.3306880342737
96.3472184848162
96.3701798771765
96.4465579148116
96.4700848286842
96.5363618006584
96.5040164867043
96.3858748003248
96.4744296929953
96.487793851548
96.4154790510158
96.4032279987189
96.4216585871776
96.4272675787653
96.4553302998729
96.4895123920631
96.5084553478288
96.4361900789424
96.4162666883582
96.3254315831735
96.3502672559876
96.5011183943682
96.3630914189624
96.325023257436
96.5428950175273
96.4707750290591
96.4206456697314
96.4184681865342
96.4644096953709
96.4938808714465
96.5046502951344
96.4264834095257
96.4040005464402
96.5098216141711
96.5955766683767
96.5502764529219
96.4065268057843
96.346522088996
96.4070515060642
96.3129443547086
96.4470553970445
96.6178243023742
96.5351875641413
96.4007653397979
96.4734722081852
96.5584186209686
96.5424030793228
96.3992879043295
96.4113528324614
96.4380380775481
96.4669190328919
96.5756377156313
96.6293907996787
96.6371437755103
96.5924919178527
96.5185493141361
96.4834293830874
96.5100745266939
96.4607250053899
96.24936405402
96.2270092681767
96.3893646816738
96.5981331305492
96.5359699393212
96.3679799612513
96.4090487985139
96.528643026228
96.4546472691998
96.2628605326707
96.2354681660914
96.2872316174023
96.3070225058328
96.3783094670911
96.2367930875785
96.1955731721138
96.3156151703111
96.3626658092587
96.1523639816081
96.0131285576694
96.0391676659259
96.0945815856772
96.0846097859432
96.1044001264298
96.0302997775605
95.9911374497937
96.064182173803
95.8847751726401
95.7261655918366
95.9337382242059
96.0116566584378
95.8707545931491
95.6184948280483
95.5626826343827
95.6736553827581
95.744168425833
95.7015148525189
95.4931665229321
95.4296093439566
95.5405928327961
95.4559915277831
95.4662492227382
95.5021908645241
95.4306444897695
95.3446801789371
95.2143115143465
95.1200684299128
95.1506253476723
95.1795414279808
95.2482553011714
95.2446279901982
95.2223464476612
95.0707653294647
95.0484455922783
95.1327928834813
95.1938750617319
95.0679928264086
94.9066051167416
94.9604198166962
95.0478621598038
94.8155576000281
94.6264182518725
94.6994005779403
94.7500042666017
94.8048655224817
94.7027598714256
94.5774955052018
94.6652647884294
94.6385407234732
94.5998478583097
94.4812702895158
94.4363242275413
94.394367564549
94.3406856357541
94.3552129923152
94.4071843185128
94.2768574628697
94.2255459307463
94.1613065179266
94.1865492813551
94.2368798168045
94.1851233721133
94.1290306709042
94.1122056722011
94.0250846650674
94.0222566254526
93.9486696913501
94.0277252691493
94.0938733068318
94.005201789504
93.9272950390858
93.8268957880429
93.7825936385184
93.8767077061031
93.8267091055538
93.7405707254978
93.6859304035122
93.7061259556495
93.6894411711437
93.6552202374608
93.655404443805
93.6679715222526
93.6140893267015
93.611229014642
93.5610420043757
93.5342857355684
93.5346857620691
93.5246157357394
93.3650291627662
93.2849324676816
93.3106338016522
93.301242790873
93.2547920255119
93.2130080229642
93.1730728444023
93.1533038483128
93.1669475925076
93.2378869767473
93.2282163301313
93.1458859246607
93.140066164422
93.0510828671909
92.9482561862077
92.9885346544175
93.0581166126448
93.0114758075602
92.9326030856177
92.9504156926529
92.9563481646477
92.99360052168
92.938552387169
92.9090961317227
92.8630187597659
92.8381300791587
92.8465887941854
92.813511549513
92.7606198860774
92.8173352998307
92.7584485283573
92.6717189572957
92.6033615280492
92.6736449471045
92.7229588696716
92.848607037855
92.7805942110489
92.7136264062716
92.74438024165
92.6442909196406
92.5355738402525
92.5603796566939
92.4794131361296
92.4778492997216
92.5451665788775
92.5078692633748
92.4647044385247
92.5341081907601
92.5241907700085
92.5267525748116
92.5160896846009
92.5360117412013
92.4681111607217
92.4193046236413
92.3785355689487
92.3856820525246
92.461540160692
92.448941332361
92.4099302677706
92.4771236786492
92.4448565671406
92.4598025209987
92.4512192030585
92.4135124881993
92.3728066112273
92.3837917633559
92.362513742253
92.3736911289432
92.4029500202241
92.5208134426837
92.4721902406564
92.3674950671953
92.3702247135503
92.3722525373134
92.3762720485952
92.4161521783291
92.4159845214461
92.451114834589
92.4673300941147
92.4048606238537
92.3903722276356
92.5103417103208
92.5294428710976
92.4829854840535
92.4040990006246
92.4113475854664
92.4441055907262
92.4327522024369
92.5111451978549
92.5630075482226
92.496475394309
92.4784600418579
92.5101664929216
92.5320815433082
92.4855889811501
92.4966745992284
92.5264498029314
92.4839781777229
92.3937618168479
92.3934942437822
92.4038891310583
92.4352089022418
92.5128516551701
92.4910854825056
92.4687647067891
92.506827764125
92.6181051558213
92.6553440549974
92.5218517170093
92.4823796936355
92.5086888746898
92.5266954674797
92.4369058758135
92.4319708459968
92.4658731814996
92.4298464300214
92.5131507034478
92.5548720915987
92.4709249753266
92.4938494084433
92.5103009697829
92.5311552679189
92.5412897203448
92.5628254613523
92.5513193028354
92.5947314503843
92.6035779109491
92.6135344429652
92.5861739663912
92.6150061074716
92.604273655031
92.553052444594
92.5747327421716
92.6646837460771
92.6251575630644
92.668482417765
92.637999024334
92.5170833967784
92.5683400959858
92.6849316172006
92.7165581841723
92.7333679004298
92.6584987975544
92.6802230902272
92.7700480251913
92.7875444031557
92.8015129450445
92.8064579238666
92.8111787845409
92.791137262775
92.6812929176594
92.6906210227173
92.7673193550268
92.7524489710289
92.8178966270049
92.8884246193357
92.8414443428914
92.824390987381
92.8946722084395
93.019524866874
93.0013430675287
92.9290049237899
92.9303231240715
92.8642731750898
92.8666302434978
92.9779124666059
92.9950784354587
93.0548740499449
93.0533552103411
93.0522067668355
93.0229075711871
92.9807053336588
93.0060475765257
93.1367473448661
93.1553848207797
93.1155503212893
93.115232622559
93.1740967976165
93.1818398650476
93.1473411264989
93.1610650761534
93.1516967516231
93.1363680287914
93.1994147212114
93.210034333711
93.2192130553395
93.2819795882068
93.3269855999923
93.4007781541904
93.484808278733
93.409172352773
93.3712329836252
93.3792682138382
93.382958330153
93.3530978684139
93.3659668671324
93.33303630142
93.3340067427414
93.500429995394
93.5511988412037
93.4922453914002
93.5774873337966
93.5782154114408
93.5108697389819
93.5215328061947
93.5427594355553
93.5194067187779
93.5733328975726
93.6515058141769
93.6574416614661
93.5831779859102
93.5644686073895
93.6001040838235
93.627695413651
93.6331382511318
93.6967511720311
93.6690587718482
93.6329523050101
93.6570426618213
93.6671672846958
93.7021825692384
93.7587314611987
93.7954072697636
93.8271963391261
93.8600386809978
93.8276980908365
93.7576895639801
93.7979752217031
93.8679357701363
93.9000690414748
93.935211057806
93.944701934899
93.8896849598914
93.9327313541091
93.9172728419855
93.9030053149468
93.9179175741448
93.9191259294292
93.9548642215508
94.0155717172252
94.019076701215
94.0150323248721
93.9804035584611
93.9792960932627
94.0139739762354
94.1395367066232
94.2198645001792
94.1270656488058
93.949209108175
93.9788282016386
94.0498061212945
94.0167368985561
94.0098727331124
94.1127942951274
94.1121153242686
94.044436354871
94.0970707555426
94.140933452993
94.0686179019824
94.0313801048892
94.0300682886874
94.0964143011865
94.0975705621072
94.0983188470508
94.0992350203563
94.0934723144094
94.0426557035504
94.028286329273
93.9434723990875
93.9748108120104
94.0284350465019
93.9589664770245
93.8995956813374
93.8912812663824
93.8799701499595
93.9195388462006
93.9378411519534
93.9956176095517
94.0111623796498
93.9779587913863
93.9674854143973
94.0292362515129
94.0993929564865
94.0819754866228
93.9957303102498
94.0110773619147
94.0273587916014
93.9771214242654
93.9906840082113
94.0647716809624
94.0733066529626
94.1422436613501
94.161662322854
94.167896035559
94.2290548558265
94.1647432799256
94.140770267199
94.2269565909716
94.2720620249414
94.3064205508374
94.3313399664139
94.3463813177579
94.3276023524935
94.3041461554549
94.3394262822913
94.3867910420938
94.3717331873178
94.4235986252415
94.4406028069862
94.4209091860899
94.4288172823794
94.4820434195405
94.4868809387112
94.494175118335
94.5433195352077
94.5902647706966
94.5365506609909
94.4846126858373
94.4775185445588
94.5585935406031
94.6454556264823
94.6514909571719
94.5539775535733
94.5137493996764
94.4867668403866
94.4926041304627
94.5695372814131
94.6345471794839
94.6277882853128
94.6767797316321
94.7577946288391
94.7500895711726
94.7203475613512
94.7758095538265
94.7892852548748
94.7442450083648
94.7731100302259
94.8323076690392
94.8996053089099
94.9533169645582
94.9226128445703
94.9406829422155
94.9556599952824
94.8992431982399
94.9278122385821
94.9860403728864
94.9935768168668
94.977136922594
94.9674002216695
95.008023742507
95.0327060514376
95.0510435918967
95.0017797763889
94.9617383790508
95.0278428725515
95.0996823846216
95.1178439142219
95.0917031799573
95.0530246377992
95.0372970528587
95.0770085399861
95.1106102051469
95.0909398058793
95.0486491349689
95.0640534519245
95.1414779118451
95.1493552746584
95.1966993567612
95.2039322216741
95.1399942862162
95.0807839950904
95.0641362130753
95.0874941326488
95.1507427189627
95.2015098903792
95.2068230152024
95.1485640501557
95.1442217614953
95.1745674855692
95.201735278267
95.1981927231282
95.1975399089496
95.1833757419684
95.1913381929413
95.2304351806398
95.2380866478824
95.2317651811579
95.2368082685267
95.2620164937218
95.2347559705253
95.1845584462939
95.1933176274106
95.2127982228323
95.2307642501925
95.2256076705927
95.2452418922425
95.2614956206324
95.2488340264483
95.2527600828054
95.3278645927108
95.395283161391
95.4308925439299
95.4389689022835
95.4029725064229
95.3845479758331
95.4390186374326
95.5039486974666
95.5249416993501
95.476954500531
95.4724871014976
95.4966392770255
95.5203642207583
95.5235900913377
95.5393137327574
95.5390849762232
95.5108864568374
95.5055824537316
95.5580020039966
95.5769866074435
95.6168828131791
95.6087920786594
95.538289054013
95.5127525958791
95.5770799612463
95.6185438299884
95.6174108272058
95.6363577334419
95.6351722975046
95.6401028290828
95.6714129714643
95.6473592972334
95.6236290422899
95.6242661001702
95.6269918428641
95.6630969740089
95.6482724486146
95.5930663924674
95.6451788315921
95.6369341123732
95.6312384098887
95.6524446085791
95.6595770211739
95.6474308479027
95.6153336305364
95.5733676719939
95.6279835662791
95.6962199647676
95.7176005467734
95.7039840842212
95.6930400413347
95.7235880874298
95.7451344096376
95.7569280378344
95.8159664733137
95.8398055474434
95.8286389753194
95.8320073950301
95.8332648411056
95.8018293180512
95.7971745255668
95.8005480375144
95.8189013862205
95.8876823418506
95.9895254783493
95.9726821536455
95.9437964078346
95.9130422634017
95.9354645209888
96.0211911807102
96.0012764620613
95.973980921262
95.9909631293596
95.9926138149336
95.9228782633166
95.9050541483279
96.0070738900052
96.1108730596388
96.1631547521187
96.1231005793834
96.0900293749997
96.1144352811569
96.168796899606
96.2152482546634
96.2466262839873
96.2033690940127
96.1866645041137
96.1743996734518
96.1588524466823
96.1374683207813
96.075625742809
96.1894839616632
96.2459927371108
96.276156742883
96.2898601618835
96.1776802019946
96.1626767787837
96.2509487420152
96.2005785980419
96.1541358804091
96.2630365736047
96.322298172565
96.3464022197879
96.3406885176475
96.2900806695382
96.2761165006506
96.259182618681
96.2338754204748
96.2355522435042
96.294501133561
96.3227036732969
96.3557693710105
96.3575929833467
96.3843087963019
96.3995033775489
96.3280295083399
96.2770903285806
96.347364646769
96.3949461941867
96.3495038533479
96.3192968800982
96.3269628213171
96.3800840992748
96.3711996887308
96.3110170628379
96.2199814278646
96.2162213810887
96.3163222545605
96.3266860894907
96.3856940958269
96.4090499565231
96.3290893973668
96.2767491823218
96.2818080175787
96.4009268606415
96.4885726102463
96.3527052717357
96.2282615497726
96.223940426112
96.2112058456799
96.2273109679144
96.2715824328848
96.2613043415163
96.2683528080203
96.2253773576415
96.2119901199401
96.2745845529917
96.2837402945535
96.2738947028067
96.2629894984155
96.2242412915326
96.2268194417953
96.3070549557203
96.351105172252
96.3854621136747
96.3582700471706
96.3130663108474
96.2479834703433
96.2218748470501
96.1855568344566
96.2096212844615
96.3136626820698
96.3136557858291
96.2621454236132
96.1820147920464
96.1740211428042
96.1915342256416
96.2462317538941
96.2678226960427
96.191226877315
96.1635887083966
96.1820605026063
96.192299726028
96.2121910164009
96.1255021296185
95.9383436308551
95.8389687287844
95.8447847849606
95.8612174561861
95.7784329907891
95.7915138821477
95.8954910963872
95.990249751509
96.0217543205071
96.0892878242486
96.2119753323057
96.3216699601792
96.357908674077
96.3814675291172
96.3757201777923
96.4749318339949
96.6141298844662
96.6100477497502
96.6199759585961
96.6873737188394
96.6330681454578
96.5909185834863
96.5652062958551
96.5808749646121
96.6308589895182
96.5426448648398
96.4707804874332
96.4537661690156
96.4124035628885
96.3820373785848
96.4280641864269
96.5259111373668
96.5479336395022
96.4916414862814
96.4268829506595
96.4453253899678
96.499236087214
96.5307248426787
96.5409690964283
96.5384220661026
96.432769180504
96.3064177254296
96.2974382764682
96.3603391634279
96.4480889406462
96.5001413487964
96.5086189699891
96.5092021383534
96.5344103344353
96.5103900202531
96.5419732415144
96.6331376063299
96.5651424501988
96.5226564281786
96.5058959757792
96.456710653426
96.562815943025
96.6349623835478
96.6090812387936
96.6243908746045
96.6514485826223
96.7229707431716
96.7645612413016
96.763775721253
96.7000450889126
96.6728730428179
96.8123676989519
96.9648727240519
97.0404845334938
97.0548464505568
97.1569048366946
97.1597810160977
97.1380450877948
97.2414308774079
97.3547309864564
97.3905611381726
97.3583808407476
97.4050855976971
97.5697306584231
97.3841253217477
97.2396187479087
97.500693767412
97.77967525252
97.5542733005918
97.2476867733453
97.3304117710138
97.5136290373292
97.6921095656037
97.739570684074
97.4490631406323
97.5416187385281
97.7940350588909
97.8020213364093
97.790644095525
97.8889929036766
98.0630521347175
97.9893964628401
97.7281475591739
97.8698763821886
98.0912102369551
98.0795593972912
98.0302210720695
98.0253986566911
97.8989818767054
98.020156908457
98.4429768066087
98.5848299133058
98.4170414326828
98.4209402078044
98.4626008754291
98.3709772971455
98.3364117455799
98.4197193729932
98.3917025839613
98.4071499459675
98.6135319111843
98.5529465652318
98.6563248081633
98.7924933053802
98.5565760614721
98.5446767316172
98.615207376989
98.4668059250574
98.4457904153157
98.7387606689694
98.7681993809282
98.4071844791114
98.49922509394
99.1134177124111
99.7941801869618
99.9705460918214
99.3163141026124
98.6728348419307
98.129636451971
98.2498061537208
98.4037340761663
98.0607143409527
97.9810594746581
98.3087417494332
98.3872925914656
98.1720319779414
98.162034560831
98.0491697799155
97.869782403662
97.8220174232485
97.8150313698956
97.7397030063295
97.7710580933282
97.7778647992214
97.6680553370566
97.3869277443394
97.1945496416362
97.1925706620621
97.160585854343
97.324358090977
97.382072684361
97.2754064668934
97.4262738836081
97.3783674298266
97.2116757622901
97.4027040029832
97.3302506757402
97.1091814581728
97.1360892268639
97.4151644617752
97.6661381835453
97.6182381200503
97.3697525573304
97.2448883430302
97.4014226585189
97.5309570794883
97.3767697980402
97.2996491942263
97.3030238082787
97.3290550688593
97.5208634521898
97.5901289688851
97.5024822094447
97.5170834466835
97.5150990440803
97.6040436792872
97.657194449165
97.6653271468868
97.7622715360546
97.7742135631193
97.7298435759864
97.9592406689084
97.9935013902901
97.9902139530336
98.2082535314863
98.4202474164903
98.5326116179314
98.3468104764246
98.1180403555456
98.1242485861007
98.2238145096167
98.4763213870602
98.6369497682887
98.6916995880081
98.572056582616
98.609947340579
98.6730544056903
98.6857077117206
98.396540346279
98.3732850949579
98.5335712450769
98.5858872220795
98.7599236653233
98.9577951318923
98.7581050350135
98.6684551220664
98.8928145975054
98.7277940861397
98.5439149234973
98.5083376355505
98.3869668277459
98.4618208786236
98.4151980751756
98.6553848224961
98.7236082131754
98.3328235266707
98.2776511861845
98.0488853862994
97.7535046681919
98.3584977709375
98.7237263222707
98.7778221000334
98.6296568913104
98.4422657605467
98.4681570159881
98.2618581654732
98.1999023838916
98.5883554484429
98.7985681037716
98.591389106016
98.406815743123
98.2378980503349
98.1440045606806
98.0411443801115
97.9232213997317
98.0192714901146
98.0134831284883
97.8860113137766
98.0293120040434
97.9669777006494
97.7338072144858
97.694450267822
97.7054827777864
97.6832698322934
97.5950641319146
97.6053519527512
97.6627657246164
97.6167263317742
97.6845987137988
97.7439432471604
97.6497173606582
97.6217964711369
97.5924981956149
97.5530144672689
97.3520637495697
97.3239729881161
97.3835978568364
97.3570036056849
97.3068603295663
97.3433383471529
97.3359475295496
97.3616013326566
97.4194967027437
97.4158534653971
97.4163349124709
97.4704697713609
97.480562717568
97.4195590706942
97.4128342922947
97.3464482825049
97.3096292266372
97.3712745093734
97.4004591461654
97.3297748503855
97.2619272987465
97.2526421474944
97.1924474277318
97.2313380518236
97.2545031603409
97.249003256234
97.2870426320411
97.293760288569
97.2043829808394
97.1815139741635
97.20387762081
97.2340687598058
97.2082570938708
97.2208485488638
97.2142200207305
97.2399028520193
97.2775037495971
97.2504723547768
97.2696704700142
97.2248288240271
97.148891632048
97.1524404253363
97.2025694897607
97.2188960197497
97.1716764586624
97.1232370809125
97.0984863897046
97.1192606201029
97.1570286342397
97.1925530588744
97.2277918731355
97.1745030503026
97.1482194164356
97.1863310798385
97.1724842624226
97.1362819722416
97.1092182340371
97.1069199591922
97.0843029407878
97.0465631962179
97.0477578276104
97.0553770681643
97.0338411726651
96.993670430633
96.9667898541329
96.9512398912731
96.9272238518663
96.9456398236958
96.9630644498898
96.9422673881836
96.8965787135557
96.8838295231973
96.8421143712794
96.7945249696354
96.8196821853453
96.8122923007607
96.7864990061118
96.7521915626337
96.7659654590471
96.7610117901335
96.6460420653313
96.4065262738591
95.8740022765328
95.3346249761887
95.4721413669369
95.8815756468558
96.1595715294462
96.3298919053758
96.3679739453831
96.3976116685247
96.4681535811554
96.5246248216229
96.4919076592487
96.4338377020833
96.3813667923484
96.3181405738545
96.2873991644947
96.2416527131597
96.2035559471839
96.2365588269328
96.1886417911001
96.0736249650554
95.9585155856082
95.9020762340767
95.8221112832742
95.6846840603857
95.5334506841329
95.4628585793625
95.4571870312219
95.3748415150177
95.1847642253526
95.0040982704651
94.8254295586607
94.6664150831667
94.5525346621126
94.3588861120555
94.1049705977647
94.0663843877314
93.9026213742271
93.7584581098684
93.6090597735445
93.353337118116
93.1181882946251
92.957578843405
92.7080979218517
92.5372548799914
92.5717538220159
92.4254355644246
92.2342649497449
91.974718728981
91.8316732733816
91.7632032077468
91.5680997584928
91.4753130188358
91.4741427063555
91.2931871690866
91.0597910757653
90.9597574987256
90.9136978534069
90.8311404003971
90.673226134218
90.4234631426029
90.6430997657759
90.8689867969474
90.6300562829756
90.431475030904
90.4532876892438
90.4113929430642
90.2804795696415
90.1574629644589
89.9805551152389
89.9308009146925
90.1363766068151
90.1065298519857
89.931515358359
89.7958155889598
89.7586520406596
89.6820016104518
89.6617379024353
89.6716534895406
89.5228786753392
89.4087923197104
89.5148657589518
89.5132052373491
89.4015372538383
89.2777407305258
89.2235203410479
89.1803763274366
89.1113478611936
89.0772197490563
89.031695699967
88.955834420476
88.8596770417463
88.8033420334467
88.7405427145169
88.6754706536043
88.6233821138983
88.5664574971084
88.4898820729458
88.4209334342288
88.365008930677
88.2760521228689
88.1021683910042
88.0882831996465
88.2652347752712
88.1458673088626
87.9246820689209
87.978887533026
87.9962794363914
87.8799287222318
87.7985515090681
87.5023845043367
87.2658184898724
87.8798216709142
87.931847130524
87.759132128824
87.5789731679338
87.434896969689
87.4106389392395
87.2662338080035
87.0977156202203
86.972222769429
86.9050063774768
87.2055331166103
87.1831681391611
86.8129458985515
86.653567805683
86.648308229928
86.4786918786858
86.2612109645794
86.1404204404992
86.0246451217151
85.8400234542083
85.8988221839847
85.7879680555733
85.6286618326671
85.5589802008542
85.3599703099308
85.1170022425024
84.8109195334258
84.6246364894437
85.0452268459453
85.0733158679458
84.7529294771031
84.4508702300474
84.2850531097171
84.3240760846428
84.3803176932951
84.1727857641829
83.9599240634277
83.9963406038969
84.0593740115315
84.0082518291076
83.8840296654498
83.7985027300825
83.704163539571
83.5640899341675
83.4665819323539
83.3484860963077
83.4878994143156
83.550037297893
83.2924407373963
82.9694472080971
82.858752561803
82.8407784355464
82.5786648328461
82.2284283355428
82.1506720028646
82.3119498599446
82.0122480923687
81.5423535046686
81.0053706969546
80.528179610794
80.0773768229676
79.5326582044409
78.9852973729662
78.4339052472776
77.8236012341213
77.3367720853968
76.8189031089394
76.1291810674333
75.679014969456
75.5896598267259
75.3459662310665
74.7903673185029
74.19626174989
73.5334924894554
72.8867227854639
72.4789202053174
71.9387262718783
71.2223481558687
70.5333020781383
69.9444713363678
69.3483049196679
68.728437351267
68.1815947113792
67.6955312718514
67.0964373737052
66.5544596236811
66.0985268585204
65.5899460074952
65.2238188694489
64.7973795713159
64.2214618880103
63.6960387941291
63.3791445612435
62.95311039254
62.4247162383404
62.0024693807122
61.7172904760881
61.4822121197209
61.3886135228451
61.699046623524
62.0740095856711
62.3893876414446
62.8454813023462
63.2523497891933
63.591242547539
64.2457315174541
64.9237001502328
65.3544979721089
65.7455546029837
66.215188682834
66.7524257717449
67.3239781982919
67.9288114558563
68.6124450745911
69.3372836878769
69.9995103137001
70.5598193262311
71.233120239353
72.0430109775736
72.7212364064869
73.2493766103554
73.7475457451427
74.2730530982948
74.8051136388628
75.3163417681774
75.7946106904747
76.2681173578579
76.6868016894662
77.1130283128434
77.561899185526
77.9694097389811
78.3661674374963
78.7681012101471
79.1205684467796
79.4705418337032
79.8203574850994
80.1479820470542
80.4630226024818
80.7720564180101
81.064005418549
81.3557230408971
81.6464603155188
81.9206391788038
82.1803493296485
82.4130610770499
82.6344935260011
82.8438803762929
83.0339166987543
83.2334488186165
83.4263845326997
83.6288435594391
83.807474753215
83.9796495962584
84.14388290791
84.3003495050549
84.4598785797991
84.6061382804547
84.7150580912334
84.8303403470465
84.9466992376196
85.0524845684987
85.154385668363
85.2513658855381
85.3398734552707
85.4307995154809
85.5305789447405
85.6426405612832
85.7494853338824
85.8558775574032
85.9721969971705
86.0882919264433
86.1863446842692
86.2864718365668
86.3951576091427
86.4980581061953
86.6027540789074
86.7028126212423
86.7708584298178
86.8290381096359
86.8614170960016
86.891539133729
86.9003151072453
86.8777418884658
86.8407889755687
86.8032048209705
86.7104547674632
86.5733588219879
86.4168929332803
86.2261932364585
85.994910073688
85.7576863186401
85.5023411403138
85.1996494550897
84.8449359217259
84.490861778745
84.1331167912519
83.7684837651121
83.4003637272284
83.0786715672281
82.7628600856137
82.4667114376209
82.186873368861
81.9145273092388
81.670188891518
81.4422523160566
81.1929023495474
80.9376735189903
80.6620724693804
80.3653154729451
80.0466684855279
79.6856839292978
79.3051964271713
78.9560762329773
78.5838870638983
78.1789939707867
77.7353484388161
77.3050866632992
76.905946754593
76.5366607257516
76.1650515912197
75.7832623520522
75.3881039325853
75.0078924203662
74.6567745522999
74.2512101220579
73.7754421191309
73.2806756243032
72.7299561237124
72.1847313639366
71.6394913400839
71.0628466607937
70.4812473676065
69.9651964130283
69.5559999782868
69.2597266431551
69.0243227123567
68.8529714204396
68.6832125472708
68.4921147594752
68.3237910883286
68.2044120301089
68.1766476152187
68.3280584380437
68.605750022063
68.9445372378178
69.3911529844807
69.8872140155917
70.37657581918
70.8901991279547
71.4580572332685
72.1266653582636
72.8697203492134
73.6307368182608
74.4040189982798
75.1757572616781
75.9030642610118
76.5911887712643
77.2359753688878
77.8728273301973
78.4661611069162
79.0627781309176
79.6632769002892
80.2105284618338
80.7074103259404
81.1654483166311
81.5735580970679
81.9173651857451
82.2036762110718
82.478507726148
82.7188061061555
82.9492367692933
83.150021086314
83.2984760265672
83.4832094917164
83.7637652598289
84.0360246475242
84.3209784053431
84.6089207877633
84.840665817622
85.0479462145695
85.2575745700102
85.4431140647684
85.6198284849744
85.7695540606875
85.9396178958649
86.0883560458048
86.2417013254864
86.4251597919247
86.5674362900776
86.6573512531021
86.7768583247608
86.9053208518828
87.0079551450055
87.1229906037747
87.2293476511443
87.2961853013897
87.3613117865493
87.4000937146792
87.4261188134319
87.4707342607846
87.5000721950932
87.4622033570702
87.3641393080624
87.1891592307223
87.0394394131595
87.0577896037084
87.2543200386741
87.4646067713017
87.6170529410527
87.8198919151661
88.0880072811991
88.3582692241336
88.5776861362669
88.7438399045893
88.874205884256
88.9993819989149
89.1170259186554
89.2019135848794
89.3069165519426
89.4107351089554
89.5070583185365
89.6181932339592
89.7101063382804
89.7900564110245
89.8593128320617
89.8856699570703
89.9354756548875
89.9971461867824
90.0387851387884
90.0871048240372
90.1520148809381
90.1891372994846
90.2229820915154
90.2664155616166
90.3213973085879
90.3817913136565
90.4195225432466
90.4496514031988
90.4612584584774
90.4596568324142
90.4815093082355
90.5159632328432
90.5518725166947
90.578927780317
90.6127166416621
90.6442463666644
90.6432092467924
90.6501511318286
90.6842669114067
90.6852357060786
90.6727405958608
90.6831858665602
90.7029607815018
90.681776039312
90.6757813396174
90.6886071456421
90.6543294604686
90.5457900880186
90.3866814649482
90.2254587213978
90.0486174255802
89.7567557920808
89.4429493417632
89.1043263448066
88.6622888030339
88.1548309994625
87.7061075688353
87.3303924398737
86.9687653003856
86.5374254506792
86.1675031997265
85.938211754516
85.8724221205691
85.9355498036552
86.1325106735465
86.4368575558718
86.7668546902472
87.1274682286287
87.5581065346519
87.9349136313487
88.2226667375537
88.4372314148591
88.5677700654307
88.6623122239001
88.6925938858078
88.5786541340427
88.4103783533799
88.1555522482265
87.718297625618
87.3193953305371
87.0243199871995
86.1365949565407
83.6735410606637
80.5981428970706
80.00190609819
82.3600105329664
85.1446189311246
86.9232647885606
87.9047122896451
88.4270746897673
88.6232917131557
88.7163637519837
88.898615976979
89.059546050612
89.1403643925278
89.1849924287927
89.1910907235394
89.2018703478203
89.2465076900648
89.2000785689618
89.1086708661547
89.0991605406669
89.1147074914448
89.1008769338249
89.1062659520783
89.0912424457149
89.043589394237
89.0081089947618
89.0453957947647
89.0805187088594
89.062616330283
89.026433510208
89.0258470402586
89.033643782309
89.0075404989398
88.9179963540641
88.8770163063355
88.8574898761124
88.8446078060399
88.8680892845198
88.8844769598233
88.8142498633889
88.7669428558995
88.7677168332533
88.7682875177847
88.7722445877344
88.6857024704959
88.5798033659306
88.5508063709683
88.5063389540285
88.4606131888994
88.4553312876053
88.3890868440721
88.3225211841057
88.2817248092207
88.2131132164775
88.1579775674343
88.1443365841861
88.1395697101523
88.0107309741409
87.8709142884948
87.7641225068807
87.614907173632
87.4702799761718
87.3454946413417
87.193775565984
87.0922530013444
86.9482574391612
86.8273042346436
86.7216591132962
86.6532783413101
86.6315273199779
86.6059315246029
86.5295633010754
86.539180584577
86.6070354485651
86.6560993554201
86.6519771526463
86.6143749550939
86.6373909971155
86.7149639848258
86.7520892595709
86.8214324175027
86.8813719288984
86.917328071306
86.9058395845505
86.9220000988402
86.921124711952
87.1385180796972
87.2025660005075
87.1434409208838
87.156219285074
87.1186673710947
87.0007488930316
86.9561040269514
86.9074064544833
86.8337405622322
86.7875980223068
