1798
3999.43349933624
650.420452594757
1
128
4
94.8258751006808
94.8213364068718
94.7763904646847
94.7919004718666
94.8761201984232
94.8446533734771
94.7717019748566
94.7743643411202
94.8064080783164
94.7457269520714
94.7199585854045
94.8582907664562
94.8155605739722
94.6489193286498
94.716472335048
94.7915850258345
94.7904153646004
94.8153903533815
94.8606143066396
94.8568813892234
94.8718047686475
94.8466919598838
94.8008977705919
94.6927882049727
94.6887521884658
94.7701678655593
94.7767203689128
94.8055852955111
94.8640237234438
94.8576942374831
94.9079376723136
94.8755946505454
94.7439783510564
94.7171245802802
94.81114250967
94.7827779988298
94.6562555527521
94.6165926135596
94.690482814118
94.7277805466354
94.7027846276444
94.7247383356125
94.7944018728468
94.8048598081967
94.7489906897155
94.7055707022395
94.7389076312608
94.7558512576304
94.7432734301264
94.7034462685015
94.7418412667834
94.7503118019963
94.5688132727914
94.5361549507966
94.627201026045
94.7253920154856
94.8608140680425
94.8449781620867
94.7809729962405
94.7472892805012
94.7909420187147
94.8115787042082
94.7104176606812
94.6619605490389
94.6707463209998
94.6709959549095
94.8233789763455
94.8626091730201
94.7773423895546
94.8596271404627
94.6987022477874
94.4827079281616
94.6986665372627
94.7607428798815
94.6534452861701
94.7911441158068
94.93935816372
94.9634221456402
94.8582329601341
94.5038633295425
94.5400859109295
94.8138793289418
94.9082289384778
94.9423839036648
94.8914524791509
94.8463604292307
94.7509290379335
94.6248823119311
94.6884128108742
94.8503946665645
94.8148483816883
94.8216205954177
94.9616860870888
94.9229647936582
94.8272216511406
94.9819687007629
94.7919988337425
94.6781565178507
94.8911501247239
94.7082875452789
94.6963438757506
94.9631010009481
95.012875445802
95.0770138552981
94.8982469892487
94.7445640310366
94.8994522453242
94.7462176993497
94.7768877674065
95.0292894784257
94.9676670382315
95.0656127868216
95.1604760270721
95.2834786134975
95.1117040782679
94.8367978278266
94.7499743414257
94.9661126359526
95.1619423487514
95.1492054474185
95.1523340938401
95.1528522761951
95.0434768827706
94.9701535059455
94.8298696178816
94.8434789344562
95.1486115239353
95.093273225047
94.6637725019695
94.4754951594841
94.7571840000204
94.8245073761313
94.7437594204893
94.9095649992178
95.2104040637722
95.2520707799631
95.170596296686
95.0919541353219
94.7987474362645
94.8878744859438
95.1115867996828
94.928193647102
94.6620449045114
94.7552862283634
95.0537649343942
95.2138524293125
95.2409484390387
95.2428696986682
95.1504241806349
94.9885068394902
94.9505968188816
95.0463748748974
95.1121618601373
95.3442657840217
95.4067410858077
95.0597822679623
94.6691082432671
94.7735043867429
95.2461572186241
95.5585157469485
95.4736672018573
95.1113338062662
94.8011599103442
94.8983071939496
95.0254275510917
95.2404266487333
95.2095818625671
94.9127821846945
95.0244464370369
95.1329464542902
95.0820598664492
95.155759992926
94.9006472997413
94.8592605840586
95.2065396302011
95.1871187644575
95.1589938207984
94.9744027508475
94.7672008986864
94.8761440532803
95.2219825659352
95.319386077545
95.3725105860969
95.2762147465342
95.0718212872787
94.8407179240286
94.7221182991601
94.9740527662463
95.0977674119987
94.9690771349339
94.7692220977343
94.8965590280698
95.0765645575525
94.9576144642829
94.8386684938315
94.9043462780395
95.000928334634
95.0406684850042
94.9971826688868
94.8059130841068
94.5851084859544
94.7005246948723
94.8264659947551
94.8585521686767
94.6750482571417
94.4926262291518
94.5593231088539
94.6456364572612
94.600145072731
94.6599189122562
94.6098426108317
94.4984704375065
94.5354983566137
94.5641075510538
94.5386692045646
94.5148118040794
94.5171037220461
94.5594032758374
94.5027830073594
94.4573522525284
94.4706435810663
94.4459376954562
94.2957325056732
94.142754526039
94.2735385057787
94.4713993819733
94.4348401191759
94.2977471701008
94.1828419819149
94.1347923030781
94.1643453007091
94.1099098405214
93.9441185291642
93.8987184072797
93.9887268766247
94.1353348660722
94.1338196951988
94.1196097618165
94.0352901124437
93.97315508729
93.9583937482611
93.8985421855487
93.8594487975199
93.9168993025175
93.8571455597229
93.8257865039208
93.8445435120628
93.8342454883108
93.8060938553469
93.8261493922223
93.8126376057419
93.8773363367719
93.8163389177168
93.6303621235803
93.4598702321879
93.4434688182707
93.5084839994418
93.5114561880429
93.4560816007846
93.3812332395958
93.3823074472488
93.4743338786364
93.4387074525607
93.3384732631109
93.3241245633732
93.3861291996316
93.3142874748566
93.1623896813881
93.0801545456807
93.1773524383774
93.2089919002338
93.2008334239395
93.2408865090488
93.1206035001057
92.984680007745
93.0458094729602
93.0882928089671
93.1149167399211
93.0445052676181
92.9420155158923
92.9464540770197
92.9937610559491
92.8787586242808
92.7822488882207
92.7761682776628
92.8132194847253
92.8776844411418
92.8021620661554
92.7450444119381
92.7308295680067
92.6600555228719
92.6540458134709
92.4999065053308
92.4831669633678
92.5013491125381
92.4220897111939
92.4629253861554
92.4315907908369
92.3068301228323
92.2949982645655
92.309325273306
92.3790857653728
92.4222331043229
92.3951165030484
92.305041294808
92.2584153320611
92.2332244097367
92.1301123477517
92.1299597601487
92.1868639953626
92.1736224840904
92.1383011207606
92.1357286479617
92.1558668659458
92.1758545223083
92.0611653794649
91.9970015184762
92.0862546848786
92.0310365730864
91.9796461996383
92.0392305697835
91.933787649902
91.8174683655799
91.925574382172
92.0202159215216
91.9363874736414
91.8106699696458
91.7790741595944
91.7472920688552
91.7689479183493
91.7686613735814
91.7461253212302
91.7495940701359
91.763551606178
91.6899266070863
91.592158620174
91.5757162264804
91.6652919760898
91.6493115190822
91.5729330553212
91.592197140798
91.6080749717856
91.5679991173384
91.4570717488827
91.4152240150918
91.4351211591502
91.422444237196
91.5008855767801
91.5958207163505
91.5974213811077
91.4053974630297
91.2969051366025
91.3097587272965
91.3701377525872
91.3867857943336
91.393176457361
91.2979811531264
91.2294797960321
91.2862291017736
91.2533936195917
91.183303269849
91.2290208895227
91.216407211887
91.1976543883073
91.1454770175963
91.1107521756301
91.1257274192219
91.1669499848909
91.1575376433501
91.1548724988295
91.1297324964834
91.0308075142715
91.0505158063702
91.1134655117387
91.0665006220234
91.0636634821269
91.0415337537468
90.9464457275348
90.9364449034407
91.0733684870283
91.1010425843016
90.9749800735136
90.9262971759216
90.9386667082627
90.9109763699945
90.8685004424598
90.9343469841877
90.9642872638877
90.9195938681224
91.064097498825
91.1303877135144
91.1152396795673
91.0639408323639
90.9717844590881
90.9393071233002
91.0450762651252
91.0219311261956
90.9309900941308
91.0601131548162
91.0732317883279
90.9813021358967
91.0632348376414
91.1245914357612
91.090411787926
91.0909048626248
91.1188090923525
91.0768011562273
91.1198287171475
91.1433079024534
91.1535038482067
91.1197552490333
91.1819713261951
91.2319710578073
91.1673140700302
91.1229540326113
91.1911809791117
91.2573273518637
91.248777581999
91.1657968433012
91.1883855908629
91.257331989472
91.2122342634892
91.1444284759432
91.1845891571081
91.1660920522191
91.1871119083
91.2306853847181
91.3034787939329
91.3800446154719
91.3850598068858
91.3357350582996
91.3412545995925
91.3092737629018
91.3446655296359
91.4098035156952
91.3814165267681
91.3509091442519
91.3592572935096
91.4097660879102
91.518221203887
91.5178279504331
91.4367380503583
91.4158331480563
91.5207776984762
91.539915302273
91.5293141026333
91.5603618433821
91.5634739768726
91.5493162839902
91.5572320871544
91.5718177655423
91.6688901109361
91.7347625461855
91.7719633063862
91.7811926835791
91.7004938407815
91.6765300673799
91.7334367278013
91.6912731163139
91.6951688351072
91.7630562808101
91.8069041804561
91.8239588762785
91.844729719797
91.8290755591864
91.8347727750573
91.8504859482332
91.772897284003
91.7535772754219
91.8797495621362
91.9883274546609
92.0661467823029
92.0188484053369
92.0260244154744
92.0993350034092
92.047019099147
91.9393323328224
92.0003877930368
92.0806018446085
92.1079319754247
92.0939215378705
92.0405880582263
91.9875235315104
92.0133599101581
92.0331334000563
92.08839198425
92.073662607781
92.0980029464159
92.1503284171127
92.1552798870795
92.1021824073993
92.0970478054398
92.1233835733141
92.159158071574
92.2125580269429
92.2727229408836
92.2464856299506
92.2842748653456
92.2801945835079
92.2429118397421
92.2746388380019
92.3238892511099
92.3239849225842
92.3605408631506
92.355445839163
92.334721181933
92.305055278375
92.3729783409731
92.434778775585
92.4486804229386
92.4001428269116
92.4016331247461
92.4427617700861
92.4408127905852
92.4415242688982
92.5356923202451
92.5543186349168
92.4983901269664
92.4861566265524
92.5272572767509
92.5238302432471
92.5791032120633
92.6124098421031
92.6280854624786
92.6049505141446
92.5850930662349
92.6054287026133
92.646549559076
92.6519659206652
92.7268085782861
92.7419156958641
92.6914859633803
92.6295503084797
92.6531517666673
92.6856434491048
92.6609897847305
92.6519580805739
92.6971909756308
92.6602581469812
92.6499934057459
92.6525537901379
92.7012256944578
92.671135054194
92.6722840108803
92.7126113189755
92.7042316842598
92.6740617203259
92.6088870929246
92.5345486163869
92.529184924198
92.4886680504617
92.4810932184647
92.4731325597758
92.4223363367175
92.3665339833663
92.3922608342684
92.388710905281
92.3306548019121
92.3194777941157
92.3178636698055
92.2903062644156
92.3446427501707
92.3930036028652
92.3956018202401
92.3894594965193
92.3965277354072
92.3673186681399
92.4232671496962
92.3688210466546
92.3130354544467
92.3012781138469
92.2280481523849
92.1950520192363
92.2394947333513
92.2989482169133
92.3411774403819
92.2478912771488
92.247560831077
92.2558538122076
92.3029370207876
92.3913922981873
92.4371653570938
92.4469605029367
92.5083578223362
92.4971650463628
92.4625060852346
92.4557596243484
92.4846656379949
92.5154761716238
92.5712623696583
92.5673737751075
92.6115646295378
92.6448891660684
92.6735400106509
92.6884034248965
92.7084868638418
92.6930981376299
92.6973537281201
92.7375845627952
92.769070097863
92.743587631097
92.7344751369518
92.7405548331441
92.8179034528531
92.8304409092353
92.8101999488751
92.7832399950207
92.8229052983376
92.8538401329619
92.8645521581517
92.8606765092812
92.8859080284523
92.9304556619809
93.0115122787339
93.0453824136781
93.0723503773669
93.0200555188996
92.9992955165604
93.0271812120062
93.1367105786305
93.2173464959117
93.2333588909648
93.2436356673861
93.2840784457132
93.2881408949417
93.2895536010383
93.3134100947069
93.3598829136805
93.3544246515042
93.373393838221
93.3847117860923
93.4243991456348
93.4435981241808
93.4599055827445
93.4558090781467
93.4794196035707
93.4965452351044
93.5254175632716
93.5318319648467
93.5877771861499
93.6230746645116
93.6283641463717
93.6282628774179
93.6816092215129
93.7008893792254
93.6610450863437
93.6145126499504
93.6644850970859
93.7045301716878
93.7343960005629
93.7455130863354
93.7451823545342
93.7294333984524
93.7154337426509
93.7042397263634
93.7085739914365
93.7436000033822
93.8388143645467
93.8569706463488
93.8083671348065
93.7686550643845
93.7847049876999
93.7969754906063
93.8244251752023
93.8642018360425
93.8619830387585
93.7917837512177
93.8244698058776
93.8454525916159
93.8396387995637
93.8767680856121
93.8851169651196
93.9009756973424
93.9024017890137
93.836399645546
93.8179803118905
93.8398262118492
93.8525198948749
93.8311824850222
93.8488051649047
93.8672950611549
93.9100809932806
93.8893069842301
93.8912022637401
93.921903524172
93.9326581484241
93.9380213615031
93.9551928198395
93.9258109584194
93.8980130972459
93.8993037144752
93.921619901925
93.9061606581246
93.918926247993
93.9295383495581
93.9214724223872
93.903381163461
93.9091005140475
93.8968235883103
93.9020039097083
93.9096216642157
93.9171023947292
93.8736565086997
93.8321417168413
93.8273539331984
93.8706909216678
93.8822173703186
93.880136408513
93.8883949101408
93.9248012688316
93.9117775285686
93.8769054088238
93.8210415479926
93.8288059433321
93.8717083241893
93.8372244572727
93.7805466430084
93.7624081074104
93.7200940939404
93.7332954483201
93.7237007949307
93.6864542931565
93.6982138459921
93.7274188559668
93.6779105873378
93.6739644779738
93.7062093020295
93.6851288360019
93.6703746360274
93.6945606032503
93.6847295877615
93.7244488359448
93.753141884912
93.7125047226792
93.6121921324232
93.6079100637732
93.6757324233757
93.7428867287039
93.7649038482245
93.7879466071292
93.7184402249296
93.7214375481022
93.8201710947528
93.8237479264605
93.7695653426287
93.8403597525825
93.885321398722
93.8814816023052
93.8698349069682
93.8905097819076
93.8594299123461
93.8532512731136
93.8995140838745
93.8837692296492
93.8128395323089
93.8471023803717
93.8433110110669
93.8765553119666
93.9606948248244
93.9937970830451
93.8970772927663
93.8411686907102
93.8687952610244
93.9557785541163
93.9826434563515
94.0012288205344
94.0610163162506
94.0591797375694
93.9295315267518
93.9521819987498
94.0007360960213
93.9091250693056
93.8293583695697
93.9243270967111
93.9775571571699
93.9686925136336
93.8842403700636
93.8889795572132
94.0012746741399
94.0299094782211
93.9782218531063
94.0229277613119
94.0071712867941
93.9942865608201
93.9861713964549
93.9147174623678
93.941648055394
94.1163565825707
94.1252720783687
94.0733166215536
94.0430119493532
94.0907202678908
94.1360267213013
94.1247470013679
94.0208562434034
94.0019984802788
94.0296178459733
94.0819633614868
94.0433820208831
94.0004355061794
94.0868423165748
94.1604073365557
94.1835300447071
94.2470586018307
94.1152717613781
94.0554383846581
94.0858993985107
94.0896984409522
94.1001907598757
94.171275963861
94.2021459871464
94.1759654813311
94.1201601041665
94.1534354539457
94.19494779695
94.1924862021882
94.1840926700958
94.1680730393573
94.1220936359513
94.1812071889893
94.1918078684752
94.1671042339452
94.1819284919558
94.1916766324259
94.0996832822068
94.0994091296831
94.18465476132
94.2331454390917
94.1842350814972
94.1781368845106
94.2186795023448
94.2998912617121
94.2745721157489
94.2656118001813
94.2639825086664
94.2120576833416
94.1767534365666
94.2471418042524
94.2936266339636
94.3397448076048
94.355176225204
94.3665030261372
94.3888192980466
94.3573372361774
94.2559876251525
94.2379250162958
94.3004197874443
94.4384503665763
94.4409033148892
94.3559926175651
94.3048857297663
94.3665416587794
94.4320814023934
94.49403193054
94.5018506982384
94.471548969027
94.3992832447457
94.3729468832183
94.4113357158571
94.4948976659896
94.526300811712
94.4886784665149
94.4646608248823
94.4721258516417
94.4437503594612
94.4398213598086
94.4105049434744
94.3701800023065
94.346706398291
94.3777403113012
94.4059798849299
94.4357606833527
94.4329222552659
94.4764206936196
94.6335213540422
94.7935624124126
94.7174242557883
94.6734333661701
94.6964305222268
94.8001798093789
94.9196199483191
94.9580883601185
94.8211284291209
94.7196243414324
94.7187242364038
94.7127769321787
94.673239631025
94.6966023215109
94.6534304601243
94.580935581863
94.5955514685176
94.6206254081188
94.6687586901314
94.7801525336017
94.8031898335202
94.7537371562665
94.726541707146
94.6841724131772
94.5694087137992
94.5209150670029
94.5200007557898
94.5218068397105
94.4860099927417
94.5591256289304
94.613586724324
94.5937821024993
94.6065470688392
94.736938446986
94.7724009653693
94.7286723259263
94.6889031901021
94.7384474263276
94.7403387962067
94.6899371926985
94.7436270705852
94.8164276082634
94.7485831908538
94.7324258415694
94.728838794992
94.7462389369017
94.829056440355
94.9878474528711
94.9998118260735
94.9939838788577
95.0681416422022
95.1934367391101
95.2878252267949
95.3704998393718
95.3307475950263
95.3756622357152
95.4665556040643
95.4516036009321
95.3511243370186
95.3624292204123
95.4578333986128
95.6047486472416
95.7591875230826
95.9428227582166
95.7960701659397
95.6403545669977
95.645673779843
95.7588731031231
95.833562444193
95.9904129966349
96.0825374997689
95.9569771650135
96.0151779204616
96.3823855681794
96.3608909937488
96.2488136827763
96.1405375780313
96.1007299665094
96.2071503901954
96.3629525978117
96.2838569750813
96.0499189635431
96.0713042271209
96.4965647445189
96.8112359633199
96.9090404683236
96.6495187551081
96.6908988208884
96.8507074996791
96.6960968725108
96.4048872407761
96.4863763130431
96.7076153392208
96.9002443920151
96.6817778619033
96.4621977567954
96.6421781740815
96.9945153804366
97.2621228228197
97.4885046431682
97.5206837668758
97.4377502262092
97.1605955800993
97.1860952272714
97.2980389716611
97.2755833223633
97.2490116259489
97.3988892364445
97.2348262702848
97.4126254796862
97.731195631593
97.7209257057436
97.5196382410027
97.8754164390311
98.3196351085363
98.1019478000088
97.7277585656355
97.8400626950104
97.7520724518183
97.6210683401844
97.4401229504428
97.0396051917972
96.9429914729482
97.2945278398076
97.2802921551162
97.1001010732614
96.8382714718117
96.5908074027841
96.3945145601695
96.4737127093059
96.5297627765811
96.3904983765785
96.2639095185953
96.2934797240427
96.1129045787788
96.0228115033156
96.0507510645011
95.9094011286056
95.8389279281411
96.0076062985535
95.939016908756
95.7791073031162
95.917661759101
96.1372534275667
96.0612648235556
95.9352467828314
95.8053950991035
95.9237713617652
96.1309419290111
96.2898144953305
96.1693661496515
95.9849666441911
95.9198403679187
95.8718679350086
95.8156589168527
95.8688652659773
95.907347899209
95.9930560663375
95.9974943638801
96.0638249355801
96.3035391410773
96.5434068505641
96.4465775486927
96.2423620146664
96.1459431605072
96.1274758872557
96.1060039861226
96.2951103065572
96.375012048967
96.3681437462864
96.4266773393611
96.6740184163743
96.7743694997586
96.7926681097588
96.8589701373338
96.8450471754313
96.7878568521801
97.0752971529266
97.4650172691287
97.8948693199271
97.6521071885913
97.2295710277744
97.2023681043839
97.3661592130369
97.3899843608066
97.7007914809596
97.7313197218504
97.4704815185383
97.2863660811053
97.4436131945049
97.4252429673277
97.3813526151075
97.3096648275752
97.4284105815712
97.4511598006643
97.4365436817377
97.4430451514851
97.4107350199865
97.1916302085589
97.2083326919627
97.0997776139181
96.962064349812
96.8104811175091
96.7075688982551
96.8576073113037
96.9852005499434
96.6069853752834
96.6927017974025
97.0641794195933
97.154161496921
96.9609523179228
97.1978607637661
97.4430764745338
97.3436177604973
97.3471194818774
97.5287673502495
97.1447668589647
96.8516416959515
96.700010742326
96.4994823081734
96.4217285166666
96.5472122878552
96.4463431206684
96.394356939943
96.1763976536539
96.1120975217153
96.187915799027
96.1572234423366
95.8944024542761
95.9229657167225
96.038467980114
95.92972640457
95.6873327599721
95.6164768172342
95.6013960263616
95.6296487008939
95.4238658801886
95.306575135488
95.3629844989396
95.3988906436066
95.2866726729975
95.160743578974
95.0950948759554
95.0840795754745
95.1043345804436
95.1165340435932
95.0760715492638
95.0935335470692
95.0403508813112
94.9989118971647
95.0208867952019
95.1653134554622
95.1936507291387
95.1050607503108
94.9763675912167
94.9836211714808
95.013736516685
95.0613811747655
94.9346036543377
94.9148329266105
94.9292437565776
94.9252010346213
94.9699804898756
94.9678614068623
94.9032064467609
94.8539800108599
94.789718657649
94.8879257340599
94.9355378292356
94.761781196248
94.644069778768
94.7860468418916
94.8414792717143
94.8560830816078
94.8023543222128
94.812159039075
94.8430098427812
94.8654543829166
94.7431092137125
94.7522438208381
94.7588859177923
94.6994316425502
94.6265107737379
94.6184826512019
94.644705051868
94.6474122918669
94.6970946455266
94.7733749620571
94.7327725720107
94.6867398478462
94.5946976866917
94.5479521019867
94.5766762846246
94.53947910931
94.546736258536
94.517483526224
94.5759746855012
94.6259287381606
94.5858772069593
94.5236120325561
94.4375071999983
94.389212148515
94.4259044801663
94.4885494295668
94.4773242584969
94.3708836683321
94.2860515629786
94.3278019784143
94.3406607745839
94.3272736273716
94.2315467375281
94.1625008743376
94.2571554620665
94.2598261553045
94.2499738913107
94.2236374076667
94.1561089440987
94.0467591464499
94.1506659712147
94.0781401711958
93.9978984412973
93.7830522563878
93.7748051390605
93.830630610913
93.845498555831
93.9472243863203
93.8183617472199
93.6240535971009
93.5620124992874
93.4511166362924
93.323470698818
93.3064087504041
93.0093836623836
92.7289680987397
92.5383788815876
92.4798279128509
92.3685640859599
92.123087695533
91.9619883185964
91.8229160074189
91.7537310041933
91.4638296579906
91.2404225991617
91.3902720837498
91.3695235592328
91.4896921822421
91.419642796822
91.3822197829897
91.3365293735278
91.2743181169433
90.9915905133034
91.0084125671379
91.1236755545098
91.2235588171373
91.2284286163233
91.062378262119
90.8515630273117
90.6304181745877
90.4640021977804
90.3105106710042
89.9208287089307
89.9598056043656
89.6386728740768
89.7114931665846
89.6135566475428
89.4207099164889
89.280333629788
89.0900042086298
88.7107416816623
88.5356363138804
88.5213636253953
88.2810783503758
88.2264901292199
87.9199683988998
87.7212587327169
87.4328351942593
87.2239115562059
87.2593709401221
87.1880939276571
86.9431594202141
86.7308163061168
86.7242710796518
86.6833390218369
86.488692809314
86.1411900383592
85.9532192820666
86.4289581511756
86.3595933900702
86.1406041544265
86.324160651025
86.4268191444662
86.4333888622436
86.4130144231224
86.2422011354666
86.0306048271382
86.2073821730006
86.3223500175024
86.1914841920981
86.1500237200229
86.0533483553334
85.9319124285764
85.8483077982513
86.0454429854963
86.0121565134624
85.8940332553025
86.0210266508045
86.2379645526834
86.209199279928
86.241391970795
86.2902986419165
86.339224195534
86.3725338107094
86.4246401588135
86.46618920287
86.4970743259201
86.5387123761468
86.5336406542358
86.5454340477249
86.5733022329842
86.5807346608065
86.5684847772584
86.541464045503
86.4749244946716
86.5076676333521
86.4873221862226
86.3751809427377
86.179651972225
86.4111281356486
86.5200264884963
86.385765991396
86.3517143560084
86.4999340553554
86.5330299401336
86.6408872761576
86.5481295369632
86.0289076834633
86.3253824040307
86.9609237349567
87.0581334367702
87.3005071474341
87.3311142757727
87.3789778414172
87.5112035176329
87.3665330569936
87.3262090983571
87.088156281589
87.3206269865999
87.7760614253745
87.7898213759588
87.5365154717062
87.7104848693432
87.7208581502569
87.5597904165255
87.4627684797273
87.3818180225412
87.2303348312046
87.0650744184558
87.1846735958391
86.945045766218
86.9604041209134
86.9542690247212
86.7500265729633
86.4867074839392
85.9909556991064
86.0046113101721
86.3215775766446
86.2125163198452
85.9537061551021
85.6382403805795
85.4066682957252
85.3782309905542
85.2170154169229
84.7815582019536
84.5370162757358
84.4650908598477
84.365560894731
84.2442571093198
84.0165069429766
83.8284765973192
83.5968578154978
83.2851035580071
83.0700927770221
82.9073057567853
83.0926632454663
82.9895695424186
82.7328324673335
82.5698625037171
82.6242784946526
82.4732583319564
82.0706486706752
81.7904188448873
82.0024457038729
82.155593402314
82.0518660088106
82.0479413637924
81.9429598916676
82.0114030327757
82.0095022001021
82.0430671919295
82.0230820144474
81.8817159502489
81.7009982676296
81.9321808177191
81.9227974666219
81.7750357521095
81.7430540470569
81.6750476493953
81.4881619425469
81.3022509263956
81.1868658043216
80.8413466552655
80.6314533915732
80.5743052228517
80.3292301308927
80.1054694547217
79.821214816362
79.5687204547312
79.2375063010885
78.9241611260662
78.6828268734921
78.4164177632957
78.0913683128544
77.9868377134929
77.8363339966455
77.8456321475096
77.9814563348374
77.8909167625631
77.7675223092813
77.812006504022
77.9268479057672
77.8823481296376
77.8844568499463
77.8683900336702
77.8021981319385
77.7259546289212
77.8323682818675
77.987348999471
78.0097920226383
78.1115136231479
78.171392924146
78.1173638314039
78.1680265114182
78.3852669682203
78.4894433544245
78.558486838182
78.6539581377666
78.7837716774768
78.8677188895986
78.9569921334532
79.0812882177596
79.2163405114486
79.2913752346949
79.2825749174089
79.2485470778387
79.3887398483354
79.5545932499645
79.6851795724388
79.7511355706931
79.8077300019869
79.8754643087
79.9439739657601
80.0074138088699
80.1039901856737
80.181792855763
80.2191756987629
80.2946702670258
80.3887739863442
80.4674443052977
80.5850296827327
80.7060276744464
80.8043698189151
80.8991774554659
81.003837129055
81.1265191353397
81.2541702455499
81.3547870847169
81.4594845128041
81.579599980461
81.7115910548516
81.8299883686564
81.9346478703865
82.0334135923984
82.1623377684182
82.2851737736894
82.3969451086301
82.5067277096754
82.6295279057572
82.7451705097438
82.8584796054031
82.9594845636677
83.0421733681461
83.1422022703218
83.259439155467
83.333935831678
83.4178915094216
83.5249113349178
83.604321914189
83.6615448941527
83.7021298725438
83.7613449647038
83.8386237945766
83.8930304877645
83.9515007880552
84.005936178604
84.0563135781756
84.1014803893045
84.121257499939
84.1467967248976
84.1978678828285
84.2384289241263
84.2758558602476
84.303600947469
84.3247668173621
84.3294983160903
84.329718611244
84.3332492699873
84.3359682160336
84.3122569550135
84.3094439753524
84.308524950282
84.2899659797538
84.2643753111897
84.2300613658469
84.1993436170234
84.1589026520305
84.0717808264741
83.9623839168882
83.8382618087065
83.7345271348547
83.6452017510585
83.5314884301501
83.3739227131009
83.22421887607
83.0833436109957
82.9202334201871
82.7122882252957
82.5371445499356
82.3752870996604
82.2090028306178
82.0705550208966
81.9886723468727
81.9491889129578
81.9611113888328
82.0247598162099
82.1365685011333
82.2464705224546
82.3738157877362
82.5221029198297
82.6169139292877
82.6623979535245
82.6904864828795
82.6783194412566
82.6294623365298
82.5619752591235
82.4766695770176
82.3727900128959
82.2740068908792
82.1370685227454
81.9492720533084
81.756820950569
81.566598244809
81.331496541159
81.1136721255131
80.8791162714721
80.6182187672821
80.3784525236916
80.1498684588697
79.868183344457
79.6050263123439
79.379493159423
79.1413868449533
78.9013616201377
78.6793897639315
78.4674779394757
78.3105834358315
78.1781976289823
78.0356810026378
77.8988550268058
77.805882648984
77.7403060420743
77.7032702220629
77.6812877022527
77.6927712342011
77.7693846194477
77.9239562373056
78.1651257374579
78.4842191309186
78.7999488483187
79.0884978047336
79.3390031532149
79.5506545248449
79.7264064105547
79.8772455287405
80.0020920664494
80.1305340595309
80.2262966867744
80.3139615812884
80.4102677570924
80.5042623768353
80.5546935558948
80.5913531993545
80.6583940830918
80.7218015948244
80.6991287737864
80.645020240657
80.576083704203
80.5024438341777
80.417480832748
80.3413350699512
80.2437201743148
80.17443011872
80.2522479009105
80.4611543721213
80.6724262839785
80.8521939719118
80.9931295149062
81.060360433373
81.0223558891706
81.0123668474085
81.0862605645533
81.1713967210633
81.2340426115295
81.2557892769212
81.2573222737455
81.2633369964424
81.2584508906044
81.263447554896
81.2312067080786
81.1978472996323
81.1932963622233
81.2297927287029
81.2738872091155
81.318474269599
81.3460022563784
81.3883452561153
81.4365638439665
81.4777940568349
81.5201470701756
81.5329664669257
81.4164394148963
81.2390178328463
81.2367139541363
81.4919393821228
81.8127449560812
82.0715870437743
82.2640061570776
82.4412152340254
82.592765169416
82.7320319089852
82.8550556126144
83.007380200321
83.1753489258376
83.3000575396483
83.408718340924
83.5246089849415
83.6413923602643
83.7640631429052
83.8903638493108
84.0184456291357
84.1131484593536
84.1857858274943
84.288574496079
84.381802181002
84.4420083846059
84.5586107184923
84.6654040989056
84.7081955784652
84.7706819807193
84.8951330424795
84.9938627869534
85.0823252193763
85.1933139043153
85.2458546530069
85.2645099581368
85.3552737752446
85.4605034405548
85.5163150670669
85.5755514135406
85.6494054375314
85.7195942329531
85.7926647727918
85.8377919698805
85.8768788668126
85.9492453432866
86.0158154914617
86.0639635866402
86.1442708321564
86.1890495183677
86.2294015091956
86.2754999699754
86.3584769433872
86.4213528912554
86.4500235579426
86.4539192135013
86.4056469051626
86.3070781098308
86.1754838780103
86.0234066415058
85.7680260108473
85.3385613714131
84.9551756075182
84.7734931518415
84.7324436017828
84.76190889994
84.8375583506114
84.8856976084678
84.9310096678927
84.9867166978242
85.0764893812456
85.1843419916657
85.3120202373637
85.4264878127782
85.4414250070445
85.2687805187945
84.8659686720461
84.3829525335607
84.0537346781814
83.7239392381484
83.2266453995825
82.5979820272568
81.9484950239072
81.2503946067735
80.5062630096277
79.6956530458315
79.0514288521052
78.9115800470667
79.4127615369906
80.3777123441743
81.5237141419416
82.55294252445
83.3619458278309
83.9160253808301
84.3004115270177
84.5701589387518
84.7615956579695
84.8868435467202
85.021626402306
85.207918947398
85.3519771048622
85.427587886712
85.4935108154454
85.594262093612
85.6871423468837
85.7059274708663
85.6940545541836
85.6794937719106
85.7138177824225
85.746934635473
85.761488676305
85.7312457963823
85.7340307676788
85.7359456056218
85.7464286411365
85.7781193132973
85.7846085626902
85.8288605308769
85.922864901718
85.9932900626612
86.0473254671137
86.0889133119378
86.1063293546894
86.1348720670957
86.2468375228444
86.3387826971773
86.403929549753
86.488094681431
86.5501022227183
86.6009882495092
86.6548911425203
86.7359120201618
86.832927265877
86.9308624205665
87.0087006608338
87.1117229211835
87.2485425966805
87.3497024574713
87.4468928474387
87.5259045221855
87.5947568481449
87.6703511252952
87.7796673295492
87.8519969169336
87.917778866627
87.9018605527386
87.852244003687
87.7460653768206
87.5719402945637
87.3303226191267
86.9495616324213
86.404062367964
85.7807458965544
85.0333091292792
84.2189086493024
83.3455898542681
82.44829272925
81.6764652473747
81.193272464673
81.025254698075
81.1227783184584
81.2138539672668
81.1895301113114
80.9568493823493
80.6137856699943
80.3263915921671
80.1196196871972
79.8724344429231
79.723442864071
79.5608130029043
79.3771580861551
79.2060688678219
79.1196562743969
79.0695927446532
79.0819617149322
79.0726034746876
79.4223449719028
79.6225901406311
79.7306107002462
79.9368419557528
79.84310964474
79.6674901928596
79.6404249897853
79.7535730865311
79.8144623318139
79.8191611552779
