1798
3999.43349933624
650.420452594757
1
128
4
96.7227023405316
96.7507177186353
96.9240569211568
96.9286803325051
96.9804094428629
96.9297622338378
96.7529038436792
96.7688387817283
96.9921191236865
97.0537350726421
96.9067443785889
96.7717268687347
96.8198110707157
96.8952680579124
96.8571801108931
96.91654686205
96.9034158191335
96.842515330279
96.8413060870733
96.800075855967
96.8294906601678
96.8488303447536
96.8873664957271
96.9267222158376
96.8598488814674
96.7394054564244
96.6960366318222
96.8033612849722
96.8403325075018
96.747085088021
96.7844426409781
96.8644272739285
96.8744645710464
96.8250118938851
96.7634641058192
96.821029045633
96.8874728777913
96.8477935646649
96.7986364195842
96.817264938194
96.875299307281
96.8600016726494
96.7962706107709
96.7835135655313
96.7850584946131
96.8145601805836
96.9010454308692
96.9363608164964
96.912679493631
96.8537357963776
96.8354767746883
96.9208611308569
96.9881308838567
96.9953335838031
96.9598434718553
96.9069887438503
96.9039946011881
96.9548910996917
97.0011859676602
96.9205302831941
96.8594917751885
96.9603019429524
97.0038811879121
96.9235326172725
96.8920985438192
96.9737645784148
97.0010461248657
96.9203373286755
96.8658477956992
96.8770114628171
96.9152056786326
96.8842476781797
96.8920475635055
97.0138796334832
97.0751444348946
97.0463016269708
96.9942459067489
96.9442315640648
96.969335353534
97.0108057139075
96.9410156421527
96.9029155605501
96.9635347231844
97.0318270973948
97.0558616119353
96.9927300156245
96.862737008806
96.8120967955405
96.8134291245427
96.8347773653972
96.8697934129282
96.9117315592973
96.9971420733119
97.0255460814024
96.9880243228084
97.0179319630327
96.9853564650114
96.8502046973075
96.9120965081498
97.0764618216584
97.1105049715574
97.0102483700752
96.9533556798005
97.056324390227
97.0451159541622
96.9358958686994
96.9710206209373
97.0118021242952
96.8596830141107
96.8058612429426
96.937007039689
96.9616732240131
96.9720901092099
96.9777687818322
96.9276779134192
96.9300505300369
96.9285972419843
96.9255818515037
97.0699855883496
97.2036984607736
97.159421524653
97.0223921792987
96.8945297430514
96.9174866040727
97.0699947810452
97.0834672331179
96.99927886648
97.0664373495572
97.1739302086584
97.2273585855404
97.2388399736604
97.086347123956
97.0126368308825
97.2207683108618
97.2843007999414
96.9938835249254
96.690201110385
96.8136073454125
97.0217511170363
96.9664012015781
96.8725443910648
96.9464653094818
97.0379163866221
96.9669962243884
96.9252681987925
96.9468702439249
97.0409240531274
97.1167253566145
97.0271496718952
96.9974226965402
97.0696799549822
97.0778300208665
97.0011114812624
96.8807744237563
96.8620789310758
96.9529252667174
97.0319507793913
97.0263761100895
97.0034418824338
96.9449001082691
96.9071705636766
96.9987649237841
97.066832971415
97.1566907016109
97.1962689525748
97.1205000930048
97.0530728492784
97.0469791513789
97.0390768929601
97.0460751886346
97.1691599746456
97.2248317209512
97.100408376133
97.0576191746226
97.145262827919
97.0787870316916
96.9088429077739
96.8450376664839
96.8901711643361
96.8970716341832
96.8734680820297
96.9685394506079
97.0473842589286
97.0100687389401
96.9603861966842
97.0065690950907
96.966544393039
96.7605002736874
96.7900775163854
96.7821194662097
96.6399606587066
96.5859033147117
96.6331683281636
96.6928145399441
96.6253446531414
96.6126740429292
96.6460766517004
96.517311452689
96.4678583907913
96.6112973148437
96.5757092051253
96.3793635758767
96.2711743085607
96.2955287624377
96.2316965146228
96.1228509397017
96.0170892735963
95.8213083801971
95.797726212475
95.9984671225255
96.1208776506965
95.9785548764432
95.7934150640825
95.7575303509847
95.7734801741581
95.7669343344705
95.652740910943
95.5559580417426
95.5415093704146
95.4087897545808
95.21931302454
95.2265593907616
95.2174365489562
95.0751483924136
95.0663260559661
95.1749023927089
95.241163406862
95.2920998972647
95.271036684521
95.1564784328455
94.9742302339481
94.7879463606122
94.7018359984242
94.6199215394176
94.5751730089404
94.5246701381884
94.5174376962958
94.5636498978329
94.5008693528816
94.4439490461655
94.4111983355009
94.3318304260842
94.3397871132393
94.2903565908913
94.0862659606497
94.0060191829831
94.0808546178768
94.0141316860318
93.8794054483222
93.9189953526267
93.8931496724007
93.7991408173668
93.809663420005
93.7791663133486
93.6847239646723
93.5758571262963
93.4918883234236
93.5160022919447
93.4515519421411
93.347463814323
93.3380732556646
93.3500098323595
93.367622471243
93.3096395064692
93.2057436640052
93.1153321385278
93.0176102810905
92.9569790809987
92.8680043083794
92.8474023998873
92.8559700393034
92.7507548504505
92.6290585285184
92.542634989429
92.4742095330422
92.4165271866907
92.4214877022037
92.4659619587362
92.4007517105464
92.2937566778525
92.1492878726904
91.9556046414917
91.8840880103687
91.8441614115278
91.7788452065081
91.7635530989211
91.7434068993906
91.7408922711024
91.6885611822663
91.5743459708591
91.4641908325141
91.3866696816662
91.3462335437474
91.3107761765118
91.2135945676664
91.0852973976281
90.9208606956873
90.7897593644258
90.8090434312645
90.7658957992875
90.7208796642242
90.6845003490249
90.5498658256571
90.4100657636697
90.2854803705787
90.1784595493553
90.1292977484904
90.0694945198845
89.8702568636472
89.7511945971374
89.7509160533533
89.731810680621
89.6552272984838
89.5214940881632
89.492289523624
89.5401295101912
89.3420724878274
89.1490187711848
89.1856066682979
89.0776783365947
88.9015126482802
88.8869534035874
88.9075649359353
88.8929637109073
88.802487328356
88.6749038156852
88.6413956520974
88.6420233925066
88.5685742878442
88.5572890092809
88.6082626233066
88.5836860862897
88.5695819376858
88.6333309003565
88.5702517698657
88.4678282372609
88.4432321421699
88.4451497931132
88.4512347428775
88.4526039476176
88.4560923535077
88.4669165094224
88.53164268271
88.5698704852752
88.5591285221018
88.5681841779857
88.5098820549815
88.5027179361133
88.5630846833042
88.6507099218123
88.6692244664021
88.5598099928001
88.4999490126771
88.4435109048461
88.4369628303393
88.5002700831495
88.5326511669284
88.5286009963788
88.517035291054
88.5463820952644
88.5300652434866
88.5632942212343
88.568143754946
88.4649749405242
88.4562394571995
88.5657156729896
88.5832961138104
88.5828982233157
88.5858178029816
88.5067803885506
88.5079237950051
88.6218464592546
88.6665140146894
88.6224427469141
88.5908574358459
88.6204804861256
88.6731323813976
88.7159275403406
88.7517744548039
88.7959418085748
88.7349385029539
88.7155964202835
88.8344364357158
88.8915701060694
88.8586299822282
88.9171662059982
89.0054017598762
89.0415401951457
89.1337486445557
89.2003839397537
89.1617946489156
89.1820882755025
89.2498741025994
89.260962845604
89.2575439649808
89.3181085004351
89.397814073856
89.4311931123854
89.3666302760799
89.3010897972478
89.2994288872492
89.3805089390545
89.4761757865974
89.4679600236583
89.4410515831411
89.5079584401116
89.5557042571741
89.5607459769727
89.5756302866175
89.6214800900061
89.6300709608641
89.6048796932747
89.6443034927078
89.7997357206918
89.831351065492
89.7949300259913
89.8550236831872
89.9469387019022
90.0190553933709
90.0301240301894
90.0544938374447
90.1868827754814
90.2482929018207
90.2665754082922
90.3243445387602
90.3747948159996
90.3753155798314
90.403348066175
90.4853694064115
90.5154263898075
90.522894446795
90.5846059500413
90.6251314971286
90.6450090148955
90.73951818446
90.8610716484252
90.8948504546289
90.885992971062
90.887102311903
90.9218112070054
91.0389112786818
91.1572121452187
91.1217795326406
91.1219635920621
91.2135648308466
91.2487634816275
91.2799502418018
91.341114198046
91.4277910031702
91.4291286655073
91.3832135518349
91.4778420087472
91.577295520894
91.6828500381467
91.7799523459069
91.7855873439381
91.7395120461113
91.7698729896832
91.8345144701207
91.8786703426443
91.9062805098274
91.8815922744835
91.9217071170035
92.0380383911822
92.1152101534208
92.1395811214238
92.1507244334988
92.2159663636696
92.2852105076934
92.3001870705442
92.2681611917567
92.2736338626537
92.2833332465294
92.3149926607339
92.4555447374526
92.5547470029001
92.5753191489469
92.6204238224506
92.6731059613577
92.6994315622399
92.6640136624145
92.6858667245717
92.8095938818645
92.8525355263127
92.809125977697
92.8481227455896
92.8902883817251
92.9140682977188
92.9829149631552
93.0279685770289
93.0368640915419
93.0767947896541
93.0785946137946
93.074862412555
93.1241132262086
93.2062060744204
93.2444374478732
93.2432159453924
93.2676590636651
93.3499764231117
93.3900810551733
93.3091933974944
93.3192202809876
93.4226486712775
93.4591148714007
93.4601422797066
93.4978530301492
93.590697816691
93.6285209221698
93.6344756009285
93.6462223975339
93.6458235640001
93.6662208594271
93.6754986264557
93.7155283196816
93.7677176569422
93.7964950556506
93.8847646019848
93.9278677506588
93.9087786424963
93.9224472120224
93.9111859935677
93.9412280944027
94.0256641703603
94.0580309117322
94.018715130922
94.0075792830689
94.0494779757656
94.0767926950735
94.0908145558046
94.096026987521
94.1358567537531
94.1946668218648
94.1680782055666
94.155128140341
94.2190035460634
94.2609316320509
94.2814032117667
94.2885848775498
94.2940979786955
94.3665657898698
94.4003360895306
94.3917331728655
94.4440613372632
94.4622089406318
94.4354812611365
94.4383454428529
94.5021204819568
94.5150440003267
94.5057933222299
94.5004217401933
94.5120030245537
94.5229546664796
94.5161621297424
94.5375493942113
94.5643520926833
94.6098477143898
94.6446472378631
94.6063802570531
94.6019522473374
94.6362323926691
94.7214231048082
94.787132360649
94.7197237664754
94.6853291106799
94.7144380515337
94.7557687775541
94.8746298764786
94.8996066404102
94.7586689845621
94.6949306355573
94.7993997898313
94.9043433020771
94.9193105364484
94.8829260813326
94.9043663338495
95.0150627102063
95.0321008927873
94.9430438826632
94.9208893408887
94.9734453008027
95.0155133265224
95.0630087382179
95.1248166495287
95.1260044702789
95.1120662021906
95.0555896487849
95.030825530812
95.0850365386571
95.1291947156252
95.174107219025
95.2134524683851
95.2584811912001
95.2757929488539
95.2394811117539
95.1876537675804
95.1641043481299
95.1891258821304
95.1855699089853
95.1433854223641
95.1119890742764
95.1351541292223
95.1943909017648
95.2562470733931
95.3201513926755
95.348804845914
95.3552919661049
95.3204042023099
95.2976244203731
95.336633375465
95.349948177315
95.3730219112029
95.3983627205005
95.4135521339191
95.383989620068
95.360384968266
95.3955942536584
95.4358620640556
95.4348914789753
95.4139297172881
95.3865016039497
95.4037019299319
95.5011905726856
95.5650495180218
95.563784840056
95.5534216760664
95.4919550774416
95.4884703028771
95.5423902884004
95.5459762471299
95.5168015052109
95.5395565556907
95.5686286545334
95.5443751731618
95.527194076231
95.5163915299457
95.5263974781467
95.5545982766921
95.5449406199731
95.5606002336076
95.58752934368
95.5749315361407
95.5657055004705
95.5692304119238
95.5988654978049
95.617025988483
95.5876622042029
95.5735570747751
95.5777053373493
95.5781403682202
95.5730541701494
95.560326287285
95.5584727540244
95.5455491925746
95.5397698253812
95.5305367424171
95.5178323370217
95.5619269532052
95.5942230407977
95.5728703938102
95.5591853859842
95.5684301825501
95.5481089092755
95.5352370264147
95.5369286861439
95.5589385801187
95.5970088128156
95.6261026431
95.6198756688299
95.5837274955019
95.5980553011293
95.6677679575902
95.6991960674091
95.6516379141323
95.6005274150476
95.5848959109828
95.5862841077208
95.579527648736
95.5564789111226
95.5384621742006
95.5309322063341
95.5308055800887
95.5626589421034
95.653764259688
95.7175819160392
95.7405397300351
95.7419316053982
95.7493632368667
95.795743043091
95.8235574646903
95.8502789968731
95.8638768254104
95.8394758186705
95.8811982487327
95.9186612396092
95.9172303913344
95.9470004830726
95.9628393001142
95.9731249862358
96.0215896001357
96.0541629606474
96.0347667198359
95.9993053759159
95.9817290411572
95.9789715218782
95.997457170751
96.0173553738472
96.0338839744779
96.0712592466516
96.0906132755007
96.109946340766
96.103461425539
96.0992575681805
96.1446148906102
96.1458908710147
96.1140717630162
96.1089663767843
96.0959768239756
96.0983812830767
96.1454908524584
96.147608493731
96.1382283611723
96.1786577567381
96.1769853808878
96.1212514741232
96.128928481217
96.2025878182399
96.2100324244461
96.1437667540004
96.1472763991693
96.2317752004071
96.2622168024888
96.2678007691143
96.2935878969786
96.2959426695069
96.2975418238751
96.2981919848785
96.2958177157896
96.302040790269
96.3428337252005
96.4001420539515
96.4500261499574
96.4062525596714
96.3637231839069
96.3813123438158
96.4109517103912
96.4283071325661
96.4548370612648
96.4470029935927
96.3961647621988
96.4168826513783
96.4734203013511
96.5556743558519
96.6257624366754
96.5927828595142
96.5261412694734
96.5616373158713
96.6084207706825
96.5946564057483
96.5688173507961
96.5597894585482
96.5935873144365
96.5929820545169
96.5426816809069
96.5330662196777
96.6035645564811
96.6122038966578
96.5659463438423
96.6031892279471
96.6741430420688
96.723697154687
96.7639298182529
96.7167852148255
96.7258697512339
96.7867471763728
96.7672500327187
96.7460516420566
96.7914296816992
96.7632120554643
96.639637083783
96.6558837792796
96.6966263430609
96.7219974882291
96.8154508925429
96.8976467845395
96.8653626101734
96.7888008246854
96.7481716131501
96.7159777200042
96.7117315584692
96.7928265772228
96.84787678159
96.7848919720894
96.7440290130278
96.8082802412454
96.8292303468622
96.7640056836112
96.7555415901612
96.7817662121847
96.8130360795363
96.821323098648
96.8221073821457
96.8083377339843
96.7807749115892
96.8026124132329
96.7911402028692
96.8538009911678
96.8312615640579
96.7665740402581
96.7383853257338
96.6823272175253
96.6569942117645
96.7243110187547
96.7817667144329
96.6812498382317
96.5869600970716
96.6306815447984
96.6581976363719
96.5987471510109
96.6533193136559
96.7053598715117
96.6426919498646
96.6620747144065
96.7014578870276
96.6974511478644
96.6831933720765
96.696883842302
96.7402294925375
96.7390436987369
96.7149959873729
96.7073800039885
96.617327106393
96.5724239462377
96.5994561697346
96.5942278961157
96.6017875454779
96.7190404619459
96.6893397400381
96.6475982440609
96.6905480626462
96.5943279726578
96.5137518912045
96.5105414988548
96.4760100017312
96.4585147260525
96.41204867327
96.3318738841753
96.347564457034
96.3776748847175
96.3960171794339
96.4417713390962
96.3849370242162
96.3613793434261
96.4079603587333
96.3298173666599
96.2077587794972
96.1072992343954
95.9670733752378
95.7992165678027
95.6551598762179
95.4708031399147
95.3738332742811
95.4255085909375
95.4680381695117
95.5268783514767
95.6957941571025
95.8785786674135
96.0376937263233
96.2360409187577
96.3751801823456
96.4390941551985
96.4807243573685
96.5602848715093
96.6788095380317
96.7676110310499
96.816263092013
96.8140121900959
96.8283395352936
96.8787634368381
96.7847777112767
96.6428549985383
96.5922182772161
96.5558704497567
96.5310078608498
96.5277805413664
96.5774363716727
96.6250434835757
96.6821035443518
96.736553060496
96.6872088057734
96.5844511248802
96.6009257281726
96.6471933030423
96.664931029029
96.6312167140772
96.6439528295484
96.6875144206291
96.6616974416109
96.5776006243985
96.4522525506907
96.4474360219122
96.5124790917007
96.5660327465992
96.562869849294
96.5804031889542
96.6819655620991
96.7737717375829
96.7469624516876
96.6507958854898
96.6426453231153
96.7149739024209
96.7412367189339
96.7264874239647
96.7268924188378
96.7046902509214
96.7384426311724
96.7354983562947
96.7005939468746
96.8275434047037
96.8891397758051
96.8386217728744
96.8771362381712
97.1002853430653
97.136599594846
97.0365363777018
97.1004236817428
97.2151494042799
97.1950507789198
97.1307991078269
97.1649831816737
97.2621510949314
97.3113912514238
97.3140683182376
97.3498444106507
97.5536996924514
97.5709213274271
97.5165262524983
97.5899672588339
97.67340961109
97.697023840017
97.5764133099998
97.4579602007706
97.5625965376183
97.7439958979056
97.7700185659752
97.7333351874321
97.7890723440367
97.7384272094931
97.7581390890779
97.8909994974559
98.0827997268286
98.2485202508073
98.203523554338
98.0756612467279
98.1317982349039
98.2167255541065
98.2759972339082
98.1164306445742
98.0021977392502
98.1563238242967
98.3026391967309
98.4445116142799
98.5271129735797
98.3198327475295
98.3436267159243
98.7739378086278
98.703280600847
98.3287792887657
98.5186354159112
98.6164859708401
98.5444317248218
98.5821696817994
98.5536538447337
98.7644904306214
99.06558500809
99.3851892140001
99.4699487701381
99.1313605504908
98.9348888657543
99.0725900253079
99.2186828972135
99.26405008614
99.1494854414329
98.9415267100641
99.2012083156739
99.7892614930021
99.9280995929044
99.5541479916967
99.5441977379521
99.417771052332
99.3327520397004
99.2375840005772
98.7044861319857
98.4307933533723
98.5857659301282
98.6201815420021
98.5379004223784
98.5770286435064
98.5174165723983
98.2275012909496
98.0408327371137
97.9557582535939
98.0878507766857
98.0311576136799
97.8931140277566
97.8716558471275
97.8514763075356
97.6979318316167
97.6546631188453
97.7161562649916
97.6122226901933
97.5377615776986
97.5949654922852
97.6496397177452
97.5756705635227
97.5665582537447
97.6712514536278
97.7558016924985
97.7386816659076
97.5463791381499
97.6346439901907
97.7351517187431
97.6202656884393
97.4759563114721
97.4624320224212
97.6255432918404
97.6747073342914
97.505528429937
97.3510637011382
97.5172916027261
97.8504165013083
97.941550436542
97.8644662663783
97.6873634254095
97.6845473981326
97.7708982319713
97.8393580390419
97.8350728063927
97.6586187174887
97.7497662515663
98.0637456969616
98.085765531636
97.9754551646515
98.0579505870427
98.3899176051687
98.3333162588176
98.1623820220568
98.465797929043
98.7626455248016
98.7490379027903
98.7895922849291
99.0383337802818
99.2489215512358
99.1299559989854
98.9779507088022
99.1851700606033
99.6115752225286
99.5476678104082
99.1951562542272
99.2868321211938
99.5317847606792
99.409352728907
99.0542500822858
98.8318303290232
98.8482445589784
98.9004659416259
98.8730873876107
99.116982583792
99.2766236854641
99.2691548100298
99.3216122373214
98.9665316893143
98.8455288206843
98.9776802542541
98.6946041122129
98.5749815994375
98.9342272478726
99.0295111004906
98.8813107396577
98.7822606476434
98.7629872952286
98.6649812939634
98.7966936007181
99.0319312833889
99.3471501140099
99.2260634621433
98.9058852926936
98.9429612110676
99.128493501844
99.0216373831241
99.1128533443303
99.0749634979887
98.7698218111711
98.7588578931435
99.0447323744104
98.7402372976812
98.278297117373
98.2957590526312
98.5823852581851
98.5758409279056
98.2684686017793
98.2992011926209
98.5453352121254
98.6035712350054
98.4672375228178
98.2071764227662
98.0658423912251
98.0347014830543
97.998676729781
97.9420133109008
97.9487473514816
97.9954418614319
97.9943811316803
98.0982670996899
98.160309803262
98.0244964818099
97.875737645625
97.8936958844482
97.9817096165159
97.8923849782819
97.8094293615454
97.8742305914665
97.8800851198987
97.8040140140787
97.7318502399116
97.719555219843
97.8201610688447
97.8537506132359
97.8171228889538
97.8267740681033
97.8028426587363
97.779807363013
97.7887730847585
97.7495910290412
97.6615541495726
97.6297757824123
97.6842247722448
97.6772952631175
97.6471003449093
97.6298703705296
97.7119488751534
97.7244578851482
97.6640660477685
97.7333356702401
97.8024085592021
97.6710842001694
97.5766265988691
97.5681701859677
97.583260419674
97.6825891264964
97.7070964590836
97.6205048696776
97.649692524597
97.6910448855682
97.7008771738135
97.6565233120018
97.6122440120269
97.6448573419314
97.6602276718343
97.625477482311
97.6591210394889
97.7105072733617
97.6841415152096
97.6574993864124
97.6385449813305
97.6247079912806
97.6038389051595
97.57593363991
97.5704293826875
97.5978084647792
97.6207983577501
97.6405237284293
97.6530099452609
97.605036990069
97.5404351771405
97.5548941414268
97.611756387998
97.6295398190983
97.6030849309395
97.5740399169044
97.5986773249888
97.5909851849623
97.5519359546088
97.4984093596253
97.4895868230842
97.5430516995938
97.5237973032871
97.4768131400327
97.5024797285199
97.5113765201939
97.4759869027384
97.5122703603673
97.5377872129023
97.4611918213084
97.3623288448458
97.3687500160421
97.3990379911117
97.3034772754764
96.8790490658066
95.831653072298
94.8723873206167
95.1801121474211
95.9894536394969
96.455309217913
96.8180255656159
96.9681972337408
97.0054507519539
97.0774539697443
97.151374722298
97.1775728565071
97.1416925206522
97.0981728148501
97.108492999683
97.146468177719
97.0542782759731
96.9008143643083
96.9930085052695
96.9985050233744
96.9102742114592
96.8449892059368
96.8350874561562
96.8487552508721
96.856525133852
96.732781752485
96.6362426693123
96.6538766837105
96.6075477928774
96.5346466489128
96.4463847987053
96.3793636027766
96.3780352781192
96.4128429136233
96.2906994151315
96.129079065836
96.101703107334
95.8389394230688
95.6626309070913
95.6596049717484
95.5325184032013
95.4045239796102
95.268404385624
95.0475446024273
94.904706883285
94.9897962817157
94.7736411637288
94.4806911636228
94.2806268794654
94.2538460971447
94.1350887204334
93.83655522428
93.7187056379318
93.7516655323153
93.5800650198911
93.3324443293624
93.2869076790489
93.2917937533076
93.1542906545432
92.8837242880751
92.6441615349187
92.8869355977418
92.7683522240005
92.1836791327775
91.7871575056921
91.7333996223547
91.5349735262434
91.2419702255115
90.9519383143924
90.6620792406474
90.6903262293793
91.1283796458342
91.223010557607
91.2147601726516
91.3379340510825
91.5185419199641
91.5983286551496
91.7813019105892
91.9211908210211
91.818200457478
91.7705193634457
92.0683454509637
92.1677793828603
92.063620485347
92.0569081745216
92.1566998130229
92.2882786385154
92.3236787997933
92.3558020572215
92.4450937344444
92.5096423165055
92.5344757540091
92.6062733527966
92.6798288274013
92.7145985488743
92.7437294097208
92.7999175653217
92.8766535755335
92.9629734049871
93.042678574147
93.0419240085957
92.9096358964734
93.0076716071082
93.2911143503589
93.2045982372568
93.0444104687719
93.1756216675451
93.3197214778914
93.3461500749456
93.3647356306535
93.1771340113897
93.0244705740346
93.4329346566496
93.4144091818361
93.2364487628024
93.2492694484019
93.2804057705196
93.3607852931059
93.3463489623745
93.3037086458525
93.2306311498905
93.1935425472484
93.4196582993025
93.4205302044263
93.1808750481203
93.1236713599574
93.2855321627294
93.2545459982518
93.145551441344
93.1350155941941
93.1337888445078
93.0301839690371
93.1066962727479
93.0493314812553
92.9599712742165
92.9995720352853
92.9254369308168
92.8197303932959
92.6227330220767
92.4465191135159
92.7317793799842
92.7495972877427
92.4837078297916
92.2736542445803
92.2568603757753
92.3973051170139
92.4158354098603
92.2304074013422
92.0582401762358
92.0560419493788
92.0596552222652
91.9833126480776
91.8654971814961
91.7710645103481
91.7253607151428
91.5992312764542
91.4110540597769
91.2248308658322
91.1826333578293
91.1330240080254
90.9222059733007
90.7711232222686
90.8272747670244
90.9153752497511
90.7058480680053
90.3835919942895
90.2388770786534
90.1940927392645
89.7468828801194
89.1469358600495
88.5031651322307
87.8086923224197
87.0713332412163
86.3821614797572
85.7432320618185
85.1091232958414
84.5021744079003
83.9827349835644
83.3683395048326
82.6488925017552
82.3197577450632
82.4000667543987
82.2969029103344
81.8822925192582
81.4248265124547
80.8981630902736
80.3825732033409
80.040260966223
79.6597156178302
79.1744015219466
78.7204889945659
78.2923866015969
77.8487523062948
77.3898409005432
76.9649395537278
76.5254056955085
76.0286503992148
75.511966407914
75.0211170865502
74.5012542568648
74.0318713410143
73.4464245378286
72.773717217095
72.0834078528321
71.3843515390107
70.5997938171207
69.8035977952647
69.0122740362082
68.2809766580204
67.6028735183279
67.0735962906339
66.8713888561003
66.852117760663
66.8958474923853
67.0988600637955
67.2739401004406
67.4170511884432
67.7307111620664
68.1188020349678
68.3277489177996
68.4929848761525
68.7127036646762
68.9519839651365
69.148212659867
69.3803492616505
69.6464487057077
69.8950702412799
70.1205264109745
70.3220426418248
70.582115917928
70.949279112892
71.2297194707046
71.4577625745216
71.6837543582504
71.9554231403412
72.209471515214
72.4995018266858
72.7995468183124
73.0847662544037
73.3440419944019
73.6443279881243
73.9703144014067
74.2836207469353
74.5736214529034
74.8662206319929
75.1281347489354
75.3988621708185
75.6785993002968
75.9486159233542
76.1976098749845
76.4672121397444
76.7146065401852
76.9592072198517
77.1929782497388
77.4278271150163
77.6663521230769
77.8964442351004
78.1268784460306
78.3653252652354
78.5644671627877
78.7567449586132
78.9559299588334
79.1771871370492
79.3910902446651
79.5807812467911
79.7249187027041
79.8984066580561
80.084863185173
80.2674659981838
80.4307204974233
80.5885655419299
80.7424125569705
80.9133000839665
81.0716766591411
81.2314868626543
81.3879072079489
81.5419769239134
81.6643519106624
81.7799350344165
81.9157280880543
82.0776697476985
82.2160294577813
82.3506342001654
82.4867087640773
82.6060344258094
82.7207708298864
82.833720277199
82.9430892170833
83.0607251861027
83.1498375282914
83.218625629959
83.2789973268863
83.3586550925563
83.3901012242204
83.3817472888581
83.3417298942814
83.2516442884505
83.088174265079
82.8680520986107
82.5682880949608
82.1637709480968
81.6720798299242
81.1246654394918
80.5414790400412
79.9185730720993
79.3123717083371
78.80331086291
78.4406410165261
78.2800930342964
78.3151077954833
78.6396628555043
79.2169086586301
79.8868191285543
80.5147842351244
81.0056724609826
81.3362454550482
81.4991573922524
81.504123873636
81.3669283925926
81.1163623834528
80.7999863895754
80.3911910369343
79.8747670349207
79.2843796058041
78.6974740703214
78.1382361308127
77.5943926565291
77.0755589524276
76.6408566778056
76.2226404998477
75.7771397504024
75.2794943108034
74.7525661894268
74.2220994856798
73.6996214551348
73.1814344929874
72.6863376497054
72.2547275632095
71.9975567960458
71.9669178713182
72.08642962756
72.115281827998
71.8589174171058
71.2724894860594
70.5836669179229
70.1242226032259
70.0750103507516
70.3604295980204
70.80770422666
71.222996299942
71.5441170041536
71.746064493847
71.8448054172587
71.7965992660143
71.6258911696001
71.34154139282
70.979016683954
70.5568109085462
70.1334260141983
69.7698961395516
69.5322529914347
69.4082890448005
69.4588084666631
69.7044260669663
70.1102704199789
70.615812257667
71.2043992045936
71.8181891860584
72.487252131829
73.1783479547492
73.8751526916373
74.5837526570042
75.2889986526522
75.9486540648373
76.6348718172579
77.2795655611021
77.8218340792763
78.3454328303593
78.8642514166527
79.3608809556385
79.842420242553
80.2455589550541
80.6083336837748
80.9365066552029
81.1559930628461
81.4173948333149
81.8135018916456
82.1698564696793
82.4802537997506
82.7902398902237
83.1066488289272
83.3879566036511
83.6681481602651
83.9314821439013
84.1683050420511
84.3948971469768
84.620502783912
84.8199999422566
84.9991355996031
85.1826810108058
85.3771630011682
85.5688680978556
85.7435589222666
85.8914485995731
86.0509795746578
86.184489044056
86.3038603156871
86.447151916199
86.5285174522189
86.5143639281232
86.5103120974309
86.5871166339512
86.7344627460871
86.9014613858186
87.0643474178205
87.1979496776334
87.3085257454935
87.4014916926171
87.5027259384033
87.5791758821757
87.5911112231848
87.5529434987448
87.6092681197513
87.7689027397801
87.9374827912996
88.107085645789
88.262290306857
88.333372872941
88.4202286667691
88.528733630189
88.5937286259069
88.6549517177851
88.748027851323
88.8192808785862
88.888845826558
88.9720707082789
89.0353400488677
89.089539990262
89.1398497582258
89.1600724959087
89.2020734410025
89.2654827874267
89.3304754897202
89.3559609029158
89.3771568103639
89.4551005681665
89.5389932118482
89.5380140090009
89.5578469086302
89.6312080642661
89.7023491490996
89.7193836332416
89.7164864034073
89.7405029799551
89.8050421394662
89.8491975641436
89.8831295565408
89.8986809687284
89.922170916721
89.9475506602253
90.0046258833951
90.0584012058003
90.0865710444644
90.1097149006356
90.1254119361851
90.1114994840246
90.1382737115815
90.1552884485235
90.1683894670259
90.2074310908127
90.2404630183591
90.2559851865182
90.2621882308191
90.220797895305
90.19592271471
90.1698128177717
90.1407762113922
90.1149222897124
90.0544921638505
89.9722469218792
89.8814553575823
89.7229390464268
89.5734813612536
89.521573418145
89.4656659355698
89.4030347587885
89.362495274842
89.2769869385104
89.2153927700415
89.1748832088719
89.1661194691173
89.1406758978364
89.1671356125819
89.2906789866038
89.4038496350207
89.4648154034648
89.4769549286662
89.4850853443333
89.4784282143826
89.4291781506493
89.2994411407269
89.0017702184577
88.3651141411449
86.6579591478553
82.8894470836202
78.1028247128438
75.8527067468677
77.6537774955088
81.1718589337536
83.9962795199735
85.7205420066377
86.6775943973428
87.099801377492
87.2615050481327
87.5444247695248
87.8185254457293
87.9402063056559
88.0211962547831
88.0664402787293
88.0580911944315
88.0272657379105
87.9736796295281
87.9543209676281
87.9512941187016
87.8845642717825
87.7805802447836
87.6898592203422
87.6036423000239
87.5406429630001
87.4745354530049
87.3614278685474
87.2050864808127
87.0832471790643
86.9433507375672
86.7768486887697
86.5235195579894
86.2750640580996
86.0698709257974
85.877599036549
85.622822122054
85.3635836255296
85.1214271707547
84.9235110930542
84.7911167770966
84.6708804460139
84.5709095933484
84.5851390350226
84.5894321161926
84.5916958367087
84.6543309902031
84.7170931860713
84.7569655392683
84.8801268986336
84.9978179017704
85.0437243882063
85.0339602965357
85.0769232999284
85.1399946487505
85.2276348823582
85.2266487742299
85.179332683182
85.2179260887846
85.2900992037585
85.2586645159679
85.1320538118927
85.0800700281657
85.1258772813565
85.1695087246029
85.164234711798
85.1379832401432
85.1067105213564
85.0542214065401
85.0159050087471
84.9590718178398
84.8962622558919
84.8999205751366
84.9665553092828
84.9381183775547
84.8601512598969
84.8265255485104
84.828925748543
84.8705485890089
84.9066411303837
84.8699174738685
84.8739820873451
84.7931426352757
84.7838115849489
84.7658185096216
84.6441984579619
84.4774297962485
84.4657851805481
84.1025365442904
83.2381666085187
81.7557079070588
79.7371613964821
78.0955956772547
77.9102614331451
79.1959278996753
80.7376635067642
81.6041608268659
