1798
3999.43349933624
650.420452594757
1
128
4
98.3511965347024
98.3953876225573
98.5148159006171
98.5985171002951
98.5393387840321
98.4277250101716
98.3777087796269
98.4633532335017
98.5323191616523
98.5405591921076
98.4843208717651
98.4274125180605
98.4458056690706
98.4572605463348
98.3969320216453
98.4458337784711
98.4732026109232
98.4588547898093
98.4614512420157
98.4706623968785
98.4413910574102
98.3718355215588
98.3679341304774
98.3411935100171
98.2921899848856
98.3061537828141
98.4151011448852
98.5430781907646
98.4804039016771
98.4368164494357
98.4405111085736
98.5110937116393
98.5629670940309
98.5023692291136
98.3692258042854
98.3616807660916
98.4784414033663
98.520130294916
98.4566947038686
98.3809710394813
98.396337486303
98.4924846195637
98.5014735050939
98.4880739699817
98.4140248135301
98.456634063267
98.5340432500752
98.5258230742633
98.4361043963143
98.2696566384818
98.2198811288487
98.299778170979
98.3302241569686
98.4201424189707
98.4924880444374
98.4444547237308
98.420088513575
98.4732507591732
98.5261119754986
98.495828266709
98.4635389591228
98.4232672967024
98.2995793066074
98.3337057556192
98.3639337425425
98.3946818396503
98.4038076210285
98.4084152104028
98.3517183572335
98.3233055418585
98.3429880027021
98.4584309759113
98.6105303909982
98.6278870652478
98.5107810486527
98.3839944216501
98.218606840903
98.2561960261341
98.5720867390415
98.6782348773993
98.6510932431358
98.5992972930094
98.4671446183751
98.4198084971466
98.4085493221602
98.3480874654962
98.4084135434839
98.531014866701
98.4999484726253
98.5131691999893
98.610556714209
98.5808131496051
98.4564134825808
98.4386425889139
98.3971867919355
98.3925937773731
98.5342829432836
98.5292615955721
98.4379209359695
98.4767200725254
98.5008773237629
98.4483844222007
98.4320601648101
98.362235222595
98.2945680686528
98.3480021183189
98.4702508097186
98.4923414708229
98.5040035896105
98.5556986477029
98.5576116886977
98.5333421910333
98.5271873792646
98.4431817345692
98.3258994423044
98.3586809022013
98.3859554595365
98.3981920996074
98.4579353051153
98.4551582568074
98.4358998756529
98.4604448185585
98.4025291024208
98.3963583898591
98.5029975503489
98.5088591879693
98.4445384117692
98.4482211740235
98.3698802384773
98.2514659856348
98.2712538530566
98.2962454589165
98.2974328180062
98.3243083994279
98.4185396911689
98.4636771029023
98.4543659296312
98.491380419539
98.4635632950699
98.4431342805726
98.4702266898917
98.4967228142402
98.4159800357855
98.4827207051987
98.5701790333088
98.4757213397764
98.4514292612527
98.4632384766647
98.4308494958619
98.4673107738735
98.3990550730321
98.3340493160805
98.3790383439521
98.4049935847458
98.4069637917034
98.5516650760879
98.6011836521947
98.5415992987277
98.5524539680463
98.4682750345614
98.3804607418255
98.4075984773903
98.3996324758583
98.3551528746236
98.3529477766801
98.4021819889915
98.4400137254792
98.5168528038941
98.5209247589153
98.5502732437145
98.5434782011069
98.3898137676759
98.2283268812841
98.1803951254149
98.3194486457222
98.4946302719126
98.6029787913853
98.6850310358412
98.5362600640374
98.4867155721653
98.4989905657056
98.4181473951824
98.2831924975369
98.2918501888135
98.3526117380062
98.3331841927317
98.3545951074686
98.3429411408371
98.4289362892828
98.5892773668152
98.4948685335553
98.5019784983922
98.4120517235384
98.2662445951464
98.2850366060784
98.3050333528494
98.2541254538796
98.254380305189
98.2342430859395
98.2478517486869
98.3310113091489
98.4625601732717
98.4974599260797
98.3694522890074
98.3187077483195
98.3352825223488
98.2420420870685
98.2032104070846
98.2224718467804
98.2230481038481
98.2204521122483
98.1774796049622
98.1219518503566
98.1769929389634
98.1763736327832
98.0940839892212
98.1155981918295
98.2450353156604
98.2281096518415
98.1309066610382
98.0642184105719
98.013814296695
98.0702915377599
98.2037729014812
98.1697634483593
98.1544210255281
98.1890275625205
98.1202518434606
98.00014609681
97.9525593048254
97.9426977350162
97.9784085613691
97.9918304004306
98.019572260324
98.0508930978458
97.9540288620382
97.8062687690075
97.8566762492972
97.903669055941
97.9879724044033
98.1562522184811
98.0988292501126
97.8806157182876
97.9057580167197
97.9150550150637
97.8911250402552
97.8722443266793
97.8297669423671
97.8583909824689
97.8248012146178
97.7452669383784
97.7583417098556
97.7906743810664
97.8409093275178
97.8145741307035
97.821893904103
97.7867883757664
97.7151210047146
97.6444675744874
97.6736018366223
97.6723084852757
97.5982222691106
97.640003651119
97.6595829902592
97.6296906006629
97.5982352723255
97.5820687783967
97.592831280315
97.5431322291284
97.6761499372747
97.772104561168
97.6466141423238
97.5968493368824
97.6001064105254
97.5264910939019
97.4958359233916
97.5228874874444
97.4967422437414
97.4437477681711
97.4892424983299
97.5688153027799
97.5744611181184
97.5018010923035
97.5129977677187
97.5535824664902
97.4768691440365
97.4609120628877
97.5074365201301
97.3913714550571
97.2839929273571
97.2785309596107
97.3966019331351
97.4761289636659
97.3985896852935
97.358014640145
97.4448736826098
97.3937613850087
97.3298745000278
97.324647761784
97.3762929510185
97.3826113636884
97.3595183206813
97.285229257116
97.1586563098663
97.184127161941
97.2797541425291
97.2270766529912
97.2408237824469
97.2036102565335
97.1471282907425
97.1604389470463
97.1874644291651
97.2115399956064
97.2674559016206
97.2211081373939
97.1567216958771
97.187195915239
97.2092400516569
97.2118098041331
97.243060217265
97.1920491449767
97.1604732815547
97.0839904743086
97.1031228605012
97.2187898685946
97.1582463356248
97.0300679674806
97.0275201187838
97.0880626973406
97.1578698230059
97.0719110315941
97.1025011009779
97.1583950138878
97.064656914471
96.9904183875442
97.0771079069251
97.0319246483681
97.0524886612108
97.1240418632156
97.1937224467779
97.1616949151713
97.1342347358321
97.1025716377543
97.0727607818445
97.1093704589864
97.0467379761332
96.9469530255737
96.947127099588
97.0000407585243
96.986222998621
96.9875573913191
97.1251354953102
97.0825359556418
96.9500179005719
96.9235464395185
97.0055059587697
97.0891041749518
97.107000467251
97.04467869673
96.9973934844542
96.9762515849854
96.9946466446921
97.0402808376742
97.1375930989593
97.2011366386893
97.1186689919019
97.0053626866554
97.0313921296582
97.0305192181666
96.9172095773309
97.0020697067503
97.073728033364
97.0257539232741
97.0794097244593
97.0900835247006
97.0362465503038
96.9086732787076
96.8676630154825
96.9370817206553
97.0675556569058
97.1722797775631
97.190151663393
97.164350903706
97.1540409830856
97.0402868410755
96.9832452804715
97.0298004946753
97.0161210997887
97.0328132904571
97.1401864716827
97.1623015686433
97.080876779355
97.0035940266587
96.9757133910495
96.948488931
97.0014427480016
97.0464983160853
97.097601388225
97.0376674407549
97.0479321453759
97.1741374410037
97.1617002714123
97.0893669238649
97.1053038740207
97.0673765707461
97.0979846219398
97.189560116938
97.1842779815026
97.0973736766269
97.0819192909837
97.1000611564125
97.0768803653596
97.1075652200678
97.1609963220526
97.158105901314
97.1633442085696
97.1003454954481
97.0565790551622
97.0935771754912
97.1360858657289
97.1595705744891
97.1404616613596
97.0974711652408
97.1436279043991
97.2293443546201
97.1781663086958
97.0923877305243
97.0611493433544
97.0854293765242
97.1492346362872
97.1819840265632
97.2517292987548
97.2790560771701
97.199583672179
97.1461604494347
97.15462746219
97.1885154300616
97.2568660873587
97.2393347677909
97.1749035897125
97.1561386695183
97.2481918888143
97.221312372477
97.1658450084785
97.2721120989225
97.2981552503122
97.1922597454147
97.2203119555564
97.210236608382
97.1701932103791
97.195845401132
97.259701172475
97.219144633778
97.2196664485074
97.3309860058694
97.3029266800213
97.2174772041579
97.2500476737694
97.2547668817089
97.2356430128964
97.2689263757493
97.3324969259153
97.3624402997022
97.3588766766146
97.3467531914182
97.3565024262065
97.3199055310724
97.3249508311669
97.2961891890889
97.2781911711149
97.3165785482441
97.3562189046817
97.3762259179929
97.3779231101071
97.3781477483194
97.4391216992755
97.4734135867353
97.462651351918
97.4550514773977
97.4684779895717
97.4405844206547
97.416488099425
97.3477946298562
97.3327357084662
97.4252652253898
97.4167856799181
97.3532337469194
97.3980223214494
97.4047606972355
97.3768996492841
97.3508894323726
97.4190109981287
97.4994740289065
97.4744868304611
97.5173779204988
97.5076491508952
97.4718104846358
97.4780191851174
97.5089122439305
97.5159608602693
97.478456222885
97.4829752706129
97.4384602674481
97.436918308429
97.4722570818211
97.4601359609983
97.4640647775843
97.4891636600325
97.5182931731192
97.5290022418624
97.5767722717453
97.5407703438029
97.4455992265687
97.4721464960415
97.49508792035
97.4818916638038
97.5250359747497
97.574624585792
97.5771328997059
97.5002297986709
97.4712616238797
97.5271833618655
97.5483167036961
97.5008760772388
97.4740208417461
97.5483368991868
97.5569807186869
97.5741310959945
97.6304622806443
97.649065763881
97.6580179908403
97.621194633591
97.5646805300202
97.5584605362933
97.5760793000313
97.5836684795106
97.6042273791995
97.6341715175554
97.6101650716599
97.5862403614313
97.6276495258702
97.6557582421844
97.5835941834168
97.5858471262348
97.6359792921916
97.6387269693392
97.5719517440172
97.5716909734642
97.6552826894982
97.6352553355395
97.6123867630501
97.6656759385889
97.5987885304976
97.5696584908474
97.6017138343438
97.5580439070918
97.6082010568038
97.6388601678998
97.5324739907278
97.5610640027344
97.6628825115141
97.6430674209706
97.6144521692202
97.6169690341921
97.6620793123823
97.6904030035794
97.6918146563183
97.717911567063
97.6873098551211
97.6771019935833
97.6263603608423
97.6447182882924
97.7552664568042
97.8041346926114
97.7768361998551
97.7376909113307
97.7254708327965
97.7339495201103
97.7340155067606
97.7786813663075
97.7895588417683
97.7932486754868
97.8173179192876
97.823195066972
97.8351963010557
97.8727338016673
97.8216546489415
97.7547393642568
97.742487688219
97.7831085505052
97.7693027459656
97.7441348927039
97.8070746751422
97.8418905544913
97.7938876441625
97.8308156824112
97.874525457491
97.8400580427722
97.7728033434225
97.7766904703156
97.8634842536753
97.8167658749251
97.752321329045
97.7887746853786
97.8696048599026
97.9266235272092
97.9068000267889
97.8932176497915
97.8923368787742
97.8439500245515
97.840188590845
97.9207141752565
97.9368036682516
97.910694097235
97.8936031397185
97.939392961766
97.9675047180215
97.9832714832003
97.9626376145664
97.9383697829371
97.9697114570373
98.0011197389691
97.9760892367605
97.9723410167181
97.9608170227581
97.9500370179956
97.9648388084926
98.0128388194562
98.0088466745615
98.0025934989795
97.9838150429907
97.9251423609226
97.9007526269684
97.9363332258255
97.946862735697
97.9643042369356
97.98211200921
98.0032891259085
97.9857051427916
97.9658065661299
97.9622182154436
97.9867596155074
98.0077042906198
97.9857734995305
97.9514986346908
97.9762105557894
98.0119535484107
98.0093137919417
98.0012914343495
98.0054571003786
97.9852430448791
97.9697987046116
97.9736480733645
97.9921669716457
97.9590828482273
97.9311496677591
97.9253081851939
97.9861528995816
98.0461632353211
98.0291863407885
97.9865154296247
97.9734678296681
98.0005173334829
98.0462057959708
98.0191365114571
98.0372057644624
98.0779890734221
98.0775544399275
98.0392789955722
97.9990128055069
98.0168444394884
98.0300276059207
98.0345883650814
98.0919216098062
98.0889047103718
98.0179788836823
98.0003521470102
97.9926290763439
97.9854914222909
97.9738816466574
97.9194318630893
97.9139516490357
97.950204510129
98.0072710432208
98.0341278755863
98.0509759180407
98.1022234757776
98.1181478785282
98.0859244462826
98.0756794370382
98.1093626329474
98.1378633186862
98.1406779058958
98.174906535614
98.1653074427986
98.1324520235576
98.1360284609904
98.1398752451476
98.1537838722669
98.1507689937779
98.1358682897325
98.1492324560546
98.1657072095761
98.1870045507345
98.2084995279474
98.1960670157129
98.1811495523101
98.1614261374782
98.1876030879109
98.2470882367747
98.2333735856495
98.2113078234302
98.2464816985889
98.2497238537408
98.2218008949824
98.2456284619926
98.2159935145414
98.1390523611134
98.1339162731595
98.1759078367063
98.2180246200668
98.2519795753171
98.264721667959
98.2379049194183
98.2292163950159
98.2315986175122
98.1926270290334
98.1702108226615
98.1343523129039
98.1726527785845
98.2477760556898
98.2570315291209
98.2501172266753
98.2452896203395
98.2184401733754
98.2594869521846
98.3088845885118
98.2391376480023
98.1775495263517
98.2831932689512
98.3459809981025
98.3384018128431
98.3512255137944
98.3329298008462
98.3321326047821
98.3274487476684
98.3047436169637
98.3345772662517
98.3440127187701
98.3719024120781
98.3591314478143
98.3894745518882
98.5084665794206
98.5133554372041
98.4539176469093
98.3946150274969
98.3539632662039
98.4002155431282
98.4918750296979
98.4850473511955
98.419949036266
98.4131607572133
98.4518667198506
98.5322768948216
98.5195454738224
98.5109544802967
98.4802743490537
98.4813232292603
98.4634218654787
98.443066234699
98.4378441234097
98.4356843181272
98.4895936606668
98.4741024139424
98.5163627902895
98.554287833151
98.5871233452431
98.6089980700921
98.6011974388183
98.5923968688443
98.59178757028
98.5687185670548
98.506697626147
98.5381765529029
98.5669341552012
98.6180815470723
98.646172513234
98.6127596816405
98.6610651713658
98.6547632068144
98.6599329580288
98.7488194048723
98.7217655185654
98.6042728001108
98.5426993033816
98.5788111281403
98.5938067599191
98.5869748136428
98.6843841882015
98.7372372596665
98.6407363715018
98.6479171094224
98.6363106950321
98.5858398041905
98.6433255176607
98.6206447073713
98.5751467986615
98.6202655977899
98.6284650862733
98.5594211999857
98.5411793682592
98.5774786854515
98.4932867993581
98.4275665000353
98.46171876754
98.4367763364549
98.462846040681
98.5382528717196
98.5003491396761
98.4829503481328
98.5180228431349
98.5476977634437
98.5906632870918
98.5838176618103
98.5632498438319
98.5318565034886
98.4572661595823
98.412157387854
98.4449046145057
98.4678390519796
98.4430925915365
98.521010100764
98.5977816127371
98.5998223118465
98.603121959911
98.5341027892838
98.4946338047597
98.5336171408445
98.5027567799506
98.5136079764495
98.511783027929
98.5024046465166
98.4498941265809
98.4418416420131
98.3986933770914
98.3642356225407
98.4666016098434
98.4448774219182
98.3788391637592
98.4217263348881
98.4914771046342
98.5570434401562
98.517360526657
98.4541411693909
98.4444493229523
98.4254329336701
98.4028088447795
98.3448193191753
98.262126108484
98.097120945544
97.9815019404883
97.9753913596365
97.8921192071184
97.9114084733203
97.9481852195782
98.027028871648
98.1641464223166
98.194193919333
98.2033328229005
98.3068970136226
98.4386292510335
98.4532192248476
98.4568013333141
98.5157966309677
98.5804111739569
98.6196422942418
98.6555479538823
98.6044994057507
98.5750079226427
98.6464731317904
98.6685268249664
98.7363577279429
98.8630755569319
98.8420500508999
98.766492418815
98.6618353632197
98.5667726329845
98.5587446282345
98.5229372625329
98.5111133373107
98.5326071412045
98.5609751057694
98.6126678411984
98.6224427412392
98.6297823065707
98.6381046618711
98.6765852323678
98.7011055831188
98.6374429419871
98.5289355036178
98.483678501605
98.5059570765386
98.5401022701447
98.5886287305452
98.6662600635745
98.6850224420759
98.6968011029595
98.7669180794314
98.7739361721604
98.7958947157315
98.7889284359634
98.6931868464092
98.6585481899229
98.7183529652632
98.7464467664998
98.7434896159671
98.7520815224178
98.7696244869696
98.8522353093717
98.8573164915401
98.8755085898446
98.8169671084271
98.7624287368807
98.7467059694096
98.8895897818467
99.0886254701789
99.1062036622946
99.0529285904731
99.066351738776
99.1805605830734
99.2792931759466
99.1550186321163
99.2133219277789
99.2654009918467
99.1111797155974
99.1867382269674
99.3073067423199
99.1797028063079
99.2979572840965
99.3287365171613
99.2826426819008
99.3663909440601
99.5033509124429
99.5229102469852
99.4440133604607
99.4613024368905
99.4636606539509
99.490703768463
99.6810214171234
99.586142594717
99.5606719094123
99.7005975305394
99.7342094714323
99.6205450891524
99.6153293391077
99.6071908475292
99.5328288492405
99.486357853947
99.6640586141774
99.6257940459656
99.6136036118369
99.9153699698345
100.032805586858
99.8790533355504
99.6509008655944
99.6399921101681
99.6725710076141
99.6920033797626
99.8892601863813
99.7965292767907
99.6566058769833
99.6907893247514
99.8073327504447
100.05047743588
100.172310836685
100.199903936162
100.22740101422
100.334684233328
100.438115597214
100.103643443301
99.8771067008131
99.7393171044675
99.8564073109814
99.8839557358405
99.9671673312368
100.352405175325
100.459128555737
100.526685136424
100.817004022664
100.605483335912
100.281169123847
100.2606728231
100.1384745649
99.7769509908429
99.7830982721383
100.063774775913
99.8806128609194
99.6216314134768
99.4155244566979
99.182138227578
99.259676422758
99.2658048594086
99.2619314320977
99.316807281804
99.3299409823575
99.188879025999
99.0702191861618
99.1384812096411
99.1903039535478
99.1137614603912
98.9941394033261
99.035702306773
99.1532344231912
99.2875905202749
99.1859686323985
99.0417663611376
99.2061437208548
99.2152508758217
99.0853040647652
99.1095032433175
99.1323115211618
99.098934196078
99.1170269152963
99.217006091383
99.2307044276107
98.9293982190624
98.8111172567521
98.8860672796531
98.9333331079175
99.033522951631
99.073844324054
99.0098632653898
98.998688093779
99.1515861492121
99.2165440578918
99.0887548757127
99.2165440898187
99.4532705060976
99.4286094449371
99.235127491277
99.277418026223
99.3694381537622
99.3469611814176
99.2196575221884
99.310557790382
99.4480364376587
99.3227001460123
99.2360049337106
99.8254551749808
100.285629990331
100.093182329662
99.7391090774149
99.4503025047887
99.4486973262323
99.7035402874355
99.7181504792082
99.9184270755485
100.270562940338
100.420238864211
100.25589353426
100.093393005615
100.130447260373
100.343021061685
100.316099573732
99.9135781246931
99.8818344363915
99.9115103318114
99.9954114296909
99.9676108008509
99.7362577037316
99.5255561736556
99.4968415791916
99.4598534262641
99.5744009945991
99.6773220049923
99.7268737693375
99.7675913959391
99.8531962532248
99.7190119476632
99.7908250049572
100.011107436858
99.8452653197243
99.8261821828024
99.7994255895492
99.9023745943663
99.8724948137074
100.026240794847
100.168219241624
100.042293400104
99.8353823442834
99.8050135544852
99.5916553712485
99.5736959432135
99.6934617403631
99.56768636691
99.7385534507373
100.014104964294
99.7597984165808
99.4975913225835
99.4198110337808
99.4908861830409
99.5838418942501
99.4622802766259
99.3997501871444
99.5580788356253
99.4606280978732
99.4156447342655
99.4527349062742
99.3367504341045
99.2933005631987
99.4738674927109
99.3871154966923
99.1193825082329
99.0379284945493
99.1804335412036
99.1494550067909
98.969523988667
99.0331415877977
99.1323760425969
99.0677212399258
99.0414895930429
99.0653200221726
99.0525265668862
98.984192897098
99.0157595952779
99.0704475472288
99.0298915068421
99.0644429278334
99.0992466301052
99.0436279293696
99.0464192148111
99.0063687621117
99.0293950826378
99.0815449909317
99.0722454038137
99.0308073475033
99.0211388533644
99.069315564327
99.1230550481675
98.9853052227081
98.9055342778745
98.984599097498
98.9941448617408
99.0014608252834
99.032547682437
98.9694546360374
98.9036142476694
98.9138886164313
98.9791636668621
98.9593864235572
98.9616613481301
98.9453399764506
98.8942126459987
98.9109998568426
98.9559148050637
98.963397152771
98.8845132460489
98.8832181913535
98.9385856886241
98.9071896019412
98.8739607250021
98.9229480871635
98.9546596080282
98.8956089877664
98.8344724637439
98.8628615456486
98.868019869646
98.9430076224949
98.9832760640417
98.9021292126492
98.8714542119259
98.9040558383575
98.9090229898132
98.8508349225073
98.8182515262334
98.816980066596
98.8362068565234
98.8098386096418
98.7488762804036
98.7545247009318
98.7502620538502
98.7410924800588
98.75568651178
98.7751109831295
98.7617158526844
98.7634760051788
98.7630021973416
98.727686411372
98.7173671113501
98.7250187171144
98.6778506959981
98.6451961296976
98.6006251352774
98.6052990515256
98.6609878562559
98.7253235471394
98.7516782506505
98.687212488
98.6037364919966
98.1365465500441
97.3972681025381
97.3116399539842
97.7102626885489
97.9977230220111
98.2607418040734
98.3459016219696
98.4116467454409
98.4777573778467
98.4981927980543
98.5488208949398
98.5609732107136
98.5203006332874
98.4532859811477
98.4596590598461
98.4191262138743
98.350225269875
98.4425135184409
98.4228234138461
98.4105321155615
98.3721950295075
98.2717470865762
98.1660757707509
98.1119568155935
98.0286216119359
97.9879916669526
97.9910568207655
97.9544999085724
97.8596859052153
97.7355230153509
97.6154222663565
97.453189139574
97.3520972663483
97.2962723283909
97.1121429674162
97.1655425273631
97.0835390169098
96.98979081621
96.9675768061147
96.7540920563825
96.558216591037
96.4330214411696
96.2874235234037
96.2353830404396
96.3721058198144
96.2567933833383
96.148725449638
95.9466039846603
95.8399338231668
95.8800597846909
95.7767868025848
95.7436376742017
95.7763801573136
95.6767809246631
95.5149980381978
95.4762927675953
95.463214351086
95.4045956827575
95.337138319745
95.1508670152524
95.317383154479
95.6279899225041
95.489733386926
95.3896977534927
95.4597845656364
95.4388504460014
95.3237213621562
95.2425104668579
95.1832144555995
95.2074345249658
95.4201171647425
95.4307483961658
95.3517173578295
95.2816371623307
95.3125633192611
95.3182609316436
95.3429071684651
95.4166069858506
95.3798937070251
95.3313756064119
95.4838730553777
95.5420798816973
95.4712311120905
95.4687449404473
95.4676534338838
95.4644941744503
95.4439697270338
95.4608022447521
95.4452390363904
95.4378082299355
95.429579042607
95.4269552477376
95.4241869276427
95.4247174397986
95.3874421568483
95.3879343389912
95.3625080449009
95.3112739911059
95.2389161093328
95.166647714705
95.0612375515382
95.0665894112086
95.201386843583
95.1027912499592
94.9394673010131
94.9676621016461
94.9045669625053
94.7403106445734
94.6470912260263
94.4143510470284
94.2455399267728
94.6468646712601
94.6447770794616
94.4544365078748
94.3124029758766
94.1138183818728
94.007895913538
93.7958164106202
93.6402716672746
93.5681991350508
93.483179235617
93.6839976030146
93.7218741053885
93.4130895225711
93.2186963611757
93.2091943760057
93.0123173134436
92.8080773269363
92.6866728361385
92.6079659075464
92.4345323268286
92.5307762479379
92.47492131099
92.3380895690435
92.255246330875
92.0150633798129
91.8330294874538
91.60639941103
91.5187227308293
91.9096051016196
91.8838927398301
91.5640016012324
91.3081605653798
91.1962680419475
91.2586188075608
91.330339290682
91.1426922652532
90.985298092833
91.0906949402999
91.1679611483252
91.1523720937459
91.0433561966654
90.975642541883
90.9657057388248
90.8746474447746
90.8159582688967
90.7814855159589
90.9647659542068
91.1042485621736
90.9438380483852
90.7620036088579
90.7329069264995
90.7717351325295
90.6095980672729
90.4108369216029
90.4567587289543
90.7065819426858
90.4724487165105
90.1360326076805
89.7158824185039
89.3055926151965
88.9011399142018
88.4077534511397
87.8916233597645
87.3803038237078
86.8227773667052
86.4980872057373
86.1416335049245
85.3492054397083
84.877460889963
84.9159701257464
84.852558811286
84.4141644163546
84.0090296905278
83.5061162378427
83.0301235104017
82.9130506647573
82.4954307548214
81.8678129561222
81.3180317537117
80.8099906494302
80.3304817716639
79.8223050985565
79.4089369649859
79.0082514581466
78.4062605879299
77.9061787829204
77.5770526971698
77.1211583635931
76.8862667800122
76.4134240306014
75.7603397854431
75.2695781818477
75.1002969612271
74.7342819408101
74.2308923152291
73.7974798020465
73.4179702290614
73.0545421865765
72.7473213391252
72.8634570913263
73.0169974074675
73.1093994767202
73.4484908660898
73.742458836348
73.9862909593302
74.5392133534063
75.1247352890191
75.4759752247273
75.7762636520057
76.1127080853707
76.5277022920411
76.9265335190342
77.3253871690549
77.7466092259603
78.1668464134794
78.5406486741995
78.856888020274
79.2694502737196
79.8239283644742
80.2581989078705
80.5832042618843
80.8847230375295
81.2281312239488
81.5491452791045
81.8857778812179
82.2018805959379
82.5068193915892
82.7814691717989
83.0807948084713
83.4138879723611
83.7037786755371
83.9575816003948
84.2499747925519
84.5201111992871
84.7774638963838
85.0152714456416
85.2372276876688
85.474541206682
85.7057555965794
85.9046709112449
86.1047650399775
86.3060531439196
86.5187915740334
86.7156950742197
86.9092643540529
87.0877433392125
87.2491660826246
87.4150428831751
87.5873280518964
87.7533739576608
87.9374077187153
88.0964606683265
88.2387544461677
88.3690035532153
88.5186720301879
88.6658633340951
88.7974996117274
88.9132383546417
89.0375356991131
89.1787931731684
89.3052070840406
89.4227792390471
89.5204784674811
89.6025049006178
89.6866740099005
89.7917358133691
89.8980063147059
89.9820046752741
90.0819244575408
90.1880549849708
90.2913982957081
90.3820487108214
90.4793737712917
90.5688316133046
90.6618356641855
90.7483768010225
90.8066922760595
90.8680824236943
90.9298121084922
90.9491762546386
90.9832183479881
91.0066035206365
90.9967044209318
90.9784971621209
90.9445203726579
90.8925390740915
90.8316965906037
90.7469593874744
90.6248775325954
90.4865258601808
90.3537675801455
90.2024399255974
90.0417130114626
89.877830207807
89.7014360490358
89.5021939201888
89.323483063177
89.1365261713955
88.9469746239376
88.749139803555
88.5558079144139
88.3752292533526
88.2137782416442
88.0465817844619
87.8627247602094
87.6808483791335
87.5182111605766
87.349070260503
87.1707859017723
86.9800265089193
86.7594170545563
86.5270126379896
86.3295374470098
86.1217341667393
85.9145787230973
85.6872195682191
85.4712991603764
85.260561921954
85.0478107471628
84.8341649678895
84.6368215406623
84.4487935727326
84.250355160483
84.057999437016
83.8448257539191
83.6192622831373
83.412403772519
83.2131280308676
83.002484116652
82.7898134999242
82.625502610441
82.4688512423407
82.3128191921281
82.1870714832024
82.1256991181665
82.0777918857644
82.0428895937022
82.039280057347
82.0231261602593
81.9954822934664
82.009813483276
82.0437361072881
82.123518652134
82.2511008196188
82.4050377225299
82.5831216242824
82.7773694573244
82.9859390338972
83.2269516649136
83.4977379750749
83.8008792724381
84.0917990025872
84.413207342344
84.7301418082776
85.0669471267758
85.398668097908
85.693905986685
85.9787128494696
86.3070889998059
86.6446430971608
86.9500087401755
87.265932440558
87.604675574518
87.914941651306
88.2108598657977
88.5013103572605
88.7725308129359
89.046849801172
89.2974276216264
89.5215118010247
89.716646560159
89.8806639693472
89.987761157155
90.0673017456751
90.2523693273742
90.4686198454639
90.6440678393745
90.8004167614323
90.9480228277751
91.1147286724778
91.2530264713147
91.3799687199504
91.4988694039723
91.597986272479
91.7168680990761
91.8499368309399
91.9517010175583
92.018212410707
92.1033099571875
92.2094547477628
92.2928663418192
92.3515212046217
92.4065168503749
92.4893733913388
92.5853744723672
92.6398905716253
92.7037007361807
92.7615894071593
92.7866944239693
92.8049659999888
92.8039792442218
92.7695149973837
92.741668327831
92.6907606955915
92.6570279789849
92.6925642794912
92.7696041345951
92.8592974845861
92.9893227908465
93.1529232865301
93.301608119143
93.429148862214
93.5527330717694
93.629985203216
93.7046954902539
93.8145694117907
93.8820053098405
93.9236105401395
93.9903764025708
94.031706800427
94.0699849016786
94.1189986303675
94.1705120996111
94.2152384812357
94.2643249297779
94.3002625667888
94.2989720594166
94.3107397277527
94.3564874660649
94.3966421925524
94.4181083120959
94.4238113601034
94.4468406901522
94.4636559014962
94.4858004151801
94.5331515357543
94.553952175922
94.5593929545528
94.5780822950767
94.6172751899659
94.6431294202032
94.6260724588468
94.6477117868483
94.6846524103557
94.7075387022344
94.70804488367
94.705209910086
94.7271071926482
94.7269915242602
94.7444914661812
94.7467432584049
94.7591650358978
94.7792661868804
94.7633259976968
94.7609218824136
94.7611403407917
94.7540885105546
94.6867217181144
94.6373872600989
94.5761543341119
94.5070454781082
94.3849950878068
94.1892779059113
93.9658619945525
93.6974802352176
93.354155694715
93.0495105426183
92.7680446892062
92.4779275999987
92.2323080490393
92.0070727553384
91.8120404158565
91.7282573303153
91.7508099219021
91.8180343895223
91.9727557149314
92.2542447987088
92.5646976909493
92.8431339160798
93.0967116920286
93.3143469502704
93.4588875858526
93.5232920138242
93.525583286455
93.485554277074
93.4597297622475
93.4336736379536
93.3266265979908
93.1645974109133
92.9545873518314
92.6740968169618
91.6780671706969
88.8725327655185
85.2372228001033
84.0327108660241
86.0645769402958
88.95518634387
91.0220590797125
92.1761010300104
92.8251781399179
93.1675281528174
93.2618950811153
93.4287405648493
93.6623479908836
93.7687875514701
93.8199937444163
93.8784072734929
93.8331041208792
93.8116969442969
93.8384754389029
93.8691468702484
93.8621276150511
93.836796900872
93.8670606539874
93.860558073302
93.8288816321335
93.8434445948901
93.8572205695279
93.8598743097088
93.8856835885154
93.8606551205977
93.8187739699618
93.861444252492
93.8822902015521
93.8682381158347
93.8627872538911
93.8275367281726
93.8029227570161
93.7947935731752
93.8062224502429
93.8272869411151
93.791611686427
93.7598277201204
93.7410165196123
93.7178831147761
93.6794857044327
93.6436411479831
93.6387872246683
93.602812801261
93.5413191761714
93.4995683959276
93.4709312614819
93.4433097473782
93.3816934103506
93.3388836304779
93.3484816468989
93.2972505841887
93.288177049208
93.2620894814661
93.211417063664
93.2349596063635
93.1674957548534
93.0142305480664
92.9626458915746
92.9366008630203
92.864301159488
92.8407998042655
92.7689025580683
92.7219246743447
92.7225090394763
92.6860951494643
92.6033683142577
92.5144737414292
92.4662883209714
92.5097514561489
92.5160984960737
92.4504855151554
92.4503620507125
92.4937647319718
92.526643696781
92.5243291438717
92.5111560230617
92.5408708226544
92.5998048897605
92.6120751301094
92.6104901301797
92.6221247723799
92.5539624319274
92.7059199926048
92.7266316654461
92.7159945622
92.6574990618599
92.5148048804787
92.459640705989
92.4387790966255
92.4044295856984
92.3207567837255
92.2049162662164
