1798
3999.43349933624
650.420452594757
1
128
4
96.273558043256
96.4186522486044
96.4328203472137
96.415200184728
96.39788663001
96.3481924758262
96.3482359860967
96.3482296232923
96.2788392902101
96.2730038936539
96.3282083827297
96.3875460135329
96.3502973010149
96.3083494290932
96.2926169234892
96.2982948346101
96.3021464697766
96.326124592725
96.3214496773106
96.3393440483209
96.3307418347737
96.3121623416343
96.2095129361175
96.1274090728429
96.2017285168832
96.2912891190023
96.326994863242
96.3920265463009
96.3453001866702
96.3117480727392
96.3781438078114
96.3862390008077
96.2761588623399
96.2593041535078
96.3246765285685
96.2345764428373
96.2189147635413
96.3501542671916
96.3262112077588
96.3384996134236
96.3393227202438
96.307785208808
96.3383219941098
96.4341442842027
96.4611405705576
96.4041135263066
96.3340107954099
96.3234218592711
96.3316056442149
96.4366247885556
96.5042110556333
96.3437191131435
96.1797887926779
96.2684568851186
96.386395499183
96.410226002248
96.3315665159255
96.3572467932188
96.3075700166365
96.2956315590412
96.3688351806813
96.3216560990272
96.2529383116765
96.2768345473114
96.3515278530719
96.4277968641876
96.4265571579615
96.4218875070564
96.4455978750878
96.5069927550794
96.3865060892803
96.2658555988123
96.2260326638557
96.2661481920518
96.3717496959506
96.4519139017723
96.4964164004382
96.5072821339397
96.2942886942918
96.0448737500182
96.13338077148
96.2859670126431
96.2849139338249
96.2409298518447
96.3172403666839
96.4022714307802
96.322346204497
96.2541807381703
96.4138526908431
96.5924919221177
96.4731562068293
96.4065121494505
96.3909887387909
96.3070481939294
96.2505605842368
96.3058837994716
96.2805278629321
96.3920924796767
96.4172825567705
96.3597069369527
96.4513755152314
96.4743233781048
96.5057747636569
96.4858571426509
96.3323193573858
96.3870165803806
96.4067053909157
96.4306038823051
96.416374780082
96.4104362494701
96.3822663928396
96.3115258489321
96.3584617358392
96.3991047654039
96.4206120268047
96.4146312886325
96.3583321014763
96.3477560190166
96.3231906076312
96.4208391881024
96.4493967996254
96.3570157571802
96.3133748557293
96.3370202175248
96.3586560876848
96.4117555365914
96.3976784432706
96.4090506666526
96.5227739190569
96.4945505104109
96.3838782927693
96.5235665360307
96.4947915758484
96.4724506798208
96.4646855743189
96.5213505121007
96.5288874345176
96.2993548878752
96.1625686308454
96.3404976814506
96.3436952278632
96.2294041634609
96.2058403003854
96.2305670707706
96.2345930238782
96.3386877606945
96.4199938377788
96.4691232788867
96.4362778084192
96.4002066457555
96.3419372344719
96.2910687340043
96.4068068164314
96.4621511192471
96.3098227114317
96.2168178200463
96.3515654243663
96.503574482932
96.470635972282
96.4959384165236
96.4942915375716
96.4345977292196
96.3268861929062
96.3562516673432
96.3746157125566
96.3903200350962
96.4555767596229
96.4581894938992
96.4230272100991
96.4514610526914
96.516537456953
96.5263883982096
96.4264056513024
96.3685224341152
96.3276064176035
96.3222064870935
96.2214907490897
96.1455476230843
96.159641525796
96.2195355237024
96.2782351096366
96.4408595583306
96.432980254578
96.2535450293842
96.3250159031492
96.4975411980707
96.5156972074041
96.2584972777552
95.966240945037
96.0615007579296
96.1656159406562
96.0957886996804
96.018333895096
95.9908525884374
95.9801644617309
96.0681306799132
96.1411539371681
96.0427935718215
95.7887914087512
95.7564891158383
95.9394633229733
96.0110923262022
95.9698677328286
95.8429116391234
95.6299733943693
95.6301728350276
95.6547375197985
95.5756236320147
95.5276712317147
95.5162296743966
95.522617357766
95.6072750617118
95.6292781780549
95.5933576329675
95.5243805673594
95.469622358634
95.4048256098724
95.2631401194514
95.3621434859111
95.4508300496907
95.3098552792852
95.1735583677583
95.104456728259
95.1283600396668
95.1345427822539
95.03904692355
94.9913437567346
94.996196306978
94.9956423787644
95.0041093460502
94.9664757762621
94.9484298644743
94.8921060497695
94.8263904186494
94.7975411578167
94.7820819156883
94.7783031970463
94.7597345878634
94.6817512451275
94.6193773385981
94.59734981075
94.6490654091842
94.5741883051486
94.4816272961235
94.4048262616333
94.3824195848125
94.3788981106
94.4358144686982
94.5647635599215
94.4759060200821
94.2814552901998
94.24871416017
94.2236554643005
94.2558016025567
94.2788774641563
94.1584053820804
94.0269121441343
94.025804466311
94.0401110588211
93.950730633823
93.8723897179246
93.993817521667
94.0683628081139
93.9564745196938
93.8321409800079
93.6547904672143
93.5888803314371
93.6778463947798
93.6766432990383
93.7511192528308
93.8305919730196
93.7649636916949
93.6365733029562
93.5522543869677
93.5597878467734
93.6087330169457
93.53276100525
93.4764860341368
93.4596844256306
93.4684253402525
93.2991109968761
93.1723779266696
93.2618440289691
93.3393109856069
93.2969969874839
93.200072019038
93.2035443353821
93.3010073368813
93.3399010577836
93.2799095537293
93.1520750484711
93.0867775740983
93.0942282376281
93.1037313166177
93.113800256357
93.0818145256667
93.0263289602778
92.9520550435993
92.91622557868
92.9496175318945
92.8932011380257
92.8097710718075
92.8156958260132
92.8430127205858
92.8194539314687
92.8028042554351
92.7587680223696
92.8479771134692
92.792308460117
92.6856307503522
92.7565976751147
92.7928833780569
92.7166261303372
92.6408603654529
92.6610289708019
92.7628109371658
92.7467086718113
92.6246751667878
92.5462414228548
92.5480596489534
92.5569339048258
92.5559796265872
92.5740414544815
92.6846220014369
92.540487701222
92.3877000433654
92.3826291136961
92.3063330091855
92.3085545800162
92.4108858281046
92.4639088935607
92.4663613045899
92.4189941085203
92.4284351791805
92.3535093232117
92.3060818614626
92.3373691433364
92.4029777533574
92.4114779743436
92.3665245187425
92.2979621730374
92.32359254593
92.3652049113649
92.3700138595187
92.3811072457107
92.4032766263496
92.2973366300583
92.205736797868
92.2129263846741
92.2609651719892
92.3201883942263
92.3811858937346
92.3200569028646
92.2715125314632
92.3015663981263
92.3710095567678
92.3900401167634
92.2915597990621
92.2113805550431
92.2783691697073
92.3134621774685
92.3489947956444
92.4407849612435
92.5138902716236
92.3379970613948
92.1880239671843
92.2326610481076
92.3452994013683
92.421974064695
92.3632718985205
92.2796956021658
92.2824204508551
92.2901127557121
92.3207867952326
92.3477590305772
92.359658594386
92.2970288544394
92.3032635403126
92.2986201571657
92.2077635018651
92.2605446310244
92.3502635515629
92.396580780647
92.3853786527277
92.3450982898592
92.4083450811347
92.4447030174858
92.3941124142453
92.3137804969508
92.2840483446664
92.338937719487
92.4049923816562
92.4290244072006
92.3965633873755
92.3788762327436
92.3597241024571
92.3306495532685
92.3579498607205
92.3380509893055
92.4084073061987
92.5045152629484
92.4641320063293
92.3925686207163
92.4642292746004
92.4708119631193
92.3755407478205
92.3780224192755
92.4503866313614
92.4074280302769
92.3665216835074
92.4374588427494
92.5392834775781
92.4990441570405
92.526941952547
92.5692953774331
92.6195624074926
92.5465443751343
92.5210862467413
92.5105448695772
92.5363195304072
92.5746388250706
92.6262032763233
92.592459798542
92.5612817643753
92.533335515155
92.6394683180162
92.6633567009367
92.6725953210272
92.7260256472699
92.6915114994001
92.5969954798195
92.6477747126376
92.7100975879537
92.7248314353344
92.7264642183119
92.7823361769266
92.8287527792679
92.7284724439638
92.6314663140199
92.7375969344878
92.8106846660154
92.8584248054453
92.8210342299502
92.8429425811684
92.9424406104842
92.9729124489964
92.9161286419644
92.900066319762
92.9580909797043
93.0141152742656
92.9564920725623
92.8968711154395
92.9592454756695
92.962052185149
92.9833481753747
93.0750306274489
93.014977096753
93.000459712478
93.0802203954343
93.1014637405853
93.0545633927399
93.0839777898217
93.1004129509299
93.1025379255523
93.0750734680282
93.0929059522947
93.2509176101755
93.3381134353319
93.2783286290719
93.247301237074
93.2410083779713
93.2637865211273
93.2827458272214
93.3237033127073
93.3120922833237
93.2773493199155
93.2904553558191
93.300571242288
93.2898736802605
93.3549341577196
93.3546627929303
93.3975895764907
93.4600387306763
93.4097312540624
93.357645619745
93.3927001063534
93.4668431591979
93.5247252556381
93.5373737070637
93.5627785844515
93.5889531544802
93.6140244306918
93.5546423105888
93.5709896794353
93.6540266518614
93.5809144351482
93.4891513294962
93.5585196497531
93.6310937282828
93.6636391839524
93.6321596456979
93.5923239159336
93.6362662731074
93.6441572611163
93.5777062027303
93.6452198323363
93.7260220777109
93.6532973357035
93.6475022598965
93.7762414956464
93.7951758427291
93.846396790082
93.9077297867556
93.8872153999417
93.8531716474143
93.9021843812768
93.8490592923053
93.791121760184
93.8316282004357
93.9033351633691
93.8961516711874
93.8071238022661
93.8110864920049
93.8900403265386
93.9440239779488
93.9614280932349
93.9978154089135
94.0509531977928
94.0909794894577
94.1336662393578
94.1418942205257
94.1392464739836
94.0682916929739
94.0267196985168
94.0693052164102
94.1200908330038
94.0570219991662
93.9980789276536
94.0159439988083
94.0499132978474
94.0926975214717
94.0642655907739
94.0448831931222
94.0714595916384
94.0173347252294
94.0468799395021
94.125798316433
94.1197616806363
94.1315389229184
94.1583864217617
94.1333724161163
94.1368463454961
94.1221155794584
94.0740154686327
94.0562182722104
94.0633850826319
94.077795516307
94.0506349287982
94.024534148543
94.0279426621847
94.0301993439654
94.0865079091708
94.1412805410426
94.1674345715874
94.1987525583468
94.2620822453066
94.2530181003188
94.2272856387819
94.2460537559574
94.2354998586087
94.1978619568175
94.2300381974808
94.2318148103842
94.2462661039845
94.2876195618187
94.2940784401654
94.2634655542406
94.2717170228903
94.3069095574071
94.2987091993219
94.4006108988237
94.5004238642529
94.549492577836
94.570887076605
94.5213372667927
94.4677129750266
94.4865747217563
94.5441214316373
94.5434209006028
94.5331931010347
94.5123917211925
94.5583961036012
94.5805594211245
94.5832403325841
94.5974295607443
94.6523584334515
94.6760803984585
94.640921092595
94.6188301657875
94.6241102110777
94.6179492444932
94.6579140410113
94.6402819719353
94.6604881368762
94.7636549272505
94.8138876910064
94.826203820138
94.814664893673
94.7525181302127
94.7119661044501
94.7426872335106
94.8151334441469
94.8252094355272
94.8020173307897
94.8197466276212
94.8708987510879
94.8497860017179
94.8681962825392
94.9396329496845
94.9788550014315
94.9665522837655
94.9439197089538
95.0144555841994
95.0867177385157
95.0481477404158
95.0643307467418
95.1178974195586
95.1084841876606
95.0542876483686
95.0735318419096
95.1059033967466
95.0873335418681
95.0573932929803
95.1274203955099
95.1828676863155
95.1154553268565
95.0516010838966
95.1052556734398
95.1823811685749
95.229822743381
95.1678113843765
95.105558540232
95.1066465691743
95.1128215481112
95.141979148659
95.1759015274461
95.1539102817475
95.1440926302516
95.1786960324362
95.2042572389141
95.2122668756956
95.1874132959825
95.1420891036503
95.1319226481547
95.1275661388904
95.0916637983347
95.1341911803133
95.2040678964326
95.1900623416109
95.1949414507074
95.2262643318618
95.2123848796289
95.1790904293747
95.2054210549901
95.2352300631069
95.2098714368466
95.229518424081
95.2773444867899
95.2689435679331
95.2556809143297
95.2497431539492
95.2468554423134
95.2626573983715
95.2542488455878
95.2486021067363
95.2530415483689
95.207399456484
95.218599265443
95.2083836236909
95.1867455407922
95.1824603642534
95.2024913186594
95.2799951074078
95.3705228546112
95.4218481563422
95.5288975447576
95.5369497582902
95.4632164557361
95.4647754647958
95.4942402090885
95.5210746683144
95.5462764715721
95.5694177343632
95.5822715064165
95.5559252705135
95.5903134649419
95.6641607806912
95.6667563425576
95.6654492387202
95.7004450508053
95.7025592117989
95.6880488424049
95.6880862444742
95.7074913618411
95.764782397874
95.7654235118619
95.7241041693327
95.7036201147303
95.7250401575689
95.7874100738379
95.8415052504413
95.8194223592384
95.8134315791198
95.8605353777508
95.8611697447882
95.8484868855829
95.7855963337931
95.7322386850048
95.7700908838774
95.8231065244401
95.8447569334899
95.8043025627278
95.8043120174285
95.8298052714389
95.810264567218
95.7927912767259
95.8345453834146
95.8562601332347
95.85239604602
95.8609160479224
95.9024753847882
95.9101190646672
95.9087082346112
95.9541143657503
95.951940124479
95.9225985966118
95.9386505700213
95.999971213876
96.0661504983344
96.024645216223
95.9818895644988
96.0283953238343
96.1182608516343
96.1192073511606
96.0884271945678
96.1039213162927
96.1000746189295
96.120871921724
96.1677592756051
96.2106280094337
96.2203844184153
96.177018498798
96.139720486266
96.1950116505003
96.3376477073137
96.3705647583095
96.2996578880089
96.2323533553684
96.2000423517036
96.2628131294938
96.3110097794268
96.3287849864349
96.384014307885
96.4102174791773
96.451574779462
96.4356651648121
96.4023773669647
96.4045599145632
96.3279752031738
96.3431601760151
96.3760945817181
96.3374486227184
96.38704423378
96.4121678004756
96.4395324923884
96.4446251178333
96.4323391404368
96.4815341215748
96.6102575712036
96.649036487185
96.6033286232295
96.5962642578536
96.592122202298
96.5389992237514
96.5006980551141
96.575565971895
96.5307016747874
96.5031253848977
96.5427980648855
96.5662104377355
96.4910024801109
96.5121098903135
96.5285065211345
96.5181285344528
96.5132350902382
96.5579486236918
96.5896509006932
96.5693147071339
96.5094860277721
96.5617128009114
96.5753919195313
96.6039448373784
96.6117685938836
96.6036392662118
96.6514965794672
96.6103931822424
96.4647439667583
96.4730981993458
96.5085541835407
96.5223793993058
96.5354558269982
96.540103045507
96.5221449351514
96.4482812040649
96.44038805581
96.5240501852178
96.4983892675724
96.4715171311842
96.5471084192427
96.4887234101355
96.4300230607674
96.461021930801
96.5369198739697
96.5083133617158
96.4354587693584
96.3947013798486
96.4054321684809
96.4685802709407
96.5210902975598
96.5699518450204
96.5482020104106
96.5335055880252
96.5238268463992
96.4926876722703
96.4531412723169
96.4323194223181
96.4685691431366
96.5064752808746
96.480626341613
96.43752984838
96.4139491937838
96.3038637155802
96.2439102398291
96.3462249768102
96.3548827760885
96.3131437960433
96.3176684426646
96.303820316638
96.2927598802046
96.3437962123859
96.3307685905832
96.2110364480822
96.2293580890715
96.3036322560578
96.2573717120315
96.1443520134612
96.0294303042959
95.9097086699256
95.752265527441
95.5225631835934
95.4574462935334
95.4290659508057
95.3849498321771
95.4749457344178
95.6596324366088
95.8172565219652
95.9301283758926
96.0593229302835
96.1845759886932
96.3498086772862
96.542461528087
96.6055702317507
96.6108358685422
96.6749470671128
96.7535839554661
96.8143884296591
96.7809995282047
96.7787927039325
96.8586252970205
96.8404470342895
96.6950013735029
96.6555693218291
96.6315041930011
96.6880057610483
96.7091493051821
96.6825366372936
96.6680546026736
96.6499976842923
96.6735637582415
96.7097414483014
96.7443855503962
96.7498301367098
96.6692564450426
96.587746572031
96.5465038021162
96.6510944094662
96.7956077682164
96.7271416018911
96.5859524225972
96.4660736572161
96.4812511243071
96.5902907584238
96.6187947230394
96.5970714509305
96.5782807332764
96.5694606495849
96.6371734936846
96.7305955207825
96.7411377928644
96.7235535592202
96.7582093638516
96.7694711221364
96.7439063492884
96.7384696279849
96.7797233057716
96.8434976636572
96.8930044977239
96.9218266749515
96.9068265503308
96.8368587211725
96.8641574950264
97.0266901653409
97.1348548161796
97.1109432186722
97.0859171313999
97.1558169501058
97.1403323053059
97.1495242544005
97.2676066304425
97.2978237362382
97.4214831741394
97.5192889528511
97.4644783426759
97.5604651362926
97.6922615652792
97.6506739881202
97.6775273564581
97.7997468698153
97.8506250573591
97.702441948257
97.5554069954025
97.5584889613139
97.6824020924326
97.7870771687234
97.8689600614671
97.8772716194332
98.0756877441647
98.1991399207631
98.2082210959659
98.1610936439237
98.168080161258
98.4689251162954
98.6431785170263
98.7086200367392
98.5276871790896
98.23421851878
98.2449893020102
98.3919313162668
98.3363028223361
98.3920001233855
98.4812574160271
98.4046281379566
98.5373477459462
98.8121164271893
98.7460927380583
98.6637050483652
98.8557906494231
98.9485463166184
98.9779308908022
99.0829502480951
98.9704194844922
98.6266177724353
98.6456124655485
98.9275039546583
99.0321327829426
99.035176455696
99.0732441554589
99.049588901387
98.9359989270944
98.9454624256412
99.2056237663797
99.2151005868996
99.2507296800603
99.3170104053716
99.4573911980313
99.5967513151351
99.2038572953872
99.0120718562856
99.4141537612466
99.7612431287561
99.6071779336668
99.1212747840398
98.8952976320395
98.8835340216454
98.8477601226958
98.8359642442583
98.8122577637164
98.7520237265655
98.5709029965249
98.251016071536
98.2047634779523
98.3484385156861
98.3154943548032
98.0904130576774
97.9432446889893
97.8145777562736
97.8090740041947
97.7614364343507
97.6173775221113
97.5300308955375
97.6732336022801
97.7970432469152
97.6632205056157
97.5269170789602
97.5198981805252
97.6300740352521
97.6505762066312
97.6329214314078
97.6571451495764
97.6265224177838
97.5934695921855
97.6632269528124
97.7998851410521
97.7558703502959
97.6948744896734
97.7269462540379
97.7594590275724
97.6862043984375
97.5965011679272
97.5990842156882
97.6840537142615
97.731575275877
97.6218501740646
97.7152164982363
97.8495924343299
97.748868806608
97.70925544062
97.7478234887869
97.8091670576829
97.8549782696869
97.8670850207067
97.7426699609495
97.9527507851911
98.305416202854
98.2559797168786
98.0814811279225
98.2856220634668
98.5784530251714
98.5996655084606
98.7432243597313
98.7570372473658
98.7606213896993
99.1645527243934
99.2577694730122
99.1782204355354
99.0647930541156
99.1062975513569
99.3761163893232
99.0992294281389
98.8598397368903
98.9740262527903
99.1394353155584
99.5192061377783
99.5342732124149
99.0167185126408
98.7096603042061
98.8329128083352
99.0826603745959
99.2686306437893
99.0276584822875
98.7365233154555
98.5523943980159
98.8341652634421
98.8238138282298
98.7603797730697
98.6696080206053
98.6914956275363
98.9458143056995
98.8596794949697
98.8971120765414
99.0476511018215
98.791693668855
98.8261335751189
98.9659552338462
98.9117179912642
99.0446567144829
99.2581674473704
99.3712941970979
99.1416063951373
98.8552157962241
98.6703987101864
98.7535891805121
98.7882938187219
98.6844479057329
98.9034030868148
98.8261923427131
98.5913438494465
98.5627555534202
98.4716033524918
98.2748028800789
98.3850161124024
98.4188885708506
98.1770988673952
97.9770516523025
97.9518547805585
98.1184788096494
98.2783128842899
98.2205222605886
98.1264275746081
98.0715835130445
97.9911448832139
97.9201342857218
97.9917043150878
97.9716859513951
97.9498538846737
97.8501604286189
97.8243408464252
97.9712097731646
97.9254331071619
97.8370268711648
97.8316730559849
97.8342784702983
97.8058364716768
97.7132713436269
97.7002987261266
97.8236264282097
97.7617894635545
97.6374572741231
97.6785161006949
97.7310996519519
97.6896949720478
97.593971163788
97.561045510559
97.5973257186951
97.6499196554961
97.6560298859389
97.6382421648075
97.6632127507635
97.668791144929
97.6935990827026
97.6940026083726
97.7034724478118
97.7114677300394
97.6727572692945
97.6162541355131
97.6382503992282
97.6259957260834
97.6314630827559
97.5792819847256
97.5489612871732
97.6454707933469
97.6665435381707
97.6068748148336
97.5899233630182
97.6006442288959
97.6214853162653
97.5912183923128
97.5086488078247
97.4317277896012
97.4456616736787
97.5398546925243
97.6112398815737
97.5408268143199
97.5437131212262
97.6517006571395
97.5974064104679
97.4371511452549
97.3743863979979
97.3935480410188
97.3927949476181
97.4214934244616
97.458878275628
97.4922934504912
97.4643829681728
97.4213859143786
97.428986491721
97.4326397540104
97.3979015643478
97.3780746705233
97.3760128223464
97.3599024770026
97.3538918530392
97.362159488501
97.3113262548116
97.2678864232279
97.2956693396207
97.2634124121034
97.2521822598216
97.2544081450568
97.2102723254634
97.1801861357266
97.1924675765047
97.2142654689525
97.2118583607038
97.1902446031912
97.1916289913515
97.1064074214404
96.9154579984232
96.4838946491768
95.5043138816235
94.7158972591322
95.129529461646
95.8547339286021
96.3047406624626
96.613419392463
96.7669267227447
96.8463109231281
96.894652784062
96.9090771449562
96.8919757203537
96.8552592205926
96.8280966233049
96.833627345717
96.8235685909925
96.7977921631663
96.7780758896667
96.7401650177979
96.6596000486404
96.5976389338938
96.573320452806
96.5475856094596
96.5018833766293
96.4502110308993
96.398032767494
96.3377693986415
96.2396293579416
96.1054311247718
96.0131403935031
95.9425950996624
95.8883357725643
95.8283548536647
95.7374580319835
95.5977252963881
95.5290175557591
95.4154774411281
95.1683857111719
95.0050708279439
94.8845929776752
94.7407384992229
94.6246805778346
94.5056453190494
94.3672945100579
94.2380078216432
94.0921913283868
93.9313264741784
93.7773348510261
93.625348598645
93.5298681573248
93.3956249481523
93.2161588206525
93.1093360905871
93.0194029931115
92.8599790777275
92.7268681100583
92.6611309329001
92.6062863229092
92.544456965317
92.5070277854
92.4488297963801
92.4898630242699
92.4550439061752
92.2971936225955
92.1580801012561
92.1389997891839
92.0649907181522
92.0161668329751
92.0078742093699
91.9221120800332
91.8417093980436
91.8542228934227
91.8204091054623
91.8156177433073
91.8205393561044
91.7995315706076
91.7273377183504
91.7110693063306
91.7272354771967
91.6440696912608
91.5611970139218
91.621408402901
91.6062667152618
91.5461565082456
91.503877816356
91.4787132943447
91.4392873574821
91.4064931980814
91.3916371024976
91.3648802889275
91.3366772234111
91.316139362535
91.2460461784005
91.2042808480346
91.1871976942729
91.147779112341
91.0695061261624
91.0255829336652
90.9968644425215
90.9342979682869
90.8404729515687
90.7002472183316
90.5988648369856
90.6053396388478
90.4773356527823
90.291430851069
90.1675939389606
90.0829426400545
89.9953657049675
89.8952962808359
89.7110706542365
89.5563813471395
89.4822559475298
89.3034606202975
89.1230142704418
88.9659689724235
88.8150499746842
88.6602620903192
88.4946273209574
88.3407209693528
88.1424128884557
87.9080762782847
87.8363336732514
87.7399820550562
87.4607686003696
87.2316521178985
87.1218634714706
86.9290491526771
86.7219793547537
86.5594615706289
86.3318949942044
86.0625256811732
85.8809597474623
85.7309757186918
85.5434640712313
85.3158998793588
85.0549128613291
84.8305991385059
84.5713780698982
84.2621148149315
84.1888255381358
84.0836906821662
83.846970665215
83.6067349944971
83.4048634908933
83.2732420814635
83.1843362673839
83.0234666617306
82.8199820911444
82.7227191768686
82.6830980434798
82.6195352787728
82.5203256057826
82.4304460738901
82.3416464645556
82.2456557463533
82.1766992802168
82.0707793219903
82.0887678062366
82.1455054568586
82.0337147967697
81.8892362580981
81.8608147072692
81.843213200388
81.6903233022954
81.4666933309331
81.3473790859313
81.3140541534854
81.0358017362278
80.5734745178772
79.9728896232067
79.2966402627972
78.5492733663418
77.8412656533574
77.1374970404301
76.4433978493443
75.7566374936803
74.9905438552743
74.0106622738564
73.1414129670853
72.7852964237264
72.8884913115724
72.6787104670312
72.086567444333
71.3490787531993
70.5640085703847
69.7629276691896
68.8964146958926
68.0708774214376
67.2719855838043
66.4315403874019
65.5955523290347
64.748828108387
63.9402833625288
63.1685907471249
62.4083837913331
61.6674179562355
60.9473057030145
60.1895272744408
59.4577525736513
58.7555892673849
58.0236801637259
57.2567923728651
56.4357659923132
55.5709122748842
54.6928618855228
53.8492902083954
53.1286558400569
52.5507495812141
52.12224612252
51.9429980945794
52.2068583628356
52.7244937375085
53.354580977374
54.1480688123247
54.9022386569664
55.5931735451636
56.4985735117004
57.4519546223185
58.2415600964249
58.9732552216032
59.7340544256934
60.4954947989233
61.2335972814789
61.9989008186523
62.7543488498704
63.4948381127143
64.1990736243336
64.820402466214
65.502259958086
66.2996178485615
66.98388470549
67.5422056747469
68.0577229950014
68.5984044775259
69.1407694575083
69.6989259267865
70.2334874991247
70.7161760853693
71.1900254313482
71.6839618570854
72.1798071070722
72.6308427587023
73.0781508216802
73.5306278475483
73.9219348033822
74.3153288754272
74.7180463814332
75.10398549584
75.4662325723595
75.8107477902667
76.1628809363023
76.5136604148868
76.85706754176
77.1799270555177
77.4795192682957
77.7768368291732
78.0647008594679
78.3447401218355
78.5922467566835
78.8395713433564
79.0902350325895
79.3483323856999
79.6023591324273
79.8514122972716
80.085907844377
80.3031237703426
80.5137035862796
80.7382690823854
80.9382817542
81.1183530692982
81.2880478078936
81.4430621443613
81.5572060560966
81.6783161413843
81.8190200868568
81.9451671318386
82.0736076321244
82.2240052893146
82.3630807957964
82.512547071263
82.6455561686854
82.7792897865328
82.9354959758554
83.0806359896634
83.2044591905131
83.3333622072192
83.4463810673091
83.5305043944126
83.5758220640264
83.595418520104
83.5930492617359
83.5330382144068
83.4400043251564
83.3414055855008
83.1919796104888
82.9709121813711
82.7055809962354
82.4029590472026
82.0562302466482
81.6816896735661
81.2790400186693
80.8506782036866
80.4031467118575
79.9527756259197
79.4984380853834
79.0574798294679
78.6331656795606
78.2316502945595
77.8815114099693
77.5721367634678
77.3012176135869
77.087199861129
76.9046451125911
76.790205550693
76.7157202679964
76.6505437151259
76.6053342980098
76.6053787608575
76.581836676679
76.5509524335627
76.550132794755
76.5331884691025
76.4682178784777
76.3718497341208
76.2306119811694
76.0360593748747
75.8121697637227
75.5637518385501
75.2808857989027
74.9777923155274
74.6396773615703
74.2719053606766
73.891515489498
73.5225892164151
73.1208063339143
72.6766747731879
72.2231171375512
71.7774469791643
71.3329438756507
70.8744144094829
70.4089411514762
69.95395516713
69.4973908869953
69.0349007641959
68.5957226197148
68.2176551294837
67.8518366621804
67.5069550311619
67.2108709105328
66.9181206356422
66.6308354623667
66.3963043152332
66.2310086802192
66.1003558978732
66.0171790184306
66.0157900510286
66.0598272031549
66.2063788384405
66.5440023290243
67.1072805679121
67.9018628378172
68.9054086266489
69.9888947792149
71.0666579920668
72.0558065218704
72.9397978207165
73.7643236078129
74.5099466387648
75.1980379732011
75.8331803332148
76.4428707467194
77.0769503159603
77.6843183042519
78.260817208372
78.798839966892
79.3129056693775
79.7737979927906
80.2123901824488
80.6149558360444
80.9741044809611
81.2993818484765
81.6084539084741
81.8523182370365
81.9840947369415
82.1710469185199
82.5172031100644
82.8413860189436
83.1272119360734
83.3867725946725
83.6575729091632
83.907604386696
84.1489197529817
84.382894949027
84.6051939031197
84.8052213387154
84.9905756451349
85.1675456162571
85.3894075507216
85.6036290659046
85.787609596379
85.967373093732
86.1445573791514
86.3144483627031
86.4677223923706
86.6084048380917
86.744724489777
86.8622924006861
86.9671140313551
87.0528592130185
87.1295724292118
87.1708380975602
87.1528123808129
87.0594975489156
86.8915760730309
86.5517251176401
86.1778618579128
86.2013567098694
86.6192726933352
87.1126267663706
87.5104082554329
87.8015172645242
88.0516810351245
88.2519510664969
88.4150216695958
88.5732699654683
88.6991084568401
88.804928309227
88.91298925089
89.01190969675
89.1115404455193
89.1833886470872
89.2631203044342
89.3493711202317
89.4093972933282
89.4669931201013
89.5152582884344
89.5384281409314
89.5976515044717
89.6595731246749
89.692765874396
89.7024828092014
89.7575824831044
89.8267590292072
89.8809518564273
89.9094601414179
89.9253937039611
89.9398236440214
89.989265215978
90.0346112274633
90.0643163420766
90.0781497138932
90.0869093781547
90.1158833434974
90.1702222832228
90.167732838365
90.1851213103921
90.1937454030361
90.2065890285533
90.2515894945801
90.2804695269787
90.2873084168901
90.2717295110988
90.2723931792172
90.2976820645358
90.2690201550724
90.2051508558966
90.1846252119699
90.1717460992959
90.078756825124
89.9205158376471
89.7392757102276
89.5074491635809
89.2104422596652
88.8459544691001
88.3930352495989
87.8680936422354
87.2900476694989
86.7410288004499
86.2526377111684
85.7783200556519
85.342702986506
84.9760908100422
84.7596992548764
84.7625244166061
84.8953330228832
85.1445720185174
85.5373943977396
86.0343038420704
86.5431889725425
87.0693900665751
87.5591766178335
87.9790557538116
88.3205423180981
88.5483706218103
88.6432153681141
88.6442969650155
88.607574793666
88.5587782804178
88.4376259909323
88.2068537127808
87.8133471733593
87.1533079541794
85.2683181203443
80.5147256440948
74.5840785937066
73.1072334273453
76.9299889957364
81.5821942816267
84.5895534119778
86.224697713632
87.1035256196619
87.4439166558739
87.5891489218996
87.8314574781925
88.052795324324
88.2111771728314
88.3198508797984
88.3597382558673
88.3670706677342
88.4124449055511
88.4516731297805
88.4052363451134
88.3807546198397
88.3886076718062
88.3537278176524
88.3381787744559
88.339579400034
88.360809980038
88.3715720599636
88.3826593043469
88.403624872988
88.3903900188802
88.3698675785672
88.3503600662926
88.3627671751717
88.39289197177
88.3679108665343
88.3577574287537
88.3124095652116
88.2635086233954
88.2628898066095
88.2212448791258
88.1326224548671
88.1340703251827
88.1437107354611
88.0911136477256
87.9998508197567
87.9628588906047
87.9436029497305
87.9228186287103
87.8276381021496
87.7355706784596
87.7004008573465
87.6382843261122
87.6078664367246
87.549399398181
87.4739232100864
87.4260676668915
87.3864430046642
87.3325739383289
87.2396528360339
87.1525728289694
87.0833340556469
86.9508599985798
86.8707951255207
86.8941978077432
86.893940107054
86.7917726139105
86.7023090664337
86.6446899182604
86.595513478616
86.5760244327569
86.4893880029972
86.4861832767716
86.5311778458807
86.5133702753064
86.452755929067
86.435568731565
86.4804420172646
86.5600241267847
86.6110986622812
86.6076643696818
86.6304228428445
86.6854612569199
86.6808907947599
86.672109431321
86.7698641285066
86.852874912081
86.7692031341634
86.846422615206
86.8449520319273
86.7534046824075
86.7070899587373
86.7717596618708
86.8075791954242
86.7449940765596
86.6510000173265
86.598157430263
86.5364180170152
