1798
3999.43349933624
650.420452594757
1
128
4
96.2395077531004
96.2088765090041
96.1997853136646
96.251116624948
96.2688748646358
96.224553100095
96.1844500429627
96.1807247103206
96.2182665403643
96.2131866983501
96.1552425372767
96.1550576085281
96.1913311380975
96.3309942261479
96.3337678969336
96.2074429447044
96.1574948333509
96.1855211629063
96.1750050909635
96.1480066601545
96.2236666218878
96.2598090559729
96.2026995639858
96.2203393973739
96.199471790614
96.1598564628501
96.160578458032
96.2125047602152
96.2602375322856
96.2431250318753
96.3028984055296
96.3700750538209
96.3371462308163
96.3882289296781
96.4039579748106
96.257165576449
96.1596234978231
96.2153897967324
96.26821291378
96.2796217780688
96.2587180024337
96.2294479658834
96.2135360934045
96.1837288026631
96.0718490703482
96.0984886662003
96.2027608819648
96.2232039163836
96.235773449259
96.1750990345825
96.1384329740383
96.2620977527087
96.2395333819481
96.1874062353236
96.2424922096189
96.2906729798552
96.305008626146
96.3121464065335
96.2205144771919
96.1865000661758
96.2221347163952
96.2295726526679
96.1811955001444
96.2189849101439
96.2641108427262
96.2076975251597
96.2360446048954
96.3225198724169
96.3019949843701
96.2501253149794
96.2566865770488
96.3953014414271
96.3515317641526
96.21276135499
96.2112133195215
96.2263081327675
96.2425354983165
96.2376408019127
96.1587880016998
96.1978730595722
96.3192824366158
96.3417322726251
96.2874048158399
96.3188183498079
96.3089576835292
96.2195066004618
96.2090181900302
96.2946093123273
96.3693260216741
96.4494841215043
96.4419113421548
96.368086645697
96.2596369273883
96.1594965955688
96.1888250114484
96.2247526406247
96.2854489233949
96.4436170865059
96.3951109318697
96.3671029137249
96.4268150488806
96.3862051014022
96.3040219061176
96.1697739785987
96.1443668625098
96.327412308767
96.3490481049965
96.2616218889937
96.3270880315717
96.4252884987803
96.3666664614376
96.3377825505401
96.4093427734197
96.3914165911845
96.3339011722452
96.3583240553339
96.3483090198209
96.2883062014035
96.2812533893747
96.3803138595442
96.4041098881715
96.3532699942195
96.2828945805663
96.2201717712862
96.3317703080171
96.5014770075161
96.4766682006501
96.3721242400557
96.3194451994207
96.2747128931078
96.2797447718459
96.3313265473686
96.2277963604903
96.0582305418148
96.181615099437
96.4977432206121
96.6478238574183
96.5246580692026
96.3675097539917
96.3891189079148
96.4399644394576
96.4123051544418
96.3569971915281
96.3966342053204
96.4243375997894
96.4570421574643
96.4361275599853
96.4592818766966
96.5018586136528
96.4427336513129
96.3467468239759
96.3143221769835
96.3918172255333
96.5305342981456
96.4993412119223
96.4414481499067
96.3595730761776
96.3648046674037
96.5201665092273
96.5345188220846
96.3989160889937
96.3536938478036
96.4134476936665
96.4759473726826
96.447462612814
96.4200601203378
96.3548049182331
96.3358477886938
96.3018240159714
96.2893060976667
96.3407743230593
96.3821337857921
96.3486280412686
96.2919336616897
96.2375089074317
96.2705545211787
96.250168738704
96.2087469391085
96.2763873465334
96.4212372127152
96.4532214734372
96.3315783097755
96.2351067267766
96.1715171256785
96.1063690112969
96.1035806104289
96.1017099764149
96.0637972289501
95.9249007261968
95.937918874534
96.0152696053115
95.928850933715
95.8520570801283
95.8991668117577
95.8937559567607
95.7948516183462
95.6378782714527
95.6039162754062
95.6295948334945
95.5870149168336
95.4572849937495
95.3765663747681
95.3293208439063
95.2455816447727
95.1592350454714
95.1209624683684
95.0708024752931
95.017580935184
94.9976615429023
94.9570323535757
94.7652505108944
94.6688960787744
94.6473941256461
94.5830661949232
94.4948800901999
94.4150040380237
94.3825985809199
94.3506875556451
94.2664624092172
94.2754857769766
94.1984322244433
94.0517883677803
93.9901281264478
93.9230718324638
93.8404099733789
93.8676918856623
93.849786341201
93.6692834666934
93.572922067253
93.5765123542355
93.4424028587293
93.2084017886781
93.0624146867246
93.1737617834259
93.2618483131319
93.217422623125
93.090775055391
93.0490450737401
93.0380241269524
92.9190268781286
92.7800525558935
92.7364266297188
92.6264422627929
92.4415974489393
92.3166669233679
92.3668935731193
92.3538738475617
92.2296025199973
92.1219598771384
92.0772228418626
92.0758370546319
92.0008004726455
91.8249637234636
91.6605375577112
91.5447297923444
91.5151596551211
91.5237298442165
91.6450665934277
91.7077935156053
91.6139736160794
91.4176381457156
91.2370600703591
91.1399404849599
91.2426138800232
91.2852860436795
91.1980468981362
90.9951362946599
90.8327302709109
90.8105764882215
90.807275432223
90.7249300881322
90.6817987860446
90.6218449617364
90.4701540765005
90.3366670930294
90.3360221543164
90.3677319520744
90.3183877237054
90.1386518294058
89.9763431455448
89.94943244877
89.9448433524731
89.8214921178444
89.6714951852108
89.5428121350082
89.4721643459876
89.4528324128532
89.4699513466765
89.4311755871912
89.4000782642897
89.3595950534784
89.2645461690549
89.1338787180345
89.0306034792904
88.9575366085663
88.9123795157758
88.8032960068512
88.6565636007735
88.5555385636625
88.5064660393345
88.4306936087649
88.3086118019816
88.16489327576
88.1294975925854
88.0656253586173
88.0189911546353
87.9381116037921
87.8438663290933
87.7615030108836
87.6411013265805
87.6287284653542
87.5720551955155
87.4468982925587
87.3666873009888
87.2220449297208
87.1431565711
87.0574504805181
86.9276468048203
86.8268831398881
86.7627262393073
86.7025558115265
86.6702275825477
86.6224124788585
86.554721665301
86.4483663409457
86.4146732020822
86.3805150153467
86.310989494494
86.1706265256317
86.0582538622149
86.0320756773335
85.9961335487825
85.9669797276495
85.9311109430337
85.8634600370364
85.8387521379709
85.7819454601928
85.7278389113885
85.7311338009318
85.697017251708
85.6327845813351
85.6071452843996
85.547152916914
85.5644951508895
85.594251795932
85.5575450264904
85.4403773119212
85.3971030339333
85.46054512386
85.4195624383798
85.31038837367
85.3005934276659
85.3118587785639
85.2616677180431
85.2019725477508
85.2123604162572
85.2305272094163
85.2421186662812
85.1332899507524
85.0610193913787
85.1554985692781
85.1544480741633
85.0639405408743
85.0800528381095
85.0820211571767
85.0049223164726
84.8976063442925
84.892343122542
84.9342061078083
84.9721398173593
84.9191514796641
84.8939996764541
84.9150716671494
84.9965810264591
85.0451096387984
85.0226414357362
85.0099005616628
85.0552733413564
85.0834882006163
85.1261444404924
85.1893725966527
85.2571525656536
85.2088762235849
85.1907510561373
85.3037428921028
85.3934263437612
85.4689247187597
85.5291053325916
85.5173179662407
85.5138173427915
85.5422509514882
85.6208227221456
85.6443700320249
85.721914077862
85.7776811451026
85.7853984202479
85.8730617672352
86.010299063035
85.9969673097228
85.9397201551655
85.993993383822
86.1366932478859
86.1961449767867
86.1408167262513
86.0142803702851
85.994657657851
86.1378004814599
86.2600894509689
86.246461642601
86.3327264723569
86.4345230982115
86.401023409253
86.390196811748
86.5377420180057
86.6875648083449
86.7212133517218
86.6534951514246
86.6807128146311
86.7335418705648
86.8109356218927
86.9082016594275
86.9859813035113
87.0215151907357
87.0890034499316
87.1902437724269
87.311834683778
87.3123093657819
87.2401073818577
87.2948699855138
87.4486824850183
87.5197308280482
87.5387989585791
87.5731251623898
87.6520338692592
87.7312084866066
87.7915739116046
87.8636556031325
87.8905547805816
87.9025824242567
88.0096105972693
88.1095620316516
88.1576978392109
88.2166967232274
88.2979304206682
88.3871146404923
88.463525935878
88.4879836646161
88.5558138629447
88.632050854906
88.7053308536284
88.8299890049401
88.9196760802699
88.8704457120407
88.9015165186358
89.0396187491861
89.1334386872923
89.151436706119
89.1960180226409
89.2471806578632
89.3079202750169
89.3632773919063
89.4099833356864
89.4772116468872
89.5439868576493
89.539559102954
89.5667418317607
89.7104683763997
89.8151197587687
89.88305537029
89.9846275662516
90.0000790680465
90.0376078807021
90.1027888808288
90.1862213902593
90.2096403050387
90.2666030866172
90.3883025420485
90.4729385079576
90.468638269907
90.4914028251809
90.5307888393429
90.5316903677262
90.6033223805955
90.6957114257139
90.6997111220254
90.7238494354011
90.7655352741858
90.8150655142105
90.8471829692848
90.9213802075213
91.0010528357198
91.0105978373887
91.0454823929263
91.1475178787532
91.226317713533
91.2813041819348
91.3230615179351
91.3217167171628
91.2779951340554
91.3596174115877
91.4245574937462
91.3879509775671
91.4098025245965
91.544009127781
91.6246598037131
91.6639939796046
91.6725641154585
91.7507454400242
91.814686527383
91.7958787738196
91.8156666126759
91.8697872792594
91.9348388051852
91.9975852908388
92.0661653169017
92.1393463625179
92.1333797600327
92.0957242260799
92.0863009322248
92.1321938985454
92.1820777416824
92.2283810695332
92.2907432950917
92.3600636362482
92.372546214394
92.3597157250099
92.3852510053345
92.4455875356473
92.5290576897463
92.6120909802946
92.6526079504389
92.6473407227283
92.617800360781
92.6647129390144
92.6899866220265
92.666560842725
92.6602553092151
92.7016636217252
92.7600236739508
92.8394917830815
92.9013111502151
92.9332074969821
92.9567168147795
92.9090769338135
92.8357258013161
92.8952379857107
93.0031804775786
93.043874427587
93.0791292833304
93.1073981661256
93.1118268780491
93.1404786367909
93.1302862469758
93.169395629878
93.2017386542611
93.1946411153442
93.1832744779968
93.1866095293693
93.2392749293459
93.3018229380635
93.2676494165226
93.3374465226313
93.4348447583704
93.4286151875358
93.4383663784652
93.4856320862059
93.4377471322734
93.3712067228744
93.4315042262118
93.5389864294287
93.5495922011876
93.5136885245382
93.577593939797
93.6686171198652
93.6890898491292
93.7199446016872
93.7256568953908
93.7242213216258
93.7420620872867
93.7620033887724
93.7742659209027
93.8354219778385
93.877882715463
93.9374056729494
93.9623212504241
93.9690344993836
93.9773060340871
93.9755181424024
93.9540224506628
93.9629117200317
94.0083412099281
94.0582949020464
94.0611612329545
94.0481134269918
94.0299660442261
94.0839823192451
94.1460126966039
94.159791084834
94.130469369754
94.0941489035628
94.1083723214808
94.1736054252236
94.1968439744282
94.196708768608
94.2559081819101
94.314724517098
94.3267349363472
94.310121280386
94.2730828892456
94.2802868376939
94.3005963073682
94.3273449905573
94.3218092682815
94.3322950554654
94.3741523225827
94.3775541160651
94.3957365760356
94.4458739483297
94.4470250940787
94.4393509299421
94.4584400806679
94.5037183823071
94.5598209226537
94.6089547192848
94.6069046292283
94.6046019039899
94.6058793069287
94.5667835531917
94.5475300749654
94.6043604762611
94.6304363005895
94.6485894559984
94.6416775115602
94.604806815012
94.6192347844583
94.6593407575763
94.6646470019345
94.6882766485826
94.7220318515708
94.7351410754658
94.7189457356833
94.6916932096244
94.649023267011
94.6494181405873
94.6955039068137
94.7098216664702
94.6752879647798
94.6364503136931
94.6170178597701
94.6842774315371
94.7233934555256
94.6742402097393
94.6651673194875
94.6497592906327
94.5994631692718
94.5646414998396
94.6015378385691
94.7092679364592
94.7493084446842
94.7173887313151
94.6942472439173
94.7023295135119
94.7255207458665
94.7244290849446
94.7499767907826
94.7932815151052
94.7582052088986
94.7196983805932
94.7205375851139
94.7258614594342
94.7695879873431
94.8137690916893
94.8271289374331
94.8121076115614
94.7828711976621
94.7603540033779
94.7317913083755
94.7015369723395
94.6814020774238
94.7110292725681
94.7242841812282
94.6830126147971
94.6869958433168
94.7682786389063
94.8880899297438
94.9859852961106
94.997430752628
94.9898635902717
94.9721658817199
94.9837824881437
95.0312101832372
95.0980180206389
95.1412635568057
95.1591131348355
95.1795069550514
95.2037697838205
95.1753947885535
95.1861682268561
95.2733623660727
95.2856175531759
95.2209364482931
95.2198246135565
95.245626616743
95.2528632708506
95.2486858064295
95.2415427362964
95.2793601811387
95.3483888766101
95.4048896036842
95.4133660376938
95.3898693883421
95.3778943214318
95.3998785865069
95.4226346619397
95.4071702504164
95.3796236753093
95.3656940532361
95.3640260314053
95.343771663226
95.3064515717202
95.2871025164746
95.3267104048395
95.4194156313585
95.4212023375081
95.3305201524431
95.3289445506188
95.3518426436162
95.352350329738
95.3539276382599
95.3853222990244
95.4353285159203
95.4409287752556
95.4129413666449
95.4647705691825
95.4931506863558
95.4797936695748
95.5130762794518
95.5991062839463
95.623472148011
95.5582603036821
95.5536579156822
95.6226262772121
95.6331866851106
95.6029257008253
95.611958935829
95.678672332736
95.7062163287971
95.7215557343419
95.771975509557
95.8029980325601
95.8322528139631
95.8292128094562
95.7676003386444
95.7516168796763
95.8159069673164
95.8575574363946
95.8919714103391
95.8773635746014
95.8062459418682
95.803649217348
95.8986461981189
95.9777295147294
95.90101482291
95.8824000844599
96.0151099933325
96.0707493570343
96.0212804220836
95.9768969861539
96.0006720039513
96.0400295136015
96.0406976951376
96.0288400506242
96.0233842350582
96.0860821917893
96.1115311711126
96.1250611574222
96.1663419540201
96.1614856240945
96.1393671570113
96.0654789256717
96.0247413843057
96.0949624562741
96.1777994028321
96.1879697396014
96.1528001487515
96.2124203039488
96.2487884031767
96.1961759537872
96.1435466819249
96.164302132252
96.2225187731071
96.2203714673803
96.1485075031806
96.1386345361965
96.2664875398137
96.3290428996531
96.2529852192994
96.2117811839795
96.2603912671332
96.3122600709878
96.2989576909057
96.2536887196335
96.1926540540466
96.172109862879
96.2126357423593
96.2301515521118
96.1695895136776
96.1331359988718
96.0896239009489
96.0638417856336
96.101360496738
96.0675428299724
95.9739462576556
95.9906422365695
96.0855938773578
96.1124016722246
96.0290794538608
95.9731699818201
95.9857626509829
95.9591562920561
95.9468328530617
96.0923029839922
96.1576163591839
96.1062501302661
96.098509579934
96.0479752338596
96.0697330857755
96.1372638164192
96.1322929719726
96.1107305887171
96.067515298878
96.048539787024
96.092566038443
96.0773279672153
96.0373652069066
96.0488467112837
96.0475222135395
96.0308205091926
96.0599332145042
96.0033799853763
95.9072571415174
95.8886526273558
95.8656288237143
95.8524964633207
95.8120114328571
95.7963651443173
95.7623088669024
95.7230128686168
95.7189752002209
95.751693534985
95.8102748792825
95.7739539554938
95.7288389202045
95.7327405859008
95.684976787787
95.5330768313339
95.3524247859781
95.2217476742175
95.0817263684095
94.8628615594315
94.6413312866441
94.5069404106984
94.6051555883931
94.7961365727822
94.9848357230071
95.1321701619657
95.2511462631821
95.380988515855
95.5528671414774
95.6628043866801
95.7367169638973
95.8505085811317
95.8912685227806
95.9371373278993
96.0370671619969
96.0994856774732
96.1968235469997
96.2322050929193
96.1934961354453
96.1521714003288
96.1357172002841
96.1786275567802
96.1737872692887
96.1364535558335
96.1270592319013
96.1020160825558
96.0365848232921
96.0293304410216
96.0860192785897
96.1021235321952
96.1396501514037
96.1424021025667
96.1177660703716
96.1284705749693
96.0961789570615
96.0587301637105
96.0824216152568
96.081644809014
95.9587792075435
95.8676593169749
95.8620009363423
95.8844683529739
96.0075195825814
96.0070588208925
95.8913213765132
95.9263684437522
95.9653865716621
95.9749872463509
95.9972192240376
95.9874651323548
96.0033043841404
96.0750659767988
96.0631854093738
95.9759562106846
95.9987656567375
96.0633392883317
96.1022778874462
96.1164634244261
96.0396737246402
96.0340763350561
96.1597663049694
96.3192169670934
96.3992769804783
96.3842361789903
96.3749932487541
96.5199451666669
96.5050114834934
96.4063761565414
96.5306545842728
96.6727318948484
96.6652386760819
96.651511023552
96.7308658651968
96.779776694207
96.8921181328239
96.9482332950265
96.9469432462893
97.0378396373519
97.1344289372277
97.2035839338256
97.0652189947544
97.0961557718016
97.3512963303047
97.2438573746476
97.1487810184682
97.2479552913497
97.4080599419357
97.5042293325728
97.4380216786748
97.3669910129128
97.4185708027944
97.2975065357303
97.3099796362124
97.4212584078527
97.3896931914161
97.5634207856576
97.9413189598662
97.9123404582245
97.7167713349464
97.5249449901052
97.5480734904778
97.9082831087871
98.1122482912741
98.1888279465962
98.1192584163274
97.8898169987782
97.9821303498788
98.1658814622903
98.108697083636
97.9795052268514
98.1379552681742
98.4977281714915
98.6030567816694
98.7902088036709
99.0292461731368
98.6876286878112
98.4930804678888
98.5506946290298
98.5437271401845
98.5979543870389
98.9049808219182
98.8682783624724
98.6971999112819
98.5871740958497
98.7227439895769
98.9869789726593
99.0351467123201
99.1217461773186
99.8342048226094
99.7352727708727
98.9397045205351
98.7518183976504
99.065984545031
99.001824298553
98.6612674071188
98.3244732839995
98.1399601089619
98.0971100625348
98.1478820560714
98.0245265828764
97.9526840706973
98.063902521364
98.0282976233903
97.717632945154
97.5548232309154
97.5346082350994
97.4969607264372
97.3465679629823
97.2426329926078
97.284574626516
97.225014691266
97.0928845103751
97.0099365907333
97.0568849852091
97.1572616361403
97.2060932049059
97.186261892126
97.0561691140697
97.0705589256637
97.1913382226571
97.1304267158659
97.0464694463764
97.1939207627648
97.2949115264594
97.2453922457662
97.1768088579129
97.1404690926125
97.1169740716665
97.0017969650141
97.0200795802544
97.2758084419117
97.4229650111656
97.4360914984577
97.3011598153594
97.2261676453176
97.3284749539886
97.4595609297568
97.5850313401115
97.4834499705281
97.1546427686124
97.2507721648571
97.6206884806636
97.7315599073156
97.6167279551954
97.4713694054229
97.5550050777956
97.9545799337098
98.0433195169688
97.8897523072429
98.0140767199881
98.4134971882829
98.5311562427831
98.8035195063084
99.0236308066776
98.9495658576527
98.8395243517643
98.8574464882133
98.7521628095875
98.7157587526143
98.90310661755
98.9936301096341
98.7830478166694
99.0269868693162
99.0793819681404
98.7860776141794
98.838131993638
98.8758771158974
98.7193671046834
98.8453942226459
99.0606720294883
99.018718620201
98.6335454854295
98.4135111577765
98.3638751693795
98.3095263129683
98.2307192154491
98.2062903609077
98.3437478653909
98.4912701937721
98.4234190491991
98.5425040101849
98.5732855284788
98.5066492132209
98.424134959686
98.5941740896915
99.0830176756735
99.2248904750673
99.0092766325938
98.8709150404066
98.8341256302528
98.8879744241068
98.8710407744551
98.9976407560144
98.7400322872431
98.5193568023562
98.5069725782527
98.3689309566962
98.3370927030271
98.3941238461389
98.2100119130217
98.1955047167186
98.1136742035168
98.073993595081
98.0350313544142
98.0183087716424
98.0192046890048
98.051120707116
98.0622304033148
97.9225246392771
97.924876869628
97.9030289376841
97.7436374134307
97.7293187773615
97.7244578170825
97.7704593620899
97.8110924055681
97.7754142425857
97.7589946502441
97.6692776726537
97.5270688716181
97.5892604471988
97.592576961742
97.5828973718376
97.6110847885509
97.6083734377446
97.5721303340401
97.6727587873624
97.6608878169678
97.4482806137322
97.3916006829252
97.4444226372001
97.4741135049295
97.4628086700123
97.5248276051736
97.5710826886824
97.503560464147
97.4247645492003
97.4272476350921
97.4223971719965
97.3729828242619
97.3980740649401
97.4285823279692
97.4218696073082
97.3740682484142
97.4070714354489
97.3954069593389
97.4226613602954
97.4989621642841
97.4750037168277
97.3868750907991
97.3401776101042
97.3517934876979
97.3647073461057
97.395654059323
97.4184904315894
97.4107646012281
97.4194801564105
97.4340108638395
97.40683539006
97.3677205838668
97.3935437869483
97.4014580508352
97.3744795791369
97.3466131876621
97.3206520867467
97.3465914679912
97.307762065377
97.3399856923427
97.4089461959109
97.4207956573572
97.3756299245318
97.3444061557089
97.3475862286474
97.3230448343862
97.2989419739218
97.2914207191435
97.3205425732323
97.3114073632436
97.2856798500013
97.2615969183394
97.2414500987736
97.2087461025883
97.1920729594715
97.179166574832
97.1567735306911
97.1683968380472
97.1963181247086
97.2132037003522
97.2109673424815
97.1707274322319
97.1242519442379
97.0611187044256
97.0199446219857
97.024461903309
96.991486887062
96.9632960004661
96.9554274857487
96.7345249348633
96.1779686795198
95.0293887445536
94.0670103105141
94.5597832014999
95.4536743351759
95.9208463516141
96.2875068162628
96.444209653425
96.5000533006895
96.5595563511799
96.5887866446256
96.5952574436811
96.5942158581449
96.5874381829436
96.5079003517793
96.4785536452594
96.5126512327071
96.409491941016
96.4150901781558
96.3913012054993
96.3424211475119
96.3360829708874
96.2827381377051
96.1702084655986
96.0824989916225
96.0131743309741
95.9425887494258
95.8698705390997
95.8170755424798
95.7711049198269
95.6701997415851
95.5652609382774
95.4131332541324
95.2520439534755
95.1757405233062
95.0547961782412
94.9768873267847
94.8426792960551
94.6782704254699
94.5834996815184
94.3485850533884
94.122820960898
93.9315632180013
93.7717932844914
93.5636512859937
93.3359703071459
93.1286942483521
92.9873068024499
92.7969183040332
92.4893761145401
92.3006813903124
92.1641298905343
92.009678460886
91.7946213927066
91.651062452076
91.4944405297321
91.2606798440899
91.0034492260179
90.8117827640243
90.6818497458854
90.4442502194833
90.1256484237579
90.0633313610783
89.954870355641
89.7782653143348
89.5455857624602
89.3072524078072
89.114771451145
88.9370921378754
88.763551138268
88.6740999049806
88.8560260441486
88.9579692183326
88.9882753581187
89.0100756444372
89.0923006796407
89.1350279162541
89.2002837180908
89.3369951917675
89.3757889520003
89.4102529845288
89.5715252789842
89.6825356414223
89.7305857512091
89.7862014103198
89.8329889264214
89.8938126809722
89.9677318764193
90.075424322443
90.138334902939
90.1859798638578
90.2577058733185
90.3398475406546
90.4243715343615
90.4951930191582
90.5426812775126
90.5961598583603
90.670745135933
90.7225601669037
90.7545835258654
90.8027460796804
90.803674713011
90.818215757155
90.9892925457176
91.0299602368448
91.0020754163874
91.0501135862349
91.0636862127992
91.0287651943892
91.078050141885
91.0382127610806
90.9071987124768
91.0875466352984
91.2344419902077
91.2446951737062
91.2318373235644
91.1239249672117
91.1107364513647
91.0570921191628
90.9985031424119
91.0175636716415
90.9751767550089
91.0104686806024
91.1632170005909
91.1643696140148
91.0848773127367
91.0995210869491
91.0283101890051
90.9343261507201
90.8641476269544
90.8347688868002
90.7570202818191
90.76132117036
90.7613108299419
90.6765087415241
90.6511875723652
90.5333169199531
90.4363635181049
90.3263230317949
90.181679059314
90.2257152879955
90.2524946821922
90.1822168575922
90.1087859640778
89.9811035964514
89.8776128847146
89.8724130175053
89.8095630846517
89.6586836002764
89.5595920817876
89.5112380364114
89.4657484994198
89.366405116426
89.2326427022624
89.10285262587
88.9348082121597
88.7398319863756
88.5279513091184
88.292413500319
88.2637981475936
88.2304865117986
88.1423069605041
88.0033123790875
87.8997040299861
87.7823898680834
87.609035768298
87.3237640906617
87.0586068216102
86.6947908777577
86.1559510665102
85.4160007648157
84.4943516964443
83.597574671151
82.8174868355163
82.1005188547483
81.4541345480045
80.8526137817571
80.1026096956926
79.2905031331249
78.6413794110729
78.3934867282695
78.4198718414423
78.2399359039776
77.762869941255
77.2193401544821
76.7328160014432
76.238666121864
75.7562971479405
75.3313294007269
74.9234368543492
74.4874238854247
74.0038726717674
73.5504679776899
73.0631626784267
72.5722685326295
72.077881722866
71.5718746598506
71.0319580094607
70.5196291174577
69.9620806528004
69.3831006246465
68.7592979446567
68.0843829572555
67.2923401921942
66.3907437458378
65.4698458973295
64.5573396188659
63.6297801241413
62.7711823484694
62.0336088649266
61.5116852746892
61.3096337318137
61.3608597394573
61.5415140500548
61.8354218953346
62.0791773860487
62.2844364513209
62.6008918189106
62.9819821153331
63.2794912360607
63.5210616291838
63.7607747697023
64.0417742255981
64.3073214644276
64.5945842111271
64.893873645393
65.1984471728546
65.4912405310371
65.7796304466354
66.1009013318597
66.5070932497473
66.8609485459016
67.1792777543955
67.4737351040319
67.8083681034851
68.1298349988758
68.4490308069779
68.7983946455981
69.171196450084
69.5067616908448
69.8508545309189
70.221746588077
70.5759942186918
70.9206844114828
71.2807734846082
71.5963403065857
71.9216900227101
72.2446091277383
72.544588482177
72.8353611444759
73.1207950492581
73.3871420248065
73.6959832633873
73.9803047183196
74.2373483388358
74.4822665088608
74.7314901525591
74.9940540923139
75.2534198576196
75.4727337470967
75.6906662019837
75.9022779919853
76.104951239294
76.3201597467281
76.5379981871135
76.7255756683854
76.9202231025805
77.1162118430715
77.3063074249415
77.4815656931441
77.6731159698737
77.8630525650262
78.0355668533781
78.211758201119
78.4135929644465
78.582390850176
78.7215648960089
78.8767447690991
79.0322510068284
79.1882475062042
79.3519307439598
79.4978159598146
79.6513062029396
79.7981472646816
79.9574328435263
80.1117146758294
80.2423672380515
80.3507733633717
80.4465870359051
80.5539852095688
80.6516611191751
80.7108822705324
80.764030864413
80.7810945410089
80.7523339809408
80.6574991936168
80.5052313382962
80.2696678373373
79.9261281531051
79.4826550403596
78.9583158885972
78.3294236461068
77.6106930655287
76.8151197139565
76.008315884138
75.2446554692428
74.5545587424185
74.046990394045
73.8340444282265
73.9295630956544
74.3528768609278
75.0638502489657
75.9214796131746
76.732075565001
77.3748467659654
77.7752680500791
77.9805472887943
77.9947290000557
77.8408545326856
77.5146038114414
77.0605579357861
76.4914820950915
75.8093252771771
75.0948029938252
74.3953316980789
73.6820990767112
72.9965185931315
72.3580089391428
71.7548968803559
71.1676799091403
70.5800088667638
69.9663865402533
69.3501420101149
68.6827637240474
68.0004545807399
67.3091550451845
66.6641437401219
66.1197345952317
65.7831416807943
65.6919237497824
65.7623124261946
65.7312175916108
65.3835314502276
64.6406879742429
63.7705459137807
63.1697885340334
63.0820171327373
63.3888742498784
63.9203671953739
64.4478628283748
64.8440106395872
65.0944153950778
65.2356755282724
65.2016981315941
65.0057893224624
64.6455311166305
64.1754959797069
63.6301830472871
63.0552935752627
62.5274711504947
62.1463934014688
61.9280656828305
61.9389510000189
62.1522744505332
62.5743799031075
63.1316418966584
63.7494182564629
64.4791511347445
65.2866751547903
66.0891971199088
66.9385294249917
67.7972669129775
68.6643245077489
69.4979320221064
70.320428127775
71.1000974980468
71.8259611157553
72.5564805637549
73.2576078407308
73.8763734557216
74.4593105286843
75.0515358371675
75.6104588879517
76.0670369106009
76.4023400694259
76.7639306320373
77.290066153931
77.7885899678532
78.2435384163127
78.6848388679661
79.0999772269748
79.4848811664001
79.856652703922
80.2062473604252
80.5392149724391
80.8461586172141
81.1627597518866
81.4677832168194
81.7537337493486
82.0147659195737
82.2699297491425
82.5260103783931
82.7415279606273
82.9390215373759
83.1511421875455
83.3776168407533
83.5802661424572
83.71685871138
83.816072786321
83.8580862229691
83.8737294605352
83.9782541594681
84.1879370262841
84.4136848810547
84.6449501517783
84.8051442168208
84.9529750782836
85.1100306493991
85.2568661322815
85.3696727354465
85.3699402261587
85.2621179583013
85.3200809183104
85.5721601991571
85.8329051032787
86.001730653781
86.1690174324095
86.3648532844972
86.5151984061909
86.6170708955148
86.7220580014532
86.8140626867793
86.9282013932988
87.0252700947353
87.0958297889364
87.1565426309676
87.2540689406489
87.3611519275269
87.4528423267532
87.5020663307832
87.5546601532317
87.6149728976234
87.6590721960422
87.7329862399028
87.7992291600109
87.8051367897928
87.8261104968489
87.9085212980631
87.9710604498874
88.0303250648647
88.1311636323691
88.1980364414351
88.2401905151681
88.2687162118679
88.283330194609
88.3083679899596
88.3825340864476
88.4227761438518
88.4397375940198
88.4741842838442
88.5041461119942
88.5418590148753
88.5692351496416
88.5904496588902
88.6425726019566
88.6927334105221
88.7217293305448
88.7272925352608
88.7266908513849
88.7353984878072
88.7432433359741
88.74484667317
88.7895044935141
88.7833428206752
88.7299802980127
88.6573261970754
88.5685152067218
88.4728267614923
88.3730369976572
88.2539085190445
88.1049939299427
87.8946978795078
87.6795416796646
87.5560749936645
87.4998670533321
87.4206500766863
87.3504998512192
87.2850420553715
87.2122360583429
87.1854695029361
87.2090973219748
87.2336791911636
87.3170709297152
87.4303339009593
87.5358356685134
87.6162076320327
87.6695815759552
87.6891806200496
87.676829751721
87.5709460798626
87.352000026559
86.9696234504379
86.2013664701614
84.2428619731678
80.0079384154407
74.6954899648278
72.1441704950959
74.0529055809416
78.0284452501296
81.3776551635679
83.4537499594154
84.639417541045
85.1492345564518
85.3289620703717
85.6535806057891
85.922136103923
85.9957580757647
86.042300054968
86.0479437073602
86.0166017168664
86.0112371501543
85.9534832114545
85.881906835485
85.7838555845013
85.7161092639874
85.6479569563081
85.5268890354292
85.4010408540891
85.2756186109023
85.1041778035987
84.9650021196315
84.8306335213769
84.6575656195789
84.4158670413768
84.1559146844164
83.8706691821172
83.5907464190044
83.275374113818
82.9333070333349
82.595007314915
82.2966302845803
82.0246598617735
81.7757932177592
81.5605990658794
81.4229096732599
81.3469388964085
81.293921063499
81.2563934824704
81.31102464743
81.3735468994527
81.4170530587134
81.4903572345352
81.589477531232
81.6694318757512
81.752370508075
81.7809175884666
81.8606119981175
81.9359161156292
81.9623097321222
81.9951328547776
82.0124256789913
81.9779280923878
81.9803598934961
81.8924566583784
81.7606528304706
81.7712035091199
81.8521583897669
81.8321880004513
81.778943250162
81.7313493340097
81.67844719207
81.6386810415578
81.6105718709564
81.5634151904635
81.5564804216245
81.5044563033679
81.4412188200333
81.4074184336929
81.4213919837546
81.4353033890211
81.4691971204907
81.4719591892398
81.4340770767446
81.3661365046122
81.4174662018599
81.4556016438414
81.4201049579091
81.3124989842083
81.2232454179874
81.0158805705228
80.8798475328081
80.5005938474123
79.4881706420537
77.6699700493349
75.1994112904208
73.0872085902299
72.8336662299719
74.4687682087805
76.3481243478222
77.4403006720897
