1798
3999.43349933624
650.420452594757
1
128
4
96.3003271016711
96.1026274438413
95.9976937523914
96.0474718023992
96.0981756074423
96.0313172416179
95.9746304431275
95.9778429425622
95.9964243674062
96.2269896352336
96.4894625664694
96.4804482169367
96.1662777015905
95.9906634131865
95.9524189557903
95.9774760406149
96.1425937991369
96.2375498382933
96.2381497753571
96.2960488357923
96.2909960053826
96.2471758480563
96.2962916771402
96.3171200323801
96.1683624458468
96.0127555496638
96.0118631596885
96.2062989453249
96.3035311742048
96.2337389202006
96.2072721168895
96.1715440664235
96.1640504110544
96.1647392934733
96.1457063235203
96.1795042542047
96.2175927290333
96.2217979633025
96.2359445137639
96.2726892736287
96.2446546667493
96.1150965804401
96.0224912803181
96.0684147008663
96.1575828709563
96.2884296305531
96.301584000197
96.2123674817451
96.2777725984441
96.3735239775301
96.3273846328816
96.2051891844103
96.0799089332738
96.0104731864667
96.0640440129532
96.1195709067318
96.1605130977234
96.3075490581838
96.3909040060263
96.2937727306481
96.2772996082416
96.2953001297565
96.1513042809352
96.1127608218218
96.1823129569738
96.2789216853395
96.3515303179048
96.3113459318971
96.2262584029012
96.220655681475
96.1864030489352
96.1495932698927
96.1346395197347
96.194335684282
96.365857328476
96.4039941624108
96.3657058608773
96.3132270248987
96.2687220469525
96.2593647888043
96.0856325269069
95.9881531100694
96.0675428167222
96.2488470240191
96.378203093101
96.3944456426501
96.375669225286
96.2477632974093
96.131391338956
96.1661189887926
96.1281581377035
96.1522416632275
96.3420581874491
96.4145236024738
96.4261016965621
96.4429355958995
96.3689233885796
96.2505392614296
96.0446402979635
96.0048882674749
96.1397460052849
96.1983042726881
96.2814818033365
96.4549932539185
96.4837173183596
96.3779513876775
96.2435564726844
96.0898076567903
96.013466000982
96.0831505146129
96.1939364308177
96.2559537183511
96.256329336382
96.3230116563784
96.43125827835
96.4141370716875
96.3728301550795
96.3464167196159
96.3329336837025
96.456174563145
96.4558172715104
96.3446851269243
96.3296614847026
96.330297702251
96.3342120399574
96.4048720333278
96.424667798978
96.4157671957845
96.4209917038747
96.5192879712477
96.6198486006433
96.5792059238606
96.5234094241519
96.6196254074505
96.5912164553075
96.2626943511765
96.0437704721587
96.1573903077882
96.3354396223374
96.3903041962189
96.2822583148934
96.1529807004009
96.1863485416774
96.3123881944846
96.2859200246902
96.2574090037189
96.3122732242071
96.2724956087126
96.2354169857113
96.2795374070321
96.3540982083279
96.4394103952571
96.5189481893096
96.5622648149038
96.4622917353523
96.4376208671009
96.3997082648973
96.2695061909983
96.1609822275198
96.1487890726139
96.2172610382811
96.3920749929429
96.5602716589313
96.6072525505147
96.6787997768669
96.6804782218656
96.449605347386
96.3896937763242
96.3923012697609
96.3558952719677
96.4279825455313
96.5429018225617
96.5579178491965
96.5428027979269
96.4765234820887
96.2469625753979
96.0740954140505
95.9716869238007
95.8508654212975
95.9366333551534
96.0755429743945
96.202166113351
96.3424235733805
96.416968084425
96.4483954710768
96.4944185509378
96.3766911418328
96.0830241663602
95.9248476593923
95.7389790269389
95.5317474441465
95.6217938760998
95.7648496015011
95.8396006211841
95.9611565618124
96.0114093623229
95.9588832506502
95.9272046352152
95.7754496829134
95.5694995195973
95.470587960588
95.4536619828182
95.4277243913748
95.3872037698271
95.4632788809533
95.4323653605709
95.2106152768359
95.0213152008705
94.8691444825312
94.7650119693975
94.7694535775162
94.8541511441459
94.8018585404673
94.7598982917193
94.7682515868006
94.7688219921353
94.7300146201054
94.6494661192292
94.6526030492294
94.5387794226625
94.2892876497472
94.2565522228176
94.2672689281523
94.0744564659442
93.8066714693852
93.8256425858669
94.0177430995632
93.979823527819
93.8618830359776
93.8860340829237
93.897859697829
93.8469838645121
93.7050424089121
93.4852783030272
93.2676081141651
93.2419970521585
93.4028285659019
93.4432898026526
93.3143676602006
93.2898179169563
93.3205175127129
93.236670840699
93.0273762233543
92.8416676369907
92.7593549002635
92.710753087826
92.7489975910352
92.7853946771292
92.6991255129432
92.6778694758092
92.6967337408379
92.5703083188669
92.4108109280941
92.3009481522324
92.1375225857727
92.0876274475874
92.168950703168
92.2113056571414
92.1364334245814
92.0241869676818
91.9349926126899
91.9077755623897
91.8628990651836
91.7549007362492
91.7266296971811
91.7349614027405
91.5908212427955
91.4313580841317
91.3219318261875
91.2436396996863
91.1875113150228
91.0932866978109
91.0197127572221
91.138828911427
91.2086698576537
91.0636737732222
90.9029755511707
90.8023136117648
90.7371456161718
90.676150334172
90.4994351204489
90.3942038788177
90.3831874450802
90.2887103524045
90.1355225125626
89.9628059623606
89.8612642369664
89.9073645414382
89.9413211022353
89.8638612269754
89.7233318435524
89.6805498503133
89.5705424800074
89.3988843321775
89.3459812344394
89.2909691617974
89.0944159061002
88.9175484391806
88.848969028913
88.76419742277
88.7003786302467
88.6960765108654
88.5951642760392
88.4311701552351
88.2915928012082
88.2182167734749
88.154894767468
88.0919156215094
87.9659898336995
87.7923175104322
87.6633592034383
87.5764503160443
87.5510271358909
87.5449454479039
87.4571460368003
87.2376076741261
87.0147824981564
86.99441110433
87.0419783465721
87.0062062813803
86.8762705180951
86.7535223966001
86.6959270495845
86.6868516164669
86.6547560885669
86.5522172951994
86.5125795523309
86.4987733005404
86.4370242101519
86.4814666023654
86.4578941277494
86.3740232824999
86.3452572127903
86.3319222738491
86.3503187843788
86.3349235975887
86.245268796652
86.1967137302767
86.2355691670347
86.3264620125172
86.2957484333953
86.2427596428227
86.2920983895827
86.3277434988415
86.3336751430103
86.3469106729435
86.2985140232666
86.2528405953695
86.2691468532284
86.3608353980929
86.3607964551137
86.3146147432629
86.2617607254477
86.2222288109557
86.2126764782435
86.2337607089089
86.2806601561412
86.2815071654798
86.259655571343
86.2819228955518
86.2921882788898
86.3089419304591
86.3448582331357
86.3482042944906
86.2861725881322
86.2561230176139
86.2726666340305
86.3054665112941
86.2734202033075
86.218640862045
86.2245907584556
86.2801189251617
86.3120730387171
86.3591773168249
86.4148463080796
86.4303541997379
86.4090268273796
86.4645002888419
86.5339538557887
86.5589352879712
86.6126556169696
86.6670966878417
86.6349330171684
86.6295831670023
86.7208377610749
86.8502212460068
86.9090761372701
86.9204938485749
86.9787655054408
87.0204991035478
86.9915742937088
86.9863852000631
87.1115373064899
87.2773788438247
87.3081096122953
87.2832151127346
87.2742750900964
87.3343783390118
87.3710651531835
87.3271568226531
87.2448405762492
87.285421368153
87.3784725023958
87.418242652146
87.454233609348
87.4402370697203
87.4249885733922
87.5248686345582
87.6273993019429
87.7134628079285
87.8538895909907
87.9228346450202
87.83384900423
87.8239456847418
87.9090475482172
87.953435567917
87.9990680764117
88.074076239896
88.1753028093506
88.3181631240754
88.3244965202066
88.3308410363252
88.3872115903562
88.395359377743
88.4914961393971
88.5881815443975
88.5823567502468
88.6616439235912
88.7584525452698
88.8217121719714
88.8848507913441
88.9392094263239
88.9638492018294
89.0337715559109
89.0686789581853
89.1351547036934
89.2412659341507
89.2865926550603
89.3091677465167
89.3345264148227
89.3875083502975
89.4537700925558
89.4926696111106
89.5973673239586
89.6415662958483
89.6524249183884
89.75050946175
89.8458336006074
89.8815790011011
89.9724914328913
90.0462519261136
90.0905556349152
90.0789295254154
90.0427836849253
90.1611349725366
90.3174672006922
90.3187912326712
90.344865030611
90.45546442614
90.5397017045491
90.5436713398477
90.5681125220981
90.6716156813083
90.7607882639444
90.8087127849829
90.8147578442052
90.8200429257108
90.9143107946055
90.9847645184743
91.017072444923
91.0141924138704
91.0662809841389
91.1772052449825
91.215121721233
91.2439427829632
91.2767234517545
91.230115698547
91.2842922428024
91.4082756428045
91.4489083373954
91.3996334977402
91.37647638602
91.4496398217195
91.5658164233759
91.6384699658562
91.6901492465656
91.7773835653939
91.8759863484037
91.8670092062969
91.8291879463151
91.8292195216205
91.9054143165561
92.0071153407754
92.0250146785801
92.030881196876
92.0548985158257
92.0678964441718
92.1335221923047
92.1833483804628
92.1986524421729
92.1954523077322
92.247196038702
92.3206520225793
92.3493415605827
92.3448432472678
92.411569331041
92.513147837177
92.5318224379866
92.5441723707243
92.6309589999727
92.6959698546986
92.7161871924394
92.6798931544974
92.6990713202743
92.7854278302654
92.8254390678129
92.8324022064632
92.852254180891
92.8666166828096
92.8737251050879
92.8730259740059
92.88251909797
92.9191301141216
92.9863695373534
93.0165492004545
93.0516353358252
93.0926498713643
93.1327220603305
93.2124379218841
93.2790587700065
93.2614530987007
93.2519030688543
93.2602027498497
93.2446063828103
93.2400065602631
93.2566669506952
93.2655886487516
93.3417974334689
93.3803227381836
93.3957707099671
93.479947988663
93.5100430822661
93.485803958569
93.5008924862255
93.5402731325772
93.6225971977318
93.6302406812192
93.5695418583208
93.5526009984573
93.5891688366298
93.6143780201425
93.672941723646
93.72443857977
93.6966775234996
93.6433485002191
93.6769175320193
93.7388903050658
93.7764352450231
93.8204375444093
93.8271875328682
93.8269126613119
93.8826072465985
93.899786881534
93.8983355068203
93.9177165052814
93.9843002743035
94.0553320456194
94.0330707293639
93.99386351537
94.0471415975659
94.087522771703
94.0740950909045
94.046293190421
94.1032381649858
94.1773326695999
94.2022702349064
94.2361162475878
94.2493301094006
94.2665636459066
94.2915433965527
94.2361706370405
94.2341026983628
94.326665441337
94.3953497167473
94.3793651946975
94.3446437647825
94.3299565910903
94.3515060022827
94.3583550538124
94.3611784130463
94.3883178965751
94.450115823903
94.4652139695381
94.4607507066411
94.4645750170807
94.4547556206421
94.462926656564
94.5056040481972
94.5462010292844
94.5277193814547
94.4687074540677
94.4283476937644
94.433736452193
94.5471239492708
94.6592464111857
94.6620784992758
94.6266111666363
94.5997669629667
94.6125387923476
94.6475588206194
94.6930549118434
94.7069338909988
94.6616016109341
94.7275815421229
94.8241719152538
94.8326357897796
94.8186809414342
94.77396932419
94.724107155245
94.756449174103
94.7650719788265
94.7438421909351
94.7999121907221
94.8786607389415
94.9261871729061
94.9289169294544
94.9061144326893
94.9374414984215
94.9415934324595
94.8735449889858
94.8596066572173
94.9076547234914
94.9021771164896
94.9253393489715
94.998188347325
94.9798108117818
94.9362141921141
94.9700008645392
94.9707737392521
94.9376416871512
94.9179980397287
94.9103190235892
94.8745081390476
94.8724290698226
94.9492417628847
94.9889299521195
94.9331330908441
94.885483333311
94.8725514497206
94.9273227579621
94.9832308588983
94.9159780412874
94.8714187087947
94.852678172175
94.8128853561308
94.8084807687568
94.8300078399907
94.8993139662091
94.9424918328746
94.9414311010051
94.951931991533
94.9672822390118
94.9569827441892
94.9640166909415
94.9630511283218
94.9398419965171
94.9364159974176
94.9490023362827
94.9247869259837
94.8968978302835
94.9416276415099
95.0291768682937
95.0566256505263
95.0302951801297
94.9725933736797
94.8926685701276
94.8437240985415
94.8336266456142
94.8283660650582
94.8121548590929
94.8208905991568
94.8669619135795
94.8949923486335
94.9898942387635
95.065039426493
95.0855268988094
95.1317673395897
95.1682443945233
95.1854052888261
95.1868079991617
95.1991962556907
95.2455547044144
95.2754202986531
95.2722085129386
95.301122456258
95.3780109005249
95.4083535109
95.3907684966479
95.3566780558577
95.3839733777008
95.4219026677995
95.3765163464791
95.360942959922
95.4064989284187
95.433930557103
95.409745569155
95.396751998002
95.4293016785528
95.5028578955876
95.5709972109205
95.6073010048861
95.615905632683
95.5812484462095
95.5386657135519
95.5524790491956
95.5556406256815
95.5528282172171
95.5774176137649
95.5694595954845
95.5474690809951
95.5856391984854
95.6409242323491
95.6702061012519
95.6926748659431
95.6287107574793
95.5465843622848
95.6098326974063
95.6932754002759
95.6888443069211
95.7610598969949
95.8413463556891
95.7964631953305
95.728547810783
95.7310353820611
95.7751283972183
95.8030997074213
95.8025210219717
95.8165748724689
95.8536736492239
95.8565920403694
95.8950519004675
95.9780080366593
95.926381663633
95.8793221207997
95.9302207543076
95.9945615725585
96.0229762585914
95.9796362988712
96.0163986623709
96.0579941152422
96.0433213745132
96.0888334387302
96.062073554198
95.9620749298964
95.9316282152892
95.9956531233564
96.0889173638515
96.1220766202973
96.0476898512052
96.0545262750956
96.1326461339423
96.1341019742119
96.0950844924707
96.1423277116757
96.1899678926387
96.2011380093488
96.1784608186378
96.1870279914681
96.226916857971
96.2574228158061
96.1927658545658
96.1332707230731
96.1516772303301
96.150626637837
96.1924092359475
96.2455739630086
96.1997047284507
96.1713274566798
96.2809456566253
96.3268684533304
96.3056887152628
96.338538008668
96.3803236484199
96.3876762809875
96.3339009072696
96.3715197889295
96.4188751134634
96.3663485509183
96.3588568514656
96.4062932153049
96.4246557597264
96.407405488828
96.3387552439116
96.3054242396616
96.3452506843057
96.3137012791982
96.381560310087
96.5066195359386
96.4514649623152
96.3573098893726
96.3840026248468
96.4328954771423
96.3963484131858
96.3028591576637
96.2533202785835
96.2356040431927
96.239925369538
96.2605322030906
96.2453405319669
96.2530767891421
96.2037284248776
96.1813522258883
96.2886989075103
96.3249489621082
96.2458817891965
96.2332006753668
96.2273365278913
96.1863214362554
96.1561358955053
96.1294315071239
96.1623120619979
96.2378606214293
96.2918997288237
96.2737516901078
96.1494686149228
96.0780703181291
96.1403873469779
96.2034457164042
96.2045882996365
96.2203298566921
96.2144546558256
96.1828439754656
96.1730718411198
96.2248245081241
96.2353566465278
96.1428457536684
96.09259845743
96.1520221086618
96.1315248111222
95.9910112871348
95.9582767533126
95.9693059650557
95.9686706143262
95.962702402337
95.9059204406349
95.8828270028238
95.8952728785068
95.851400169984
95.7070888217321
95.6415765640101
95.7123316825649
95.7921358142492
95.82828124212
95.779127515398
95.6502055196455
95.5454281897147
95.4354344535716
95.2879197263443
95.0629058961232
94.77812990101
94.5546214549352
94.4275668564604
94.4621030930401
94.6494325286123
94.8414349301769
95.036503241258
95.2269389276372
95.4121761502855
95.6207914089426
95.8024924421396
95.9847361069349
96.1160615118107
96.1783420469841
96.246443484704
96.2933456248171
96.2432510337165
96.2276255928969
96.3058701940886
96.2999312856888
96.188333744355
96.0994824796094
96.0198897243147
95.9827751402261
95.9753882080796
96.0806045428911
96.173836736221
96.1361172029284
96.1433081200724
96.2655411908473
96.3660014879018
96.3246655388724
96.2328490764305
96.1676471003428
96.1541670765849
96.1720155320575
96.206474677163
96.3133604662228
96.3175282223703
96.1852043910019
96.1075996169578
96.2165465297693
96.2983315240752
96.2629489210868
96.2371514661168
96.1612949890283
96.0751863409418
96.1602345059875
96.2748322112727
96.2288631763331
96.2276418346118
96.2530421635645
96.2628981163837
96.3363317168809
96.4156520568847
96.4869492172697
96.497434012091
96.5103613570035
96.4630555670965
96.4258200269257
96.5463832391369
96.6107483591556
96.5762629740024
96.6684030210116
96.7821004225265
96.7584970915358
96.7242024168312
96.8143073450892
96.8579284017585
96.9569942116443
97.0445863632692
96.9003742091366
96.8232728064838
96.9121898520634
96.9953767013196
97.1049719356931
97.2116721541579
97.1884901412295
97.0254813981235
97.0432603155892
97.3040577170617
97.4820519162779
97.4908730384502
97.4999229052813
97.3813096192112
97.2782296724307
97.3358092315262
97.4062233185347
97.4277625562694
97.4280612975014
97.5327252277412
97.6737292632876
97.5883090773727
97.5863278402788
97.6940131690427
97.7049671904368
97.7483796042454
97.8312478697678
97.6801769624391
97.5329865850943
97.6442652618801
97.9306405944573
98.1472314193413
98.2786337862561
98.1473914847454
98.0582400143414
98.2241104851936
98.4773146434285
98.3873833080948
98.2667235034548
98.2765973239459
98.4021201376852
98.5249796955721
98.6946045370428
98.6793341760421
98.6028793179518
98.6254041936475
98.5768650671803
98.4591180954731
98.451293605029
98.7038225679381
99.0524098158267
99.0970426086794
98.8208753081537
98.8888177072783
99.4159926631266
99.5776001668143
99.3114521233905
99.2185866487635
99.3495953357697
98.8713635730213
98.1989441174482
98.22563399511
98.6579282522451
98.9302470767584
98.6281288838358
98.0935759977037
97.7971660630623
97.6416787117259
97.7660646122197
97.8640453899587
97.8041257277887
97.7520457754872
97.64889078209
97.4008845240394
97.2804482091721
97.3279699722659
97.2871367896534
97.1685090912243
97.018525990843
96.9384300491508
96.9566758855513
97.0614097599734
97.2519783209997
97.2510909496258
97.1224878856768
97.0499908473784
97.0218707540886
97.003647382866
97.0573526175531
97.104570635282
97.1652845533491
97.2078355566841
97.2157393773266
97.246260446068
97.2442295763282
97.1335187912111
97.1356993592315
97.2086166576
97.2351130682214
97.1952038311813
97.166495201605
97.2289919198173
97.264084761014
97.2548985141658
97.4502878578657
97.4567287761552
97.3081998056778
97.2712177846932
97.3958362896501
97.514854274235
97.5702273656517
97.5562240631251
97.6091289310642
97.807568877075
98.0941180803783
98.2070273162998
98.2514580088687
98.1666068912282
98.105541624854
98.2969460582363
98.4769412183084
98.5958781118029
98.5993326661241
98.6134753821539
98.8601681111579
98.7339627442578
98.5093870934656
98.6332683660472
99.0133087547638
99.0639289864019
98.7119710758104
98.4648250191736
98.7862625228234
99.2221215927883
99.0329984905924
98.6099303498225
98.5257138600743
98.5509359224524
98.3576318707529
98.3449042681381
98.6841597083684
98.7128417829153
98.4406785874948
98.2518362484253
97.9404266854774
97.9399332599976
98.1930344730389
98.144209006211
98.2366428799433
98.5862130552731
98.4943118214382
98.3655461540449
98.782892799677
99.0065039293349
99.0635809851943
99.136862449803
98.9217965776779
98.7515351833011
98.5904903957024
98.4280544333749
98.3965762580556
98.3173266441617
98.3932299432964
98.5077582096141
98.2729962900699
97.9950156124481
97.9350465342909
98.0279362985923
98.1988045725125
97.9924077054226
97.7636304240942
97.8117806319007
97.8483759419675
97.8590481653409
97.8089306331108
97.7325996992846
97.6916325360885
97.616954345577
97.5453131161781
97.5931857714953
97.6635785914823
97.7494719030179
97.7488759437477
97.6324306213957
97.5128592446049
97.3837377747905
97.2694536442649
97.3282691473795
97.465069348475
97.4798664026129
97.401619177397
97.5083486258118
97.5614925448811
97.4368933381803
97.4070342086114
97.425806768833
97.4147490603383
97.3699671744531
97.3580343141113
97.3791832476984
97.3236646897719
97.2792033448225
97.302601866178
97.3140950943684
97.2775705944062
97.2824793306608
97.3204491775185
97.3189707917189
97.2986117841293
97.3346966135207
97.3564805143421
97.3072862180585
97.2176386297061
97.2450187243294
97.328949211521
97.3124284771119
97.2991377944784
97.3132398940518
97.2946286343193
97.2945180684182
97.3358508865052
97.3703786816351
97.401830285949
97.3774424490085
97.2731200477628
97.1967819486676
97.1291552246539
97.2311467038297
97.2522817738915
97.1791144908017
97.2642086051308
97.399523297241
97.3917240649725
97.3438962103814
97.2763884901768
97.2623834231534
97.2418882424873
97.2121290655993
97.2175667538869
97.2296310059748
97.2322049601541
97.2330184282938
97.2564237286401
97.2414615779244
97.2272096272058
97.2243345721925
97.2746255845241
97.271049800715
97.246098837356
97.2322158233461
97.2448829434773
97.2447550165283
97.1932180579131
97.14004132194
97.1400268952672
97.1841066486484
97.1635850699434
97.1301150598147
97.1129534712
97.1076181931325
97.1113791023134
97.1576563277077
97.1769945926498
97.1066914613434
97.0553126237778
96.9824919675531
96.9441908384615
96.7678635393901
96.2071821734641
94.949387636269
93.8266057395164
94.2588642190478
95.3148379801901
95.9444173994813
96.3624132463977
96.5222122568953
96.5441018888536
96.6409749177727
96.6827144256781
96.6359352627546
96.6019418100356
96.6462827003795
96.7445432266316
96.760862757296
96.6722703278324
96.473533438354
96.4525331397965
96.4707569951292
96.3558792972052
96.2909520876419
96.3753626425767
96.4508508042364
96.4577408842554
96.3857363665888
96.2062643114243
96.0665415871575
95.9676583819025
95.8939394843922
95.8152841925147
95.8047221903751
95.8738966745711
95.8018631551128
95.6554982219908
95.4378429629736
95.2259710927448
95.1067887143993
94.8567722439497
94.757726123295
94.7236585277521
94.6469253409276
94.4736975061965
94.2845246640986
93.9810513449961
93.8692727666011
93.7154012950977
93.4720012927747
93.2963969727364
93.1429811517658
92.9987143844167
92.7879949868812
92.5915445320382
92.4860118592199
92.342167651355
92.1162036697421
92.0119106282657
92.0763921662847
91.9526587765668
91.6753177557922
91.46759572691
91.32073296407
91.0783344873897
90.6609164080243
90.1156078868305
89.8959631892576
89.8813407315814
89.6620645907628
89.3594455590281
89.1251580094981
89.0502636181438
89.3288873571185
89.5422841338989
89.6448303692361
89.758135010531
89.9357621686087
90.0627340075026
90.2004392034196
90.3592650943579
90.3081336312312
90.2064605121391
90.4018297071303
90.5897842350068
90.5641621387849
90.5814555985629
90.6991532726271
90.8109578843507
90.8588820313126
90.9389396327526
91.051650690049
91.1453459477143
91.1896273543004
91.2132263272502
91.2764000692775
91.3713287386227
91.4203987941769
91.4572973415343
91.5094541641971
91.6241081688524
91.7260215944369
91.7597212063542
91.7275596492892
91.7544502983044
91.9086630426228
91.9057080999843
91.7749211145135
91.778863154385
92.0071756708699
92.0937570917445
92.073220587801
91.9846119081442
91.8101361008594
91.8936571490574
91.9543302156349
91.7907592914591
91.8224550772063
91.8895308975112
92.0089171968119
92.0926434289465
92.0358180380086
91.9071771871111
91.7750257591891
91.7800414940708
91.8468069220321
91.7454101522242
91.6337216994969
91.7811928368969
91.8352312902455
91.8002559590334
91.7463144798478
91.7119706520355
91.57478013545
91.4467291442374
91.4182861615571
91.2971028652224
91.3541587645429
91.4243332069075
91.2967103053461
91.0419814320456
90.8078294480664
90.9220256279228
91.0346730314809
90.8688978617059
90.6551211877229
90.6103049625002
90.7137193365624
90.7400267503003
90.5783692583935
90.3087894454459
90.1953490065421
90.1979956764649
90.1559200996079
90.0706830658926
89.9694823023642
89.9203932952096
89.8083126192619
89.5554979395783
89.2650888078508
89.0786952221389
89.0463667431132
88.9180364717458
88.7438575208767
88.7251112595284
88.8090266269501
88.6284449808621
88.2894782674074
87.9343062739266
87.7742924294039
87.419091974351
86.7404467722674
85.9298571859805
85.0507403786242
84.1825662204653
83.3853036087248
82.6181920407333
81.8904171089387
81.200607546197
80.3843513440667
79.5661767604161
78.8338413205026
78.4278138092724
78.4768647339615
78.3901917738903
77.9515322115356
77.4067939493662
76.8839101636318
76.2860516423666
75.6961682799045
75.3128146043179
74.839553803692
74.3407500999547
73.8539247690197
73.3639021522516
72.8484805161193
72.3292748008753
71.8243982771106
71.3315641938604
70.7213346728223
70.1332058197532
69.558113942945
68.9477524262794
68.2869021521433
67.5644430647377
66.7235748187768
65.8005824776136
64.8446358083352
63.8390136522117
62.7876714512356
61.801833981911
60.9228944037375
60.2225091796478
59.8490097070273
59.8694370846354
60.0130738365992
60.2629947906296
60.5325457256603
60.7621723688641
61.0641402762195
61.4837711830524
61.801096815606
62.0634999008639
62.3408865782534
62.6490753578733
62.9372644171507
63.2556651103518
63.5664112361702
63.8889143649627
64.1923554960432
64.4634006182186
64.7335224157653
65.1238652518835
65.5099817754094
65.8270969186623
66.1205623174793
66.4849448832407
66.8336660552865
67.1958878371602
67.5602083004401
67.9372081395939
68.2966502438043
68.6573616819082
69.0398395983114
69.4272212633265
69.7784447948584
70.1593996908153
70.5130174231312
70.8497987742783
71.1793683745164
71.5059439162222
71.8315545924248
72.1584836133633
72.4520017301375
72.7681744823897
73.0786584441474
73.3655011206898
73.6468630945203
73.9329348227717
74.2082031136432
74.49400904174
74.7603742593158
75.0155048966243
75.2524263400923
75.4959591308041
75.7363495946436
75.9705320032511
76.1731562863172
76.3999183130618
76.6052248204488
76.8023220561669
77.0014871062682
77.2219988493975
77.4357431522795
77.6394734263
77.8176875497448
78.0091894529761
78.1926175611174
78.3476454787644
78.5095260364956
78.6993202002909
78.876330527413
79.0378336050326
79.200299968031
79.3716534125728
79.5273009687619
79.6746899802223
79.8049823505149
79.9378346200002
80.1061696689981
80.2437979552031
80.3329273356549
80.4377165338117
80.5353846405545
80.5866593358257
80.6081483574953
80.6207600988493
80.5767306691066
80.449027761387
80.2460584887452
79.9783161352207
79.6164956920373
79.1565892366166
78.5970826718182
77.9488712444383
77.2335132217664
76.4916890984788
75.7846140332331
75.1781626940354
74.7204147777413
74.4910287796916
74.5424833879177
74.9283540601391
75.6103902973871
76.4182948035803
77.1344378221829
77.7020565626185
78.0848118675449
78.2827926969986
78.3059524105303
78.1795559442582
77.8938609998518
77.4914000124605
76.9772152690446
76.398086696376
75.7314575269382
75.0204428996721
74.3257510759916
73.6909268764287
73.1000743194362
72.5601452434937
72.0392341048483
71.5112970242598
70.9570439815564
70.3827553678942
69.7679964035274
69.1421842396771
68.5265921480616
67.9682958854013
67.48587664699
67.1765344536523
67.1159141028367
67.2527318133494
67.3101000513912
67.0230601007493
66.3402421101356
65.5590375312205
65.046312741109
65.0427049292969
65.4217756860649
65.9469784497203
66.4213851161142
66.8069266877301
67.0608752453991
67.1493262066304
67.0572414887234
66.8562331696672
66.5290169806979
66.1183973742084
65.6270463953043
65.1528829654594
64.7472637109703
64.4733657356542
64.3679993871992
64.4612861186081
64.7538551807785
65.2544868398982
65.8748517090436
66.579563750101
67.3320996770188
68.1308555570075
68.9627750641007
69.8020834359352
70.6297969212706
71.4758900868107
72.2936826554971
73.0887533350276
73.8218367025263
74.5009652044005
75.1442137601341
75.761782970234
76.3144849231493
76.8461404081186
77.3514332166912
77.8162819829249
78.2041476011269
78.463932702247
78.7718064110464
79.2573209685084
79.706471126425
80.1098344271697
80.4645765794054
80.8462311039811
81.2056315465656
81.4952953056653
81.8078941433327
82.1171425283365
82.3867861109646
82.6463510215132
82.9061565821121
83.1437676830181
83.3689857369354
83.6074601223243
83.807920864735
83.9835404226502
84.1826199485051
84.3655508071282
84.5252865902823
84.6773080793311
84.8140011343395
84.9429343040703
84.9656382864994
84.9623786563108
85.0372281590859
85.2195382068306
85.4263012351832
85.5949532224079
85.7350159979005
85.8945190525957
86.0324400539969
86.1264587826042
86.1873014058208
86.2008396354595
86.1589407404219
86.2120166925972
86.4245015553464
86.6645079962174
86.834764111592
86.9789588385179
87.1489164772673
87.274011705474
87.3397107614739
87.4243216064975
87.5052917233391
87.5967595686086
87.6914764240919
87.7714341274154
87.865834435421
87.9379849046421
87.9566566456037
88.0056896454481
88.0930521580682
88.1678015032951
88.2192307398993
88.2742420738936
88.3181198203622
88.3730948575011
88.4229266449307
88.4630797423646
88.5185454372877
88.57697009852
88.5904418553882
88.5893581701057
88.6598290834296
88.7400935376116
88.7679436909476
88.8379774813142
88.9030119435966
88.9143767960836
88.9299324994722
88.9707441928321
89.0020677584667
89.042052758539
89.0669381054636
89.0786215406154
89.0866631575029
89.1350068427673
89.1543006708931
89.1493892404278
89.1912366910687
89.2392644847449
89.247988804402
89.2740661341478
89.2909975860514
89.282249806938
89.2386898923747
89.1876408688487
89.1386373940985
89.0800948747041
89.0428957010867
88.9658833672519
88.8181764238706
88.6948056226905
88.5526733739958
88.4032898320867
88.2895896848174
88.1908577220991
88.0995695469656
88.0015067800306
87.918209113394
87.8732045598391
87.8571705499932
87.842139488763
87.8525626415954
87.9148402910171
87.9758764881876
88.1000639726032
88.1861097998525
88.2239708505329
88.2542515487664
88.2103828579518
88.1080035839121
87.9003668957525
87.4980332231452
86.7087247924363
84.6070155519185
79.9873268684192
74.2055963838119
71.6483082397904
73.951872114391
78.179466625623
81.5942281047518
83.7586297547879
84.9901235427404
85.523072408503
85.7196510121878
86.0847904049734
86.4294521131169
86.6203024297644
86.6942164616763
86.6733441190005
86.6557948724601
86.6312770525407
86.5750489118823
86.5142560135438
86.4678180627759
86.4098462838612
86.3328237167112
86.231274027187
86.1166339895373
86.0160547871625
85.9241229991432
85.799983518127
85.6362979323549
85.4763467406896
85.3131656942749
85.1039880103145
84.8264583656794
84.5871286625784
84.3301557434095
84.0170559277406
83.6883929116494
83.3765830079842
83.1448254481818
82.9377902646953
82.7287005032055
82.6117620096331
82.4981111232715
82.4433155223831
82.4584905981815
82.5515124979236
82.6408013909788
82.7104261628291
82.7817041164565
82.8863379872701
82.9779298582189
83.0461903172469
83.14112376339
83.2300222388726
83.2697230109487
83.3120135149203
83.2741915183502
83.3052469960952
83.3800530843234
83.4078676948955
83.3222763820033
83.1886277146558
83.1326132068066
83.2137526772673
83.2455234232862
83.2032734424773
83.1259718297888
83.065124104794
83.0658549241555
83.0451068073596
82.978651290445
82.97646881409
82.9366122333603
82.8948830052137
82.9067518437494
82.9295934966783
82.8978537219434
82.8516155233557
82.7976229938814
82.7658222138186
82.7464276075466
82.7653885555378
82.7329570292729
82.7502987445174
82.6980804283021
82.5432652759382
82.2669483517381
82.2613600473046
81.8147405878361
80.7033899881545
78.9939776829665
76.7616024145958
74.8398056110405
74.6525271018316
76.2030865179921
77.9392316531535
78.8793661044712
