1798
3999.43349933624
650.420452594757
1
128
4
96.0985028187427
96.0664525029208
95.9772105717767
95.9813407479005
96.099669883517
96.0989957137508
96.0433680957316
95.9961061147611
96.0081773239854
96.0841583814716
96.1361673123474
96.1201956811149
96.026701641998
95.9633155172498
95.9776744530769
96.0249569078259
96.0487199920577
95.9968093563461
95.9635718431217
95.990321170162
96.0443612375187
96.0102484901003
95.9699797173683
95.9384491569581
95.9456870823758
96.0312025279381
96.0704710104928
96.028104372087
96.0188805324135
96.0266646262207
95.9499478132983
95.9053459575955
95.9832349031487
96.0454185188123
96.134824902792
96.0814164064886
95.9340369903847
95.9402776008691
96.0565714885103
96.0821437305029
96.0608841909793
95.9897877281663
95.9634828281098
96.0617111868055
96.0507490175639
95.8482679925259
95.8904497665659
96.0891048745206
96.208974694318
96.2869840227467
96.2521497969933
96.1211944453754
95.946036476069
95.8321596997756
95.7541809652543
95.8305216355957
96.0493061352826
96.1489320309713
96.1257306181897
96.1373694103453
96.2014404515483
96.0115006731178
95.7439498061531
95.7021250868085
95.7563370521596
95.8632259261953
96.1269707132952
96.2349925543507
96.2635088641105
96.0987024227239
95.7725849173325
95.8034437614561
95.8536745986977
95.7511534213398
95.8121086990065
96.1842370233794
96.5588286327254
96.4073082970826
95.9883896124355
95.4511043653529
95.1081435526947
95.7061279922097
96.3646375010213
96.5504811939381
96.4033776262552
96.1960025912566
96.0919935791487
95.9058272901086
95.6858918250669
95.8735027189909
95.9085449750391
95.7216704134657
95.9812240360262
96.185912403135
96.2990875082763
96.6405769845199
96.1552312660372
95.7720115697186
95.6344647687224
95.4013913173661
95.2545150214037
95.670519201522
96.3113697605236
96.5086638781881
95.9988952757371
95.8616930450679
95.7854367059465
95.359607306331
95.7309860027852
96.0513426501858
95.8091800237276
96.0479919847796
96.2236690920317
96.1732197357972
96.1782915111483
95.9871179324933
96.0364178668426
96.0651477462147
95.9802671788031
96.0807971279599
96.2757218941804
96.3834151635193
96.385559908021
96.1379171710398
95.9868614577308
96.0541754089159
96.1697473691765
96.202133292336
96.2014617157834
96.0779881795018
96.156360850195
96.3727288299846
96.3643753855373
96.1147650781687
95.9624543383646
95.8726246865905
95.8497724568868
95.7707073333716
95.9491921786128
96.1845930976024
96.1481707967585
95.7881524572099
95.6379696069299
95.6600438266302
95.7818663261798
95.9630295928317
96.1652083117085
96.2675411130372
96.0754093850741
95.8102097825445
95.9490086378658
96.1780381374543
96.2917029413921
96.2063251038541
96.128723011299
95.8505309452073
95.7520966252816
95.9280033098291
96.0786485818217
96.1402229332829
96.0531994933542
96.0416693528602
96.1382724731945
96.2791559735847
96.3769546093637
96.3424008793892
96.1086460698434
95.7131829725236
95.6982325277839
95.9409040253911
96.2072639800017
96.35182010805
96.4108758734246
96.3562440886707
96.0311261955936
95.7580985113648
95.6061185796793
95.5126076766256
95.5998638326473
95.7335594026074
95.8271397209184
95.9877842574685
96.176282254414
96.2337298160793
96.0622386863988
95.960292693736
96.0801744837959
95.9183454968932
95.2842593762409
94.9667540493217
95.0809823440567
95.3796644617585
95.6083726103268
95.5967925888927
95.5578661733058
95.6602269164635
95.745573855171
95.7678974397711
95.6126382141485
95.1965866405161
94.9118753849713
94.9866452397696
95.2407684254898
95.294934123651
95.0453694569787
94.952734698749
95.0259398614962
94.9466078679964
94.921819420339
94.9046383480085
94.6901141970448
94.5660629521212
94.6641134326972
94.721085117418
94.6755754439085
94.5954247052688
94.6400850664061
94.6062132077806
94.5031534297349
94.5437601744983
94.505341419538
94.1922657764964
93.9525842114561
93.9511945179101
93.9894011332939
94.0511197444019
94.1156217432127
94.0487455685501
93.9172927844373
93.938082473302
94.1222084910577
94.0702707393385
93.7283677656372
93.5232227843711
93.4422736617744
93.3640963272426
93.4627262575675
93.5541796509041
93.4745832053793
93.3561338769641
93.3818564455168
93.4002616185001
93.2721062028482
92.9956608906723
92.9172205071621
92.9726284373322
92.9303235040275
92.8638037953116
92.7843818878729
92.7838820332914
92.8550150366632
92.7852987774249
92.7054332480042
92.6478314396858
92.5196429170043
92.4220138687818
92.3615929774921
92.2664329172656
92.2951205220726
92.3276694861569
92.2957518261213
92.2694882471689
92.1452554088852
92.0266831863913
92.0241675938293
91.9055898025496
91.8253240631522
91.8232158954825
91.7314802875541
91.6501145160928
91.6309716036596
91.5281606647211
91.4150108455144
91.4607312544938
91.4991862149851
91.4081789623361
91.2802722588471
91.2555795473774
91.2762943189428
91.219322112857
91.1344476065725
91.1057136746952
91.0462903869993
90.9600259221066
90.954993011533
90.9133467095099
90.8640824083217
90.7431970854453
90.7025115883166
90.7207448025729
90.6516927175179
90.5002214255099
90.4402855003181
90.4664731608466
90.4459128007362
90.3273016090371
90.3031415508502
90.3494886506626
90.3232112336835
90.2799761217514
90.256673453059
90.1246668176964
90.0328670341092
90.0337025229009
90.0330611011075
89.9591749686154
89.909821658993
89.9004508143352
89.7624570970296
89.6357930873718
89.6900304136267
89.7519057265398
89.7317469248299
89.6482813096432
89.5499351772598
89.467520539595
89.5026038924106
89.4603590565846
89.3852204880951
89.4169106601186
89.4548137348241
89.4250777336966
89.383700600424
89.2720293937001
89.2596695986445
89.1603456443615
88.9804888566098
88.9703086536032
89.0744518176494
89.0617108974089
89.0051191168948
88.9654479424592
88.9312761896728
88.9151090375678
88.9711935301634
88.9291634354183
88.8677127576074
88.8545546098915
88.8599138114983
88.7697592105944
88.6955027287989
88.6788822670382
88.6656674290033
88.5733246130771
88.5255050467942
88.532106728468
88.5401148517006
88.6056205152317
88.6516594285602
88.5100716187885
88.3934695740984
88.4293539032237
88.4536500437717
88.4179271266952
88.2885390018964
88.2035732917794
88.2627839358631
88.2827620301402
88.3267943664918
88.3532491589857
88.302325991324
88.2736480000983
88.2145151439861
88.1417802779094
88.1705872676926
88.226860226235
88.2388414384866
88.1149825846942
87.9734285489248
88.0029432724668
88.0997886341302
88.0915248490092
88.1033115444168
88.0931933089099
88.018117076171
87.96642498979
87.965432214707
87.9175611653232
87.9291160608862
87.9320905427942
87.9566405852419
88.0229795141634
87.9877543781754
87.9289483376159
87.9496280759109
87.9182738591955
87.9036170553609
87.8822785659527
87.8603329670743
87.8941115663442
87.9104792266656
87.8661629075538
87.919140559095
87.9164950023213
87.9109119195476
87.9476070833452
87.9562867282329
87.9504819104425
88.0058990317368
88.0307822735679
88.0320752009215
88.0602788633243
88.0818301663779
88.0756335916254
88.0686287208254
88.0511853036197
88.0342213459141
88.0728220117925
88.0409862234318
88.0412690704686
88.1089539024896
88.1483687793506
88.194825353126
88.255806157794
88.2735245712984
88.2258893928441
88.2083045580475
88.1965976036739
88.1856735934581
88.1881965299129
88.269965644634
88.3245862897611
88.3062640523985
88.222455478347
88.2605141323389
88.3704036220711
88.3904053267237
88.3972874208212
88.4248181477081
88.4166884887314
88.4003005806038
88.4374170954093
88.5447099702579
88.66434818931
88.6307609620004
88.5396037937869
88.5885924102734
88.641160436371
88.643416757199
88.6352075305427
88.6853955250881
88.6785964957218
88.6571485255309
88.7098831470458
88.7923200729036
88.8049949388483
88.7746287742806
88.8819320363818
88.999215315721
88.9546854853967
88.9672838518839
88.968561922276
88.9836027946695
89.1033062676052
89.1849154190201
89.2368871845126
89.1700445720046
89.0909913854453
89.1502586386243
89.237687187878
89.3136691818982
89.3512961206623
89.3622528145858
89.3446023931612
89.2871561201699
89.3399011093555
89.4328895342855
89.3865438318147
89.3615905150514
89.4916326430862
89.6013509393404
89.5908922861732
89.5497271489953
89.6225539639862
89.7155505813404
89.6738115785824
89.6404263768787
89.6700952394859
89.6735950590843
89.685381206632
89.7096061373575
89.7289213504152
89.7280657755325
89.7835804236589
89.7981174127827
89.7480943175283
89.784789973794
89.9272281423359
89.9754842397306
89.9476302449848
89.9534404312238
90.00135262673
90.0566468220721
90.043496658746
90.028147096922
90.0308026898429
89.9996796173452
90.0271882971505
90.0908563313599
90.1454109935671
90.1706404581314
90.2029348839291
90.1861940648489
90.1606950304984
90.1735139588404
90.2738612067326
90.3536530885925
90.324728891047
90.3021686200005
90.2978042519844
90.3602116582054
90.4644988763874
90.5202934886554
90.5469396862286
90.5265777209886
90.4732297279037
90.5310716218202
90.6365163269684
90.5990639763904
90.5804668183797
90.6552213740373
90.6258507286196
90.5667556821079
90.6377168814683
90.7052911070144
90.8012140097257
90.834337004458
90.7769279867729
90.7756737251881
90.8593663751318
90.9032786550425
90.838777005921
90.7327444846673
90.7244683372935
90.7688999072175
90.7721245449753
90.805947068735
90.8735378051986
90.8861454499285
90.8612866281991
90.8640243934388
90.8947486158578
90.861527190934
90.8062121129299
90.7453828325367
90.7124460257079
90.738842478532
90.7705729467164
90.7485057900965
90.742704356831
90.6998025900636
90.6189130381313
90.5406459081292
90.4695655470747
90.4525340875478
90.4419008166559
90.3907851134362
90.3358172955452
90.3306199145153
90.3417301707593
90.3530317718443
90.3428607286908
90.3260774210633
90.3682687813579
90.4022172321021
90.4170445026561
90.4086783463223
90.3867161066366
90.356089384354
90.304385524698
90.2684512620529
90.2488972178047
90.2410245264562
90.3145485262432
90.3131677648587
90.2505175453421
90.2655766504558
90.2913822296095
90.2663859135701
90.319131093866
90.3730814360505
90.4217783428805
90.4949971683987
90.594317165725
90.6679166353358
90.6899950724907
90.6914907632357
90.7237244585299
90.6931191493254
90.6658448407851
90.7393872384672
90.8350426610882
90.9150780899579
90.9593937244393
90.9289357103874
90.902861002901
90.939765612377
91.0035056061858
91.0283127166288
91.0088960681259
90.9893474434863
91.0026803047641
91.0544036316477
91.1353633971665
91.1705476589169
91.1292886603355
91.166357948014
91.2715389626255
91.2800821620068
91.2256340914645
91.2580241942976
91.3615440185878
91.4118334372278
91.4359186910381
91.4127224494965
91.3719080962082
91.4294409667856
91.5558447421855
91.6502536800868
91.6669642232591
91.6259086829432
91.6734385658953
91.7547690802248
91.8555328235653
91.9504591580878
91.9669189426172
91.9833275512728
92.0229262123077
92.0137324853721
92.0059664964427
92.0272264609431
92.0589852240462
92.0681220444305
92.1521483175347
92.2251267211801
92.2484668180641
92.2519899029062
92.2997987493079
92.3465010457813
92.3434456733718
92.3331344583486
92.3328948708964
92.3724628271781
92.4510584043987
92.4739853201096
92.4881082772063
92.5065022856716
92.5131415080054
92.5235558833755
92.592033840019
92.6087551559513
92.5526945601551
92.521425814624
92.5422911603136
92.562233538343
92.5718447319538
92.6210249288291
92.6923159625448
92.6913557297928
92.6614846970762
92.6631255168746
92.7038423475376
92.7148177500153
92.7375765807478
92.6990433316047
92.6442147858112
92.6689770724746
92.7096661088803
92.6996427006766
92.6924506487758
92.6652361631462
92.7016761930009
92.7823266277601
92.8110660841611
92.7823818623452
92.7625160677924
92.7364934188897
92.7639360401149
92.7884946052483
92.7772148900039
92.7741765492411
92.8086625889478
92.8007413648516
92.8149362646656
92.8565801054107
92.8757533079891
92.835496651846
92.8089523531512
92.8485121408645
92.8753142562134
92.8421817037546
92.8550966189833
92.8871063238969
92.8616562027898
92.8253734609482
92.8225522994055
92.8155716191385
92.838840059696
92.8515731204333
92.8424782336665
92.8092669740984
92.7696476853614
92.7873359454141
92.8092146056542
92.7648494741058
92.7471069563776
92.7418210910522
92.750778718165
92.7737549480747
92.7721846061305
92.760816546487
92.7496556355558
92.7189443979342
92.7085704182825
92.6886963816719
92.6761654357402
92.6779916883107
92.6927693668733
92.6734665304204
92.6383181733778
92.6480120986839
92.6820249306586
92.6607604179212
92.6109209636101
92.5998917510699
92.6213679113182
92.6168840734728
92.6442995766044
92.6199655493176
92.5282619138137
92.5275219909954
92.6459095822804
92.683524989953
92.6502258732443
92.6389090825934
92.6390978092471
92.6131265930817
92.6124565192256
92.6491648268522
92.6714287726351
92.6473992696784
92.6502430720253
92.6137086113694
92.606731246503
92.6686382705015
92.7170060889851
92.7206092497373
92.7323282344306
92.7355578471536
92.7864690406598
92.8110252658171
92.7963840682438
92.7747731195405
92.7456649348037
92.796535218281
92.8302242993897
92.7862801399123
92.7757349802231
92.7723515339231
92.8640883483638
92.9243357797302
92.8531217055229
92.7947188431138
92.8374361130938
92.876452134442
92.8808362188183
92.8802415364592
92.8562950838139
92.7879448323609
92.8438537311702
92.8377045333087
92.8021114480958
92.8507884852886
92.8714492453235
92.8507055972276
92.9005974789985
92.9366152476949
92.9652390750137
92.9992034103913
92.949607412723
92.8098860202653
92.7962521768004
92.9263441399102
92.9808119236451
92.8866331917937
92.8067478687608
92.8147165003907
92.9107026536322
92.9360434967589
92.9892974035109
93.00554675485
92.8811959344581
92.782851906766
92.8502363901198
92.9220200430974
92.9115188143939
92.9277569542823
92.9833186105372
92.9678677034131
92.9154942582961
92.9094562444186
93.0588461343685
93.1303807100614
93.0249838986707
92.8901000376394
92.869312801315
92.9180810131707
92.9657912150416
92.9852427302069
92.9518739363725
92.9078351009234
92.9620678157747
93.0085737354044
93.0773030986916
93.0986104211649
93.0728664405365
93.0119214298452
92.9556813544551
92.9756459567803
93.0681416355336
93.141015303087
93.1951691039774
93.2007821514041
93.1425035710156
93.0688831273133
93.0901189204805
93.1150116143645
93.057659479198
92.9529529260034
93.0204835814654
93.1551003137373
93.171345518743
93.0650105804523
93.1078746529814
93.228169652392
93.2617077580328
93.2498859407604
93.2359180406809
93.2071300519221
93.2329485931282
93.2558577091304
93.2469915925716
93.1939343568588
93.16923995431
93.2487552766956
93.3021327346085
93.3091162145819
93.3748198236398
93.3475325157008
93.30811173542
93.2980315984713
93.3170073474916
93.3165604957163
93.2755650083448
93.2843959280443
93.3041433559467
93.3256702884277
93.4328961704035
93.4589704696996
93.3904375688284
93.3708312116064
93.3955520266354
93.3662275447219
93.3794871036788
93.3953442770786
93.3993251041398
93.4373447907342
93.5045630491334
93.5767492353187
93.5797114406714
93.5501174277971
93.582949619474
93.6294783132034
93.7107399426184
93.8001610536786
93.8113808880469
93.6900802642507
93.599272033683
93.5950117363831
93.6027520997926
93.492539567988
93.4017957829522
93.3083178337223
93.2404106587819
93.3225882519831
93.4553929248961
93.5475542118398
93.5947090669209
93.6787356352459
93.7072378833282
93.5857169655016
93.5579288701207
93.5612628312437
93.5701598327517
93.6125586690701
93.6200798677901
93.6065956367631
93.6008068245674
93.498525966925
93.394942097838
93.4426437984711
93.5199047567064
93.523221186902
93.6089808431601
93.6826564921968
93.7069369669704
93.7321575448799
93.7503410930564
93.7860774390481
93.8078340609333
93.8173089034144
93.9194833145084
93.9966199910197
94.0167575542738
93.9979893837033
93.9439813983853
93.9899334653094
94.1499650394809
94.1770775917061
94.137659107159
94.194813829783
94.3003546716402
94.3158995585294
94.4635076346833
94.6827866405858
94.764658577629
94.7694878910117
94.7909429258822
94.7667445115928
94.8523020692009
95.030909539597
95.1509181970729
95.1778717828391
95.0545785275708
94.9567075647879
95.1336858917116
95.2452563941835
95.1638772290666
95.0984411856673
95.183306793076
95.2604395816637
95.3580148989363
95.5094938933826
95.6476911152448
95.7398399723888
95.7185235934547
95.56645394072
95.5952075950282
95.6313850266556
95.731606996957
95.922777596612
96.0479430991275
95.8519206958592
95.8686779561105
96.2757465957846
96.3216302862362
96.044168273579
95.9522726332862
96.0413033217631
96.3375016917544
96.4560474430905
96.3174539414947
96.375960960487
96.5381035699301
96.6974135964219
96.8405337407148
96.6573953663413
96.6386894578443
96.7147950596204
96.6562932499319
96.6741454497901
96.823936025762
96.9922380748942
97.1791454802509
97.1034674335971
97.1166585138076
97.2834471471868
97.0442907487208
96.7581106677399
97.3046066735963
97.7400425961686
97.5022636102047
97.3138038525292
97.6169436768256
98.1147893046556
98.4509122566671
98.5198199929392
98.4111541653527
98.5056746168067
98.5892403840666
97.8604567184154
97.2174279746507
97.0601216821405
97.1194442714395
97.1609896600909
97.0178221758026
96.6556739215505
96.5921658659998
96.7069070447302
96.5864407315576
96.3823546861049
96.389999410635
96.400099653558
96.2668219244487
96.0427063705463
95.770455422205
95.5401474186769
95.6159108168757
95.7180956196835
95.6459287244104
95.5054539018779
95.5532174242449
95.5693141646338
95.424430501821
95.5272360364572
95.730788836759
95.6177873142715
95.6192819508717
95.6789546237202
95.5541445411853
95.6385557974267
95.7498037834971
95.5397935155591
95.5324800359148
95.6295540357719
95.4378124897524
95.3387152447837
95.4180881737998
95.4007878317984
95.47141606442
95.544665789508
95.5752009819397
95.6916608235842
95.9360746837042
95.9928857632449
95.9030303357848
95.8566124665226
95.6897173088949
95.5615008062636
95.7900200099055
95.9865337992858
96.0316427437453
96.0485643772171
96.1225537134524
96.2611908973825
96.3818705493556
96.5140736359729
96.6946674632149
96.6840635688671
96.8320305095144
97.1571961508218
97.4906691230025
97.5282986604277
97.4156357618295
97.5751456944879
97.6557455397368
97.6163223330613
97.8064900113652
97.6453535183543
97.4545668016077
97.5538733645107
97.6118874824485
97.3769602194108
97.2011906248583
97.3207256341204
97.6346266234799
97.7525889976653
97.4594140077586
97.2165778978335
97.3389893139071
97.3534631567503
97.1278154937203
96.7918711474735
96.5657243031488
96.5047055204729
96.5718456649057
96.7641887629105
96.7955710027862
96.4469353220843
96.3835607489923
96.5718763218642
96.739150665954
96.676750998303
96.7012524834556
96.940493157847
96.9828224794525
96.7537692943389
96.8424931860914
96.9444070084776
96.8191287135086
96.8449382184042
96.8782057513691
96.7103749210964
96.506721921656
96.2547670221355
95.9404317994794
95.7506335231728
95.7701770561328
95.5550139523903
95.4922227037511
95.5389981002344
95.3309243343415
95.2431574446314
95.4872867167139
95.4406248300693
95.1322168508472
94.8354774886478
94.6956294386643
94.7495571990978
94.7784666382133
94.6698096653127
94.5109909867849
94.3594461887227
94.3461414226396
94.3537271302583
94.3182153929932
94.2914362517427
94.221547424857
94.1591670627699
94.1642879560659
94.1499521297332
94.0923336571946
94.0855904815451
94.1278217821889
94.156168052566
94.0911095639361
93.9770598052557
93.9669753327712
93.9906337158717
93.9794833156438
93.958566553273
94.0327154371437
93.9647611396882
93.8866439057919
93.8821179721522
93.8927094759935
93.8747964656629
93.8570444636801
93.8374771674706
93.8444010586895
93.920525763408
93.9466777516281
93.8495639562232
93.7584610294864
93.6790454416808
93.6999271076186
93.8017946742395
93.7923674487319
93.7089009339915
93.6976082050019
93.6815022114541
93.716264224718
93.6966741105042
93.6945266633187
93.6412006138331
93.6630198984917
93.6073883757572
93.4921824444027
93.5507288651134
93.5555309757426
93.5462582934219
93.5931557983132
93.5479421248066
93.4632444055252
93.3781629533462
93.4354258452586
93.4509123720128
93.3271942187733
93.361837285888
93.3813929514865
93.3740782239769
93.3655437827901
93.3669752259804
93.359739239582
93.30322230192
93.3054074799197
93.3288095723694
93.3038668853189
93.2520607360495
93.1571751328895
93.0973122076607
93.1375987030131
93.1510673876394
93.1235828261572
93.0293591467739
92.9083391409515
92.926466179818
92.9420719359697
92.8895222478494
92.8794263433487
92.8947573910967
92.8238838561733
92.8740715103583
92.8401894323366
92.7732020401131
92.5117895599886
92.396609099258
92.3844625104035
92.2950926892862
92.3070657052951
92.2172222207613
92.0239944265588
91.9750940248484
91.8174690351703
91.6157620496459
91.5803359736106
91.2950497733778
90.8690571157199
90.5544763775112
90.3937651686871
90.2166386015142
90.0006441404673
89.7803198492261
89.498627143042
89.4527135702331
89.0958787963809
88.6188590380308
88.7316985367738
88.6997307704575
88.6906934640534
88.7289988542919
88.7761385504562
88.824459832085
88.8433146174901
88.520567426328
88.3263516600134
88.3705915327386
88.4514351348211
88.4330466087633
88.3241125916994
88.1963685640795
87.9082047863507
87.7954043034919
87.5391133850815
86.7741637189553
86.7338307753437
86.3655606800997
86.1787373430399
86.235806129423
86.0770745061592
85.8517208696633
85.6706610257529
84.9607480494578
84.4768234380907
84.5458949978496
84.2988271843884
84.1437273492698
83.6885729423211
83.3913819455331
83.2130661333844
82.7711495461426
82.5216906897631
82.4919759428542
82.2301492999964
81.8675663101719
81.8867359418102
81.9579277576133
81.8815588907224
81.6271591085285
80.9246017515877
81.1901334770564
81.4317234991719
81.0650126093006
80.9587086574574
81.2718745856745
81.3951239581862
81.3428418177968
81.2455197813176
80.8937416370366
80.7709583267292
81.0866505788515
81.1682285853978
81.03755516476
80.9341043199427
80.9311166762588
80.7968283358317
80.8990073923392
81.0263559532088
80.8513666019867
80.7385586205675
81.0502781299871
81.1736197955716
81.1854697149278
81.2370189067024
81.3221582624611
81.3734315048754
81.4025604493659
81.4275586020343
81.4415058095893
81.4666125688005
81.4718975521767
81.4720195505677
81.4861534403851
81.4797192641222
81.4622169117954
81.4361762537852
81.4207898231404
81.4486624504627
81.4150952112374
81.3673447062259
81.0894430835443
81.1226976812688
81.4156362976618
81.3408629236042
81.1381530941832
81.3939050128743
81.5634952739998
81.6268453858213
81.7112172287436
81.2113441514332
80.9909209064164
81.7077061317433
81.9316663414784
82.1813802643492
82.3922127993038
82.5558691946623
82.8359596152983
82.8524915318569
82.7805494032115
82.5760713642984
82.5465385077987
83.0546751422936
83.2981373197219
83.0331430047208
83.1253309960712
83.3422283886296
83.3115880766644
83.1845077051882
83.1524929092375
82.9663160770615
82.6222177278308
82.7283729778668
82.5440107820062
82.5018794868424
82.5651937347542
82.3593128427038
82.1026549709401
81.529436712018
81.1131565687682
81.4302813963662
81.4203779337156
81.0727065573054
80.6691455981932
80.320552702814
80.1745433653691
80.0406349074565
79.5470779177977
79.0668935188352
78.915487634647
78.7897316182541
78.6234081246548
78.3417348616977
78.1431001160849
77.9501760288599
77.6207411212812
77.2975490282589
76.9041315786166
76.9195247333723
76.9596633569712
76.7612794498698
76.4652026993972
76.4215706510826
76.4166001955394
76.0730459865756
75.4456149832809
75.423751470748
75.7401729501425
75.6890850525717
75.6226489954223
75.4986757790087
75.547457949184
75.6545576186053
75.6848112959568
75.6886416578335
75.63794289157
75.3180156632483
75.3467795500414
75.5045584589627
75.3717325272046
75.1837388800993
75.1604817170613
75.0608164784454
74.7553541601259
74.5583578520935
74.1393434721093
73.5991472145677
73.4758561084948
73.2420726335469
72.8981045715921
72.5081023231161
72.1637877082666
71.7855770999939
71.3356746800071
70.9785601438114
70.7308582071708
70.2900380771684
69.9905537938823
69.8358867402304
69.7165299656382
69.8044584627761
69.8120327122137
69.6502330613146
69.5301473904057
69.6046065644857
69.6219109197932
69.5948875498407
69.5668948110687
69.5298542906391
69.4645190908991
69.4516323089769
69.6337841308463
69.7200639645585
69.7703949286718
69.8871983736217
69.9298124655278
69.9257923804931
70.1224425922989
70.3004690458041
70.3928796779294
70.492870204156
70.6427398239717
70.7986479611894
70.9517093978545
71.1006869229054
71.265374183684
71.4059815484043
71.5008011609566
71.5132791579542
71.6121658755614
71.7656186930037
71.9004065561715
72.0068751103067
72.103132866966
72.1897794741277
72.2931720643777
72.4022235249984
72.5005749337227
72.5777174463628
72.6815796851607
72.7984380158485
72.9009517928925
73.0205489528621
73.1754139043054
73.322338821363
73.4487479975573
73.5777148919698
73.7264700283674
73.8689532512171
74.0398941502821
74.2130313465197
74.3718326825534
74.552883836089
74.7385551579909
74.885334761625
75.0321477435709
75.1903257580974
75.3625524535398
75.5135294190904
75.6666536842024
75.8277709012872
76.0166365205149
76.17730757828
76.3281582762559
76.4632638335794
76.5867524734157
76.7149356670488
76.8430602524371
76.9639937697285
77.076411532221
77.1787717728863
77.2806968041626
77.3798605265165
77.4793752846662
77.5842099244561
77.6571788367959
77.7101051077993
77.7875973226604
77.8528103090062
77.9169401872182
77.9765703144481
78.0353982494117
78.0952682993484
78.1434251340946
78.1757453203683
78.2448919119092
78.3107054679149
78.329489983603
78.3368812546414
78.3418018754134
78.345219239078
78.3517373926596
78.3424659569643
78.3317514103403
78.299986664634
78.2814810844139
78.267546208942
78.2221850121282
78.1584776534751
78.080928692459
77.9698549287813
77.8325986645278
77.6487005604152
77.4918503470437
77.3430628506152
77.1655311022741
76.9609048532394
76.7495320439098
76.5203047318836
76.2877666409137
76.0383223903602
75.7821393032252
75.5381625000354
75.3017841432172
75.0947787133746
74.9537951185533
74.8809318739672
74.8858027880763
74.9694520048469
75.1123399599033
75.2766204592953
75.4585459039536
75.6126873655425
75.7423654662416
75.8243514333756
75.8334708011562
75.797854185518
75.7732169578119
75.7119864356411
75.5923879098302
75.4573035254421
75.2838952640505
75.06450289555
74.8489853745925
74.6015179323941
74.3208156614226
74.0099028378336
73.693373679889
73.3662004690283
73.0239345258226
72.6544481720567
72.2867785784005
71.9301815101858
71.5817026784212
71.2039291714322
70.8459797329616
70.5266289067625
70.2432929132936
69.9391695219093
69.6946221050068
69.4859017091003
69.253832488622
69.0382951540209
68.8927139754189
68.7671576966511
68.6481352430129
68.5779475476256
68.5857990043772
68.6837625161497
68.9173635131855
69.2389643517046
69.6065608848579
69.9962836878971
70.3757598398023
70.7107628503205
70.9724247251765
71.1808160492071
71.3675795254736
71.5200347206379
71.6651741869676
71.8029910307393
71.9391359301972
72.0477249909887
72.1466255033836
72.228206127166
72.3070181375987
72.3544642930767
72.3883771953915
72.38495155612
72.3374327678271
72.2742210862604
72.2035967546465
72.0996832507368
71.9722882063204
71.8396610711201
71.7869437779386
71.8937876460851
72.1441031295289
72.4037497153541
72.6482416534461
72.8706677979042
72.9976763185793
72.9709014692364
72.9505557878193
73.0592190821221
73.1794973700742
73.2584308079365
73.2914959649737
73.3025811835158
73.3478087029792
73.3751471838531
73.3709765262261
73.3728349529523
73.3931021699245
73.426389968671
73.4947471954747
73.5612176534616
73.6077798710862
73.6658713449542
73.7632286461879
73.8644075350386
73.9369283409413
73.9677576864429
73.9357193859362
73.7726716629148
73.5956218894594
73.6632320780004
74.0201887070431
74.4232160555594
74.7529457072675
75.0338894346486
75.2842062495744
75.4950289170977
75.7125724131196
75.8729328994844
76.0166046951496
76.2018271519948
76.3991532030542
76.5413917040042
76.7015024070489
76.8913420756974
77.0816010247688
77.2481702458431
77.4143013451394
77.5636167803627
77.6920884130573
77.8262549620943
77.9610246848986
78.0713217004793
78.2244339554595
78.3640148748558
78.4495669038886
78.5155582281776
78.6506669894086
78.8169903995037
78.9609491385495
79.0412491258659
79.0853816678691
79.1894676848283
79.3202766944485
79.4179088628121
79.5285640764603
79.6107623644849
79.675868405567
79.7858031006346
79.889665838157
79.9516236329236
80.0428031764743
80.1330344664069
80.2390319306786
80.3135741539352
80.3905406647028
80.4847330713207
80.5767071914251
80.6595170984892
80.7248033536912
80.7411936831281
80.7500104506803
80.7272043748676
80.6548205208237
80.5348156467942
80.4156434143752
80.2602410143956
79.9701561054869
79.500504040009
79.0856263357184
78.8033833852576
78.7119460275279
78.7382700578893
78.7228430012962
78.6817200657963
78.7336660572958
78.8333178166889
78.9606468585114
79.0872486503221
79.2643883823933
79.4261310970924
79.4226219562207
79.1047762425991
78.4626971257096
77.7743761852287
77.2876427712979
76.8257088084378
76.1702424198197
75.3301974240638
74.4681512256923
73.5543236732141
72.5544765943826
71.5749297105125
70.8650765658084
70.7362931119113
71.4346077911307
72.7546641015026
74.2518270282207
75.5350537579065
76.525472025182
77.1994332358555
77.6403491259822
77.9799237846689
78.2703391713112
78.4757720063236
78.6678227616917
78.8787294692781
79.1066939420815
79.2457749878507
79.3334011089927
79.4020955798088
79.4598521196106
79.5050141028457
79.5761362184779
79.6098567218328
79.6092590724442
79.5685881277782
79.4867018075333
79.4661885693542
79.5012561462897
79.509730944132
79.5143369412317
79.5175136479915
79.5977971696328
79.6675205299826
79.7192726848742
79.7914730929124
79.8932848316551
79.988191609432
80.0623763841903
80.1108398243338
80.1866434211547
80.2697030561443
80.3998351564173
80.5180654132816
80.5876072681788
80.6876738957314
80.8005231182293
80.8969399127302
81.0294342666774
81.1767404775398
81.3089096418967
81.4287671566615
81.5575942158916
81.7064154119943
81.884470642284
82.0539280828096
82.172505643565
82.2448002081558
82.3503486982808
82.4707461040443
82.5538990282861
82.5953227255002
82.6236530000206
82.5228214944891
82.2950753098181
81.9788507497208
81.4788612518891
80.8218305991657
80.0640558250885
79.1331643269016
78.0845972241759
76.9579023514879
75.7728427798301
74.6705385655435
74.0110497716701
73.7845473920377
73.8821398460131
74.0009786252899
73.8900545314582
73.5115572419928
73.0943212708541
72.6799807554884
72.3458449211581
71.9697129753605
71.6609871318975
71.4185990964145
71.1906991830167
71.0040588234829
70.8533102377069
70.6959914886595
70.5808005224871
70.3992772563416
70.8076562354018
71.2698371362535
71.4064089114732
71.5187669068331
71.4046285904511
71.2098544172617
71.1966137094696
71.269433465865
71.3009213757373
71.2553528424694
