1798
3999.43349933624
650.420452594757
1
128
4
98.2590152432563
98.1849817173479
98.128435599462
98.1720748263065
98.1640483596511
98.137966033213
98.1898868847868
98.261027410805
98.198105187112
98.2051826278902
98.2910568280006
98.352011233934
98.3185591799688
98.1369998256301
98.0649638176531
98.1600222540748
98.1829794752256
98.2560400610099
98.2573876392318
98.2184815746085
98.1001667707727
98.069771786873
98.134094270632
98.1606543649508
98.1744449677212
98.2087454332304
98.1842977552132
98.1590434046613
98.1478166678047
98.13374666739
98.1459557747979
98.1389007709354
98.1242084975921
98.1618600353773
98.2010146380593
98.1432984799217
98.0898649401414
98.1665359428625
98.1991173517641
98.20616039001
98.1449294830086
98.1329975515457
98.1663568897259
98.2150729215567
98.2313200895023
98.2334756755898
98.1646015271247
98.1010644072204
98.0883925497302
98.2118749712075
98.2405784294141
98.0668468081182
98.0448469767354
98.1295837832501
98.1305318263305
98.2023429198013
98.1747264787022
98.1140310920782
98.0939980956442
98.0848209564243
98.0921256588416
98.0675176939792
98.06566083742
98.1623273009257
98.1706369767603
98.1528102518297
98.1061349418353
98.1005340214246
98.1378064589051
98.1721206357076
98.1216044377457
98.167672230761
98.0568849134184
97.9949947223797
98.1510467540193
98.1872974569713
98.2131463697209
98.245157552421
98.2310290771766
98.238658934846
98.1768007216419
98.1680375853209
98.1483409659739
98.1427348571875
98.2183798326518
98.2672406606495
98.1990715708885
98.1609513426156
98.1559177532822
98.2027816572454
98.1889257976457
98.2011390193294
98.1905196573567
98.1593159334987
98.1673247182675
98.2172274032723
98.132729676941
98.1229434262037
98.1669369918098
98.1342318848756
98.1684389355878
98.2044540312914
98.1448136170909
98.1700634681993
98.2303293065251
98.253141178858
98.2633980389994
98.20224964033
98.0969225466196
98.0327898389873
98.010846200478
98.0880076646092
98.1754357548272
98.1558812196727
98.1551939976071
98.1748373992196
98.1796643351065
98.232974945719
98.18699870173
98.1836880792008
98.2853424428941
98.3166923277145
98.2175690662774
98.2187335560921
98.2369886982763
98.1826337414581
98.1025194158866
98.1118999631187
98.1200794359587
98.0690801243944
98.1180020956845
98.2761195066972
98.1797644595129
98.0292313288612
98.1273804747631
98.2115997540842
98.1036941679693
98.0626712430239
98.0505698927271
98.093507729726
98.0431834469345
98.0778651050173
98.0719999366277
98.0635444417734
98.1719267061499
98.2867416825168
98.1927415287044
98.1155470600784
98.1114293729893
98.1669150137034
98.2205907158638
98.2094938351532
98.2437820333113
98.2490476200063
98.1265221932904
98.123392270479
98.1826149910427
98.1830268155966
98.1647486613308
98.2175555331906
98.2828248951978
98.293230097059
98.1191822152269
98.1319911566453
98.2947882416756
98.3046129104994
98.1730983524074
98.0967451235128
98.0954968298209
98.1923565691135
98.21137411302
98.2443190147162
98.3423862148033
98.2487974679902
97.9971981137259
97.9547309227603
97.9902150660728
98.0214712302226
98.1909114000098
98.2026141792652
98.0778654853093
98.1196847215537
98.2529589182485
98.228316343076
98.0995083497418
98.121768581034
98.1555424504393
98.1365642329112
98.0001754490248
97.9088245646437
98.0233519266776
98.0749525275692
98.1279462940157
98.1397172882055
98.0300528117299
97.9905967551095
97.9524099915044
97.9663997690753
97.8899491368499
97.8444561542663
97.9598663379599
98.0609911306955
98.0487426506274
97.9770598560273
97.8617039353369
97.7751129624778
97.7907887317729
97.929079901811
97.8982674214213
97.7658197841084
97.696259463174
97.7629542237688
97.7747991251555
97.7511025281483
97.6591107806268
97.7276073159806
97.8318104999326
97.7467614606004
97.7112637617274
97.7181357551645
97.6170453101433
97.6034141730197
97.6696851605855
97.7116020481591
97.6402640431422
97.5854963740359
97.6234840243626
97.6396329016393
97.6515160058922
97.6747757810225
97.5469655619788
97.4169552516558
97.3698879615713
97.4321232100471
97.4521926304779
97.3471228956141
97.1944908024854
97.19672159338
97.2327302506996
97.331011411018
97.3296998831589
97.2923476373133
97.2859521101416
97.2935487575507
97.3099025522531
97.3106005281036
97.2750109505612
97.2304780822159
97.0863388415789
97.0075274894776
97.0939234021707
97.1236306209533
96.9576563796914
96.9521927630262
96.9725203260804
97.04087843556
97.1547876198498
97.1357985824661
97.0782130556954
97.0454542060496
97.0029048219994
97.0653620316768
97.0625492459571
96.9027157513444
96.7872954879286
96.7395029672299
96.6739002797028
96.8092953774559
96.8814443371486
96.8626103021269
96.8414372989305
96.8381625642761
96.808243335928
96.8275973719744
96.8037271956695
96.7788792596465
96.7622556565067
96.7779691813069
96.736658978783
96.724050698728
96.6247609638433
96.5844971868147
96.6101263227938
96.61455366807
96.6259970286608
96.5832369251367
96.4086038026658
96.4598234786811
96.5401045974819
96.5329089289379
96.5981520241255
96.6678064554903
96.5635531109773
96.428866037502
96.3343617171325
96.4014577731112
96.3994972585456
96.4496547908961
96.5517713271019
96.460890809025
96.361937524521
96.3514569397391
96.368021703217
96.4044324753632
96.3538552225922
96.2979866774347
96.229744063142
96.2653751974469
96.2745304508645
96.369707146735
96.3642958307054
96.2747727791105
96.1710322197441
96.172385249158
96.2995506531326
96.1823467276028
96.0541714517755
96.2008231558081
96.1885202331894
96.0914169000149
96.1462721052155
96.2190680077844
96.1381297254625
96.1592213617349
96.1557282628757
96.1315845825539
96.0563790143678
96.0747623404351
96.1877192771822
96.1836161390676
96.0914654633784
96.0579019508295
95.9816269175375
96.0519254261814
96.1364420635013
96.0958196637393
96.0167520945318
96.0108314758325
96.0100230878956
96.0028296199021
95.9196003061219
95.9134488236467
96.0338402390005
96.0701600619051
95.9329490900984
95.848961369568
95.9570162522718
95.9855078068575
96.0066815678793
96.0012607916857
96.010388182468
96.0798140278801
95.9699482107405
95.9175292399892
96.0365704874249
96.00594373578
95.8742755301543
95.9055714616481
95.9815965918159
96.0313050947423
96.0707905224327
96.0629552497134
95.9948137329156
95.930633707577
95.9352790114249
95.9196384070254
95.9311464144931
96.0160709125633
96.0419994625902
95.9997898510376
95.9190567875328
96.0309338683895
96.1576792402154
96.1482772935968
96.0329354382105
96.0039954551006
95.9850278527783
95.9677097544035
95.9076364940992
95.8836353694409
95.9404665667302
95.9898400823405
95.9521739177322
95.9784632017328
96.0204914780979
95.9954407037488
95.9576130682209
96.0267499117408
96.1417380038014
96.157966637534
96.0124357084318
95.9243309057549
95.8742937738256
95.8664905538401
95.9273745306759
96.0331403507731
96.0206672279439
96.002313627161
96.0062213742553
96.0171463892087
96.010162038494
96.0029886693805
96.0078052431063
96.0307907031992
95.9900170322801
95.9816088627721
95.9718836642529
96.0564069279868
96.1132393239385
96.0639703244227
96.00117055277
96.0304355194799
95.938416002107
95.9533484484518
96.0131270526385
96.0266037501082
96.0520786124554
96.0094758997632
95.9926087008456
96.0800989136273
96.1375719980307
96.125926680249
96.0514452674273
96.0783855358742
96.1575063375559
96.1583242598319
96.0774041122952
96.0737536849294
96.0731880285725
96.0738810964173
96.0840096461163
96.1695558750195
96.2531273738229
96.2539279950239
96.171989533315
96.105564075237
96.0352628984596
96.0558841589347
96.0555199544789
96.1187183667982
96.1653470225871
96.1145502493193
96.1512100513918
96.2182531845054
96.1579137671793
96.2585013106101
96.3698442480156
96.3068823024953
96.2074511794583
96.200031022817
96.2416579525165
96.2687240997662
96.2364181503645
96.2649874150008
96.2827749586046
96.3229168960306
96.3077722019394
96.22436971177
96.2288358499942
96.2911895777046
96.2760154639802
96.2906654945972
96.3590285898303
96.4152650214323
96.3410115460981
96.250439679709
96.2998883289187
96.3738531893534
96.3569293763698
96.3596359739798
96.3348166270918
96.3480711659936
96.4174364858391
96.4185983552463
96.3346918379071
96.3001109535074
96.3000328786873
96.3846514844921
96.4607072440064
96.4120003904311
96.3469566627303
96.3588105380705
96.3878532008812
96.3869598190138
96.3724645295058
96.3935659140602
96.4497074761239
96.4993814351424
96.4638100456893
96.4574458026781
96.4745700195105
96.5263950116348
96.4945174464778
96.47541267645
96.5330768836488
96.5165818610858
96.4617122331141
96.4706554784534
96.4436415583902
96.4780317099514
96.4557086407173
96.4042601178019
96.4627847229844
96.4710653400906
96.4487687463242
96.4856993504539
96.5214546998989
96.5787694585698
96.5971099483018
96.5900584697852
96.6537020427767
96.6539088443177
96.5692199499707
96.6061190247864
96.6568183832997
96.6108081547065
96.5998146669305
96.6784533692516
96.6983119241341
96.6465149431435
96.5966831606449
96.5622946534461
96.5992855954744
96.6519766772172
96.6149920954535
96.5856392578949
96.6602528301522
96.7396926076851
96.7307324639137
96.7296878844279
96.7067821689592
96.6984362094101
96.7472469937628
96.7082907097692
96.6521712039024
96.6230985792443
96.6801178151987
96.7171649322344
96.6570165345952
96.6577523417447
96.6315742115781
96.6125972792647
96.6427897480954
96.6678699524833
96.65282728405
96.7041093035085
96.758673675661
96.7550321338739
96.7144319002391
96.7221639180715
96.7427312283093
96.6878497632391
96.6488834909222
96.6761770619482
96.6646970717057
96.6610834117443
96.6595893776362
96.6332034427011
96.6235977257704
96.6590965681181
96.6481987565024
96.6617114899379
96.6620313217424
96.6429133734283
96.6935791032507
96.7761570148105
96.770425535324
96.7197011551725
96.6940156284679
96.6812173662665
96.6837323711715
96.7381884408844
96.7614415736743
96.7791309608476
96.7775122278908
96.7910349739588
96.8344429256134
96.8576719030859
96.8625012691414
96.8334931444722
96.8368048020878
96.8968696587938
96.8820677500412
96.8453562817984
96.858854393187
96.8642448752178
96.901173688362
96.9279317448553
96.8610575298714
96.8553261415924
96.8968490750947
96.8939463306637
96.8922419377737
96.963791333181
97.0580203214209
97.0271244437812
96.9576062986329
96.9105396127562
96.8960353692431
96.9374271214714
96.931379637079
96.9597328270205
96.9621988606908
96.9456110405638
96.9883740921076
97.0759298835071
97.0914053082148
97.0317739562183
96.9744824638636
96.9772390279555
96.9931620866262
97.0270508970908
97.0401587295861
97.0358094520755
97.0524498656731
97.0620762849207
97.0696587126451
97.1110160287848
97.1633870801828
97.1545421509895
97.0791793348524
97.042339964229
97.1069607349274
97.1953338485175
97.1964029933632
97.1731927824697
97.1309498602106
97.1597667192512
97.1982762091374
97.2138849740143
97.1886157067577
97.1805899110901
97.1814279130944
97.1735556290431
97.1769498606298
97.1457443478025
97.1160260169322
97.1729300953831
97.2438581035533
97.2487809459375
97.2290187389741
97.2323398072741
97.1890720057584
97.2189592103811
97.2333908723239
97.1824514860214
97.1763887815695
97.1785474578154
97.1729328322968
97.1881416097358
97.1862597681457
97.1742318840206
97.1802625555817
97.1678558190738
97.1589715041817
97.1442425270049
97.0927235050741
97.1513938575622
97.2402738027742
97.2099753378015
97.192782234229
97.1930019606805
97.2099108228921
97.2403253695494
97.2006009859359
97.1550460864401
97.1877151235267
97.2223590866786
97.2052096583965
97.181544707036
97.1990456604931
97.2352183966813
97.2854005161814
97.2964670240779
97.2356963462532
97.1991938833032
97.1835765242573
97.2092107731974
97.2270537898012
97.2145988966044
97.2079520621459
97.1832105193009
97.1500278109641
97.1794007374335
97.254475155053
97.2821157383133
97.2616720498932
97.3147026241241
97.3618727622645
97.336142620859
97.3356435562078
97.4024343668647
97.4223005747219
97.4156004535572
97.4010369158628
97.3672300667356
97.4002564492498
97.4449052216802
97.4517887099618
97.4311456564993
97.4202019161898
97.4194365199721
97.4157799395549
97.4463765015438
97.4655115020582
97.4584327347648
97.4267432534713
97.4342363539607
97.4231244777364
97.4469162184636
97.5156232247638
97.5209348565968
97.516694478113
97.5215766007021
97.503136565677
97.4693168823664
97.4625755975605
97.4696805800114
97.471798494073
97.5003763150637
97.5263067260315
97.5146119535165
97.4598547832704
97.4345971857328
97.4653211277337
97.4853490791739
97.4946925476721
97.4703688177489
97.4446818679245
97.4617723392967
97.5307332540267
97.5797056340404
97.5398335302726
97.5458377270089
97.5378451267159
97.5550428947783
97.6040455687871
97.6116625554272
97.5933593207906
97.5488721556618
97.4956440332226
97.5509766486275
97.6433545366492
97.6570498819637
97.600815685157
97.6271207368459
97.6755925895728
97.7135131605803
97.721550440072
97.7250248652656
97.7330632358641
97.6918904883065
97.5954150644676
97.6150463275239
97.7004548904404
97.7899901601941
97.759298415528
97.675282454272
97.7364768768424
97.8389088905817
97.8042927593964
97.8337279890424
97.8868697543645
97.8724131547591
97.8140343771012
97.8079838460213
97.8108169905008
97.7896019703511
97.7675830969356
97.8145166881053
97.8124131893654
97.8231497099521
97.8913778908544
97.9295345224061
97.859726973652
97.8232651474016
97.903564192022
97.9842541572237
97.9861369331442
97.8875820976335
97.8510463207373
97.8685986630616
97.8634402535961
97.9348145196128
97.9066022194156
97.8814007732433
97.9550368998794
97.9009753137912
97.8376892298915
97.8978973237008
97.9391316345107
97.9864766407613
97.9898999188667
97.9862286866782
98.0584683332749
97.9989432020633
97.9229412456156
98.0061408520262
98.0951731074678
98.0790980091722
97.9900331203116
97.9033875565941
97.9008641393475
97.952699862422
97.9782378667539
97.9677149478256
97.9423648040638
97.950707950734
97.9316309978246
97.9378124556144
97.9535260744205
97.9726289867391
97.9585371392739
97.9842878272585
97.9750204375203
97.8798653677734
97.8214766799733
97.8035839116594
97.8102207058569
97.8414776074277
97.8294340247506
97.8305673216821
97.8909818174603
97.913444073391
97.8773108828799
97.894989214513
97.901545773427
97.9060718617107
97.9280116631085
97.9027439526748
97.8879681300793
97.9080377461276
97.8823280488783
97.8579930444788
97.8529956178896
97.8412248362223
97.9171815464491
97.9244363427519
97.8390249281206
97.8051368933693
97.8541032971318
97.7906558957762
97.6653926563048
97.6029456965814
97.6106570707043
97.6628633886145
97.7233605606886
97.7612943421406
97.8301650990202
97.8408538271651
97.8315255867645
97.8049798963988
97.8119183606372
97.7994882672434
97.6791611676361
97.6230169611503
97.551146300649
97.4746784032462
97.4166503781146
97.2918016626975
97.1962436371649
97.1274547450914
97.1158409574493
97.1467710954253
97.2216546675754
97.288318509984
97.3844056169968
97.488301850446
97.564910619845
97.6250526316691
97.7434323117475
97.7885313908858
97.8147284458101
97.9465547943328
97.9958970211968
97.9928842608661
98.0363493364603
98.141508806414
98.1214344856799
97.9973069017201
98.0604312755912
98.0803313930002
98.0157721214696
98.0181258239802
98.0572914066937
98.0383541066835
97.9641145914422
97.9435330170707
97.9707123866802
97.957100513599
97.9393327267677
97.9703247710304
97.987393289714
97.9661224821769
97.9894947503189
97.9749554628857
98.0156875632705
98.0929322806027
98.0353350566149
97.9753956883503
97.9288389032459
97.9095845334808
97.9772655995859
97.9659780566208
97.9666487440234
98.0252780037045
98.1572651869616
98.2103261786485
98.1321186571503
98.0895028013185
98.1308478702281
98.1330118216579
98.1401063117112
98.1398127345423
98.1532407254091
98.2103001051802
98.1718293725887
98.1100518408578
98.2457953415671
98.3027334724787
98.3004133098976
98.2797100924769
98.3336578375291
98.5390695444661
98.5920043802166
98.4452197862384
98.4850894391592
98.5129632540123
98.4805500701962
98.6293214956259
98.7251680771808
98.6786917199609
98.6468639011185
98.7911680589208
98.9329320695494
98.8942284775153
98.7986170043385
98.7429194846379
98.9632245606401
99.1129722108861
99.1407983005907
99.0669356079189
99.1385916144469
99.2041459362429
98.9756025756267
98.8121837212141
98.8432093767335
98.9279896032704
99.0407982885
99.0336531719584
99.2454701881725
99.3600103829842
99.3107038327746
99.3211035857311
99.0312409438218
99.1500783793902
99.5564203654362
99.563866814523
99.3133473897049
99.1343742984469
99.2369024460075
99.4417858640652
99.4794021559747
99.471405021896
99.5696969954298
99.4939168113165
99.5155527105038
99.5544513282957
99.7005924742972
99.7543375208363
99.520272279565
99.4231528210508
99.6359652070476
99.933163321523
99.9538934662242
100.300614500578
100.467217720948
99.7999122926747
99.3726593205623
99.6768328038105
99.9240321975334
99.7941816573966
99.8695055801471
99.8791510731469
100.226869715251
100.603879661135
100.412111132997
100.370794599398
100.178386667223
99.6687236154503
99.4176454633703
99.7131660425112
99.9834617679846
99.9392388708584
99.9521387258814
99.7847622169953
99.4898710984865
99.3162713247597
99.1907593682394
99.1400910610744
98.9439704313811
99.0436135671244
99.0682650281784
98.8741160280495
98.9054910871754
98.9557365868904
98.9100159006914
98.8942701333695
98.7402937971957
98.6148876474129
98.6470443848417
98.666741854701
98.6709806234158
98.7531399207801
98.7606114360886
98.636250330779
98.5862472045486
98.6437627958944
98.8531172260775
98.8225202690844
98.6904217477498
98.734949181049
98.8168643569811
98.7237218800548
98.6324330884255
98.5306522076759
98.4416310543584
98.4616379950065
98.5530749481506
98.6306328523557
98.7509340552459
98.7878619474679
98.7700475796963
98.687463957213
98.710253363937
98.8043690875009
99.0001421414128
98.9348155870448
98.6412668601061
98.6412980225668
98.8600099948836
98.8974212462629
98.9191964024417
99.1293290017796
99.2355078838397
99.2574023871566
99.2648497298283
99.3427085630973
99.5301883075963
99.3312166197148
99.0930622304941
99.2983833105699
99.6569927731999
99.6011174128143
99.5761995372307
99.9845291759895
100.278498571121
100.185276149664
99.7427913887377
99.6709595106782
99.6815455549295
99.5923788434946
99.8488887215057
100.044930652521
100.001845921453
99.8576959916633
99.9783734883884
99.8075014880593
99.4985149430646
99.4717566859285
99.6666533011375
99.7352073164369
99.5101583377994
99.3106462627839
99.4500257796629
99.4475647182164
99.4392305062842
99.7040012246166
99.7088719713803
99.3034273310478
99.2680324377997
99.4006057100835
99.4976984085789
99.4667487744166
99.3665360394951
99.604737325162
99.6848363504367
99.8976564847171
100.161876945891
100.062319685424
99.8670463963484
99.6913402256803
99.5486777111031
99.3886034306363
99.3540288824583
99.2553099706099
99.1689113475213
99.1757126966613
99.1537156230261
98.9723600836307
98.9087842733522
99.2050105584085
99.3548564244194
99.1174930970899
98.9033778529674
98.8075437939534
98.8669286278734
98.8829517891186
98.7805340135874
98.6076887115447
98.6748500572766
98.6954323518189
98.6747091929712
98.6750065222273
98.7104431171209
98.7983655903568
98.7993978920864
98.6817948271049
98.6918049770122
98.7740754309981
98.7829679234843
98.6232509323193
98.6448038920024
98.6768240366131
98.680579587956
98.6267911719601
98.607465293325
98.6594958922499
98.6628872138088
98.5773664331762
98.5041939258051
98.5608298124367
98.5648130481532
98.4807500387729
98.4686957642103
98.5162747115017
98.5905143840522
98.5686518212816
98.4754999494651
98.4524532150158
98.6070904768679
98.6942465036687
98.6130377313946
98.4702290030334
98.4545039752133
98.514194058174
98.5089746646562
98.4515673626492
98.4903515596906
98.530408430824
98.5668561903964
98.5744914354758
98.5877330052279
98.5247635722832
98.465925507748
98.4884558401998
98.4819251368856
98.4871060362511
98.5300315182864
98.4638336937731
98.3825773905746
98.4257613227737
98.4661881754434
98.4371130345705
98.4047747378729
98.4408882421008
98.4444984854706
98.407628487412
98.4118666935422
98.3979730206917
98.3933587824351
98.4161152693228
98.4163271092471
98.3945475762826
98.3426176548306
98.3467949013737
98.3759699721083
98.365004147494
98.3625259727185
98.3420105309834
98.3109123097224
98.2833899181867
98.2606150859879
98.308628166263
98.2765183463535
98.2271504605579
98.2879014935167
98.3297935572318
98.2905814815364
98.2333346875522
98.1862476761586
98.1372335379795
98.1646619373868
98.2231852226045
98.24556025929
98.2017697167436
98.2033395632779
98.1481696404246
97.9545424441788
97.3836329281927
96.5794980351408
96.5209579952984
97.0629981773616
97.4248568550752
97.7278072528021
97.9176061216927
97.9240691752155
97.8870435588646
97.926876185162
97.991259428093
97.997205356883
97.9613686465774
97.9047834856999
97.8977942914377
97.9547715689079
97.893800206971
97.7755875025921
97.7434691816147
97.7411218432561
97.7151605712971
97.6527998423866
97.5692266471634
97.5231574041129
97.4637839327701
97.3557001697935
97.2507125161106
97.1501069110114
97.089853999102
96.979124401549
96.8497900404492
96.6882248410318
96.518535999383
96.4355745373722
96.2937483841892
96.180139885269
96.0702674340973
95.8620021912651
95.738060824929
95.6275393249411
95.5083355284358
95.3979331842783
95.2915209800589
95.120452189679
94.9961282144538
94.8936082206596
94.839568322774
94.7220883890977
94.5693904273064
94.5467903202684
94.4698777313181
94.3363983169574
94.2760713907034
94.2469815194911
94.1858859102963
94.0880755291057
94.0257550542775
94.002868181814
94.0099233251566
93.903826354107
93.83248168774
94.0272144995292
94.0280327886566
93.8999673920096
93.8484379295308
93.8610502607258
93.8495235613527
93.8494242479865
93.828060413395
93.7307974344538
93.7634396633645
93.8528773812802
93.853108355705
93.8309911059052
93.9009316651629
93.9319598253668
93.9085296884608
93.9570445656679
93.9870003767917
93.9421593222234
93.9505689282437
94.0241326386334
94.0334848736762
94.0305788917459
94.0462077790395
94.0449259488198
94.0372425135803
94.0329974330695
94.0282657802744
94.0379741982786
94.0363422710819
94.0286944424747
94.0065090092578
93.9591158230068
93.9208036324932
93.9264388355998
93.8974208385606
93.8766881672227
93.8442459059239
93.8109290115728
93.7227915753838
93.550009041883
93.5704358643179
93.5968047143502
93.4873109740396
93.365343526075
93.3148349882193
93.2165487702011
93.1382286361818
93.0468171570914
92.7797310750322
92.7038855707572
92.7504584364324
92.6659306601489
92.5660764442981
92.405457833703
92.2870774344283
92.1674784396844
92.0225173831745
91.912308519148
91.7191660759584
91.6553299934363
91.7212214565595
91.5902478087694
91.3356945064159
91.2212686591587
91.114905431416
90.944755200416
90.7811937921791
90.680453654534
90.5017545396169
90.374585345709
90.300458144943
90.1601822521891
90.0514414680657
89.904977727501
89.764584819146
89.6339460010665
89.3780897229702
89.3430764441545
89.4315018912715
89.321909826071
89.1185186096947
88.9461680225153
88.8864976177633
88.9302739744686
88.8659645284034
88.7304393774514
88.6863839433797
88.7239740855163
88.7625498176239
88.7023602377611
88.6317177650863
88.6151443646253
88.5513070016203
88.5149337401659
88.4752032363729
88.4830880112963
88.591824452252
88.5819437223234
88.454363706402
88.3301346674822
88.3383175549227
88.3035547965192
88.1246190754906
87.8654756331026
87.902966799392
87.8331714619925
87.49401034101
87.0033090947939
86.4294459415056
85.8758184940836
85.3224124239049
84.766660724252
84.1964450588299
83.6112648303535
82.9965175601623
82.3823477959847
81.6824524555283
81.1984657259082
81.1537830727492
81.0477003445372
80.6023992700204
80.0689867311302
79.5218281133193
78.9076947063521
78.37148213783
77.9120297417822
77.3438704435305
76.7236112028533
76.1112500476166
75.5442224455822
74.9409239017738
74.3611014776535
73.8231481539658
73.2533044675703
72.6254267840888
72.0807522743966
71.4867819577209
70.9308199400322
70.385680587241
69.7700228244913
69.0873231566782
68.5045432708439
67.9364636011235
67.3305823866658
66.7603418885749
66.2494136020427
65.7774848247423
65.447137871653
65.4986262508496
65.7969034380719
66.0828867424397
66.5127281123012
66.939172874401
67.2902069390421
67.8258534470305
68.5099200898878
69.0288949762036
69.4961520982574
69.9696467609256
70.4287304921631
70.8913661682454
71.4155310113019
71.9519056624643
72.4779816944345
72.9808358058203
73.4218467062363
73.8811910458388
74.5117582672904
75.0721845070798
75.5002362272802
75.902409116635
76.3252300192151
76.7361409092045
77.1340332916527
77.4992181441344
77.8694361841612
78.2409687818846
78.6133747836438
78.9836811674537
79.3446431414943
79.6667922790889
80.0045835954831
80.3122129363915
80.621244579842
80.9412776496637
81.2276946934001
81.4821687978429
81.7583207630133
82.0250258263172
82.2857928920923
82.5520795382949
82.7975609455208
82.9983753499362
83.2105152183789
83.4451949227545
83.6793935815209
83.8782209496626
84.0680372882211
84.263233714405
84.4669165814516
84.6623673415882
84.8618451206697
85.0211745572857
85.1827723861528
85.3429526053579
85.5104212927805
85.6774937451323
85.8420963640062
85.9861544941729
86.126381643298
86.257930410893
86.3920424906808
86.4983673239269
86.6058699967734
86.7347522033235
86.8786169630377
86.9947651611218
87.0983826034231
87.23281685096
87.3686102426401
87.4708457710172
87.5859547244838
87.7197296129274
87.8464215854926
87.9381998342355
88.0335926538726
88.101412442361
88.1661945273002
88.219473061999
88.2376298427927
88.2551353477312
88.2564591272261
88.2355572794659
88.2004767622015
88.1414979118663
88.0679089464904
87.9637186523162
87.840696549565
87.6701450081184
87.4779135722966
87.2783320877605
87.0741185359195
86.8568359201048
86.6138408667255
86.3778585284528
86.1426809268866
85.8795180985934
85.6403901134379
85.4087567112218
85.1790880829447
84.946929219065
84.7078769827377
84.4496657491834
84.2228315934512
84.0053510803469
83.7785442422613
83.5359955911523
83.2875294016294
83.029652710253
82.7371305420337
82.4430333080293
82.1727825272372
81.9021082494534
81.643333356896
81.3777195161272
81.0815268549725
80.7739006146898
80.4818158022495
80.2030328737549
79.9349265245729
79.6689153539357
79.4021262966665
79.0986525359675
78.8279884861621
78.5754410208722
78.3064998421055
78.0473876721678
77.7944769687719
77.5239711582782
77.2812681771064
77.0544576085373
76.8859671351599
76.7432035414125
76.648450270994
76.6007903668665
76.5822733952936
76.5481615720354
76.5159448769885
76.4995581805047
76.5084529142597
76.5609095792746
76.688358392964
76.8496569171187
77.0451868949152
77.2758249629018
77.5505894931162
77.8644491447307
78.1930908118551
78.5327578246737
78.9306026208285
79.3311246793517
79.7280277394617
80.1516869789291
80.5933582638974
81.0014413191888
81.4326779971297
81.8684322233576
82.2794744577674
82.6892914757964
83.1237292023439
83.5391568042168
83.9573894230882
84.378399028426
84.7615697611316
85.1291764832789
85.5132829250581
85.852839675604
86.157004736768
86.4263118229325
86.6624271417873
86.865207306654
87.0135338930378
87.172292310915
87.4230849961968
87.6713956603067
87.8937423769293
88.104066308099
88.3102258867393
88.4925674922317
88.6472040308563
88.7791132908482
88.9032089578869
89.0510407493602
89.1873364284352
89.3199734053715
89.4662312864766
89.5851905411099
89.6826138139912
89.8013379733451
89.9265379924265
90.0198504959598
90.1358927707434
90.2231917437962
90.2818246262139
90.3578973682349
90.4243463613802
90.452848537077
90.4615895266133
90.4758586215143
90.4455796174493
90.3840667315219
90.3899265148968
90.3998393604539
90.3778470531325
90.4158426679093
90.5444221538413
90.6872524106643
90.8303021357454
91.0092673359087
91.1849837341606
91.3462751213692
91.5096299898721
91.6192262029674
91.7016774551738
91.7837630783094
91.8793807861213
91.9572812240611
92.0254989738526
92.0917469461637
92.1630202485412
92.2189676674696
92.2543686823595
92.3103126925535
92.348191141497
92.3526971629304
92.3844542977814
92.4270893782731
92.4636894056654
92.5143701004492
92.5490038063403
92.5547406644496
92.565916134618
92.6099914901128
92.6460441860907
92.6573678886901
92.6959012443666
92.7391928302251
92.7628532838553
92.7590436888931
92.7672752172558
92.8022047241695
92.8524465277002
92.8719050645872
92.8886764125557
92.9218907694479
92.942481127311
92.9447192462549
92.9593067743952
92.9678612032558
93.007779738853
93.0182106165453
92.991326496244
93.0080890302432
93.0192681686149
93.0037670290524
92.9757918393536
92.9525110522966
92.9200242034265
92.8103383587949
92.6719825236237
92.4750536624188
92.2466227237576
91.9637020313244
91.6172329616065
91.2616609068655
90.9109028484805
90.5452821917227
90.2364572054892
89.9313216993493
89.6401360320928
89.4051071514027
89.3085232977731
89.3621751699837
89.4722384414224
89.6474852893892
89.971080776102
90.3415151279026
90.7131322872273
91.0310084007572
91.2888307743252
91.4677928608894
91.5456699901201
91.5324428452706
91.4493215054055
91.3715703353477
91.3189210713931
91.1632095956433
90.9413265328825
90.7101402949203
90.3587635437208
89.1305129711234
85.9300206304831
81.7783635215832
80.3843679365987
82.7800282950646
86.1348264511707
88.5541484894041
89.9733281413812
90.6972139241507
91.0278901987166
91.1970579853543
91.4437046188775
91.6523101784586
91.7688242183803
91.8508541227733
91.8878489149343
91.9071090503107
91.9343276635328
91.9303443856261
91.946361878705
91.9778196284978
91.968231319005
91.9463431200134
91.9244838837957
91.921391017363
91.944134321518
91.9415160736937
91.9508164652773
91.9935911804416
92.0344920838283
92.0561676384984
92.0347155885603
91.9835935354213
91.9583869134464
91.9457961366953
91.961488180795
91.9709762141762
91.9723670854595
91.9450701759568
91.890724677056
91.861417497272
91.8743781286825
91.870727439472
91.8396743388845
91.8000657087019
91.7835191932977
91.7429739837831
91.7380546384586
91.6975700295055
91.6428599689509
91.6252673524747
91.5610167128925
91.4807633380756
91.4576029158333
91.4929000309516
91.4744554251511
91.3874732261896
91.3414771698157
91.2997208578143
91.2570832489874
91.1953323814023
91.0771620116354
90.9791734683157
90.9606482395204
90.9178203608889
90.8514435731084
90.7686869478168
90.6958637839215
90.5952137067318
90.5461699570469
90.5171136627928
90.4806790127565
90.4745812268013
90.4995652455575
90.4386440045962
90.4056272983999
90.4255935672843
90.4573304065427
90.4436526833798
90.4075947270253
90.3983860895499
90.4763879227844
90.5170070800708
90.5267153462079
90.5505058723324
90.6167386367048
90.5286101421701
90.6032751563122
90.6836310515568
90.6317222537552
90.5604765582472
90.4513430629137
90.4065771040413
90.4071322422635
90.2893399565145
90.1351344421532
89.9681787462307
