1798
3999.43349933624
650.420452594757
1
128
4
97.8017521784162
97.8562713233629
97.7813854362553
97.7181037800336
97.6798433175823
97.7079971750198
97.6783388075524
97.8440775014936
97.8576260556626
97.807969238696
97.8086889367463
97.877053743178
97.8500344099645
97.8238207298074
97.6982715742534
97.6823171754176
97.6858747026238
97.7366915804685
97.7022540922657
97.7174350890401
97.6878963563048
97.6902552668194
97.6484192073061
97.6831899952984
97.7417555640711
97.8213557190828
97.6945030003112
97.6638298906661
97.6603698677181
97.6867061467546
97.638941717389
97.6834738424059
97.6613373939185
97.6730830670172
97.6946747632151
97.6852242832063
97.6216994506812
97.7038179423573
97.6846087726643
97.6661948774984
97.604217183222
97.6156913460486
97.6034332669223
97.6702180549286
97.7284533995459
97.7616094152304
97.6783128074563
97.7200944803954
97.7256572336654
97.6732697455285
97.5586073299681
97.5007874176171
97.3172791866563
97.3534539762043
97.4750160077086
97.6530271773265
97.6718583268998
97.6639839791012
97.6373554504235
97.6494249894825
97.7263891148361
97.6824422038651
97.3765040424632
97.3773772444594
97.5104498965862
97.6655802994569
97.5766303373913
97.5387997998413
97.5294156465058
97.5459605176802
97.4188020224586
97.4664190650141
97.5098877782639
97.6144828465837
97.6331861894068
97.5614984332424
97.4299559425125
97.3790831855992
97.3309141223076
97.4258147093758
97.5317439070213
97.637823952272
97.6780313684473
97.6432878093882
97.528170814739
97.4887508922497
97.4531296187417
97.5355248165453
97.5212784768157
97.6017226762886
97.6330174171178
97.5732667016261
97.5994688518622
97.729708297572
97.5827688445556
97.4638363160893
97.5295639068362
97.5395509243489
97.4688183479783
97.5812705584419
97.679066854085
97.7215292813203
97.6413136732769
97.6852323043829
97.6818308479042
97.631976872598
97.6316245288252
97.7056199437389
97.6374609748684
97.7064632856954
97.794564728754
97.7496019711244
97.654317410693
97.7331974889852
97.8221323596425
97.8635537933333
97.6997618825288
97.6491814280275
97.7283216558371
97.8134467547505
97.734277041877
97.7463630665406
97.7271656274078
97.7493350675323
97.6955583456364
97.6376824601321
97.5306734260713
97.6087058450438
97.649568940618
97.6182532520416
97.5217187883849
97.4254823507189
97.3709751725031
97.4615145608462
97.3817456707204
97.2792808909458
97.2611631665354
97.4211994295118
97.4248890217844
97.4364255199895
97.3580269356004
97.3458315652336
97.3601162189917
97.5353222921094
97.6258155617549
97.6168382459221
97.4723281050527
97.4865295916291
97.456492667977
97.5155510420848
97.6695906552339
97.7473886456162
97.6478814047422
97.6115035110884
97.5514368583389
97.5839206102261
97.5351312669041
97.6592584912977
97.828031210867
97.8464401882969
97.764563051301
97.8189970796788
97.7084848128555
97.6201962516517
97.581631166922
97.693478438874
97.6795078815255
97.6621610006583
97.5207394236797
97.5635010162021
97.6503178895628
97.7393929447982
97.6341741219058
97.4067057076972
97.3549986613308
97.4655378520449
97.3417420945264
97.4721240270363
97.6667623540801
97.7630418572463
97.7646704975077
97.7777552718
97.699900098419
97.7449003133895
97.6883457182081
97.5942069442241
97.3939232106221
97.1496132747308
97.1159800126391
97.4503201677256
97.5669549386431
97.5593208240385
97.4794937528372
97.5716114434415
97.5072260046794
97.3164926679686
97.2725985897472
97.335377786156
97.1688888548314
97.2045316116786
97.3204658015818
97.3401806447077
97.2859928703715
97.3015249632689
97.0868699429319
96.9994803410966
96.9768578652485
97.0359120321727
96.9982076374534
97.0738888758274
97.2116122903212
97.3253888548792
97.2208468414343
97.1693075183382
97.1513936513621
97.2217855867649
97.1911545277464
97.1071730193427
97.0265291080467
97.1079021446549
96.9725805994998
96.7977891339476
96.7807612521095
96.9962595296604
97.0013686180461
96.9875033846968
96.9591929919605
97.0600245195157
97.0203803356495
96.8510463828479
96.7666843672862
96.8122116365349
96.6980869082753
96.7672778859335
96.8077897382538
96.7475830486791
96.7442123914406
96.7497474427414
96.6431823030216
96.6684057462435
96.6227693915703
96.548174693892
96.460317630577
96.5315806655082
96.5993809960789
96.6856843010702
96.696729989327
96.7172755659289
96.6509735435366
96.702385621312
96.6342846327677
96.5448341202044
96.3743688613881
96.3116621577125
96.3596409012807
96.4241047956043
96.3961183764901
96.3695165293489
96.3211513031864
96.4667444083506
96.57873520972
96.5091811151452
96.3584010313143
96.3351802227414
96.3227632539005
96.2574953899456
96.0933991626358
96.172277842133
96.2884865888919
96.2848929057344
96.1721489222378
96.2120616108287
96.1539666714658
96.1203041772246
96.131348929248
96.2138064619184
96.1464363620834
96.1162319813775
96.0353391591235
96.0064575038201
95.9419382654348
95.9940763241349
96.0530275552156
96.1193967489676
96.0200419385881
95.8983882560611
95.8913637013878
95.9550683778785
95.8323396568128
95.8582069538847
95.9275280984396
95.9386850393319
95.8307135707398
95.7142762435008
95.6773231580578
95.7988983320405
95.8894901009701
95.8374026347175
95.7336320719652
95.8478125704717
95.7605306082248
95.6256338774037
95.6141069432579
95.6730668195995
95.6435074661247
95.7127944979623
95.750601654735
95.7035175042131
95.5406688563137
95.5111737471047
95.5255982153724
95.5720314051357
95.5109911847739
95.5437202672619
95.6066560458118
95.5766418931071
95.5241981057346
95.5394558898294
95.5251766300482
95.6396618115034
95.606756934324
95.4706890939993
95.352273759963
95.3633489658516
95.3532826924145
95.3644546825109
95.3597481434704
95.3791739146948
95.2883647919902
95.3045229730769
95.3659892448585
95.4329645424983
95.4363957148138
95.3878510733659
95.2282438910013
95.2574454662112
95.4045582727237
95.5628076408549
95.4187734912412
95.2398117239878
95.1571257686501
95.2559688891582
95.3647266430084
95.3537096234648
95.199064918441
95.2189542742218
95.293300269367
95.3645386169716
95.2431898782375
95.2155700587894
95.2517096185469
95.2722536477865
95.2477504373685
95.2543932631211
95.177920062822
95.1694695315212
95.1613003380013
95.2013068467769
95.2875646985213
95.3408324186071
95.2979451654954
95.2340865990716
95.1287652919195
95.1369048424144
95.1874815170063
95.2229368969918
95.2416163350784
95.379055952115
95.3633938141
95.2873646357102
95.196780384386
95.2113576999976
95.1307013337572
95.2112014052849
95.2708922853398
95.2161472776231
95.2287508857994
95.2604007739324
95.2155735677128
95.2614913941491
95.2534361951373
95.2174734370444
95.1797725391981
95.2556974086259
95.2828042988521
95.2323383260529
95.1497358730648
95.2094512669792
95.2236699029952
95.2976426915977
95.3593385129878
95.2866799241292
95.228623885128
95.2806836868624
95.1609297605616
95.1924174265344
95.3030277518051
95.333926015329
95.243711211465
95.2902353160463
95.3312084485817
95.2714381857092
95.1501798940136
95.1920804689395
95.2610299419565
95.3023611844986
95.2599926195702
95.2704526720588
95.2783456672862
95.3200600800124
95.3823770090382
95.4189945339878
95.356127609514
95.3488650279907
95.31734830697
95.2909784950836
95.2474747572803
95.2874170182992
95.2494045230368
95.308521589955
95.3541533925351
95.356381627371
95.2666087092088
95.2787349471384
95.3975204616287
95.4662048915633
95.3782604200717
95.4194324379839
95.4020363401955
95.3470865833998
95.3424428607503
95.4179810586216
95.480485119562
95.4946607245119
95.4014381101183
95.4059297189444
95.4218453273986
95.5223224176122
95.5592007850905
95.5102897844571
95.4955941163079
95.5749331824018
95.4844633441001
95.468414678108
95.4995418632687
95.5246248490562
95.4808730127523
95.4981921409773
95.5114235695495
95.5600525047984
95.5083207927062
95.480130197753
95.4884749356732
95.5879091516696
95.5628549991892
95.5654888791559
95.569370494225
95.5865197842967
95.59331175091
95.5649116483273
95.5119842200673
95.5954143476409
95.592220573154
95.5395741721979
95.5779314721049
95.727214643988
95.7525178610907
95.7256670088526
95.6586073315349
95.6194809184762
95.5807419019615
95.6037638711797
95.641137699784
95.7302890952007
95.7217691583728
95.7064834716052
95.6834725394925
95.7109738043808
95.6819157968444
95.7434359969515
95.7713804158036
95.738277496449
95.6733751622395
95.7531435796668
95.7828219507662
95.760614315894
95.7476381158265
95.7968781780512
95.8474882938348
95.829219466388
95.7781215860775
95.8704953025672
95.873085150267
95.8352890874552
95.819775700511
95.8434977955648
95.8254809330105
95.9045955634168
95.9160454730204
95.8846279972409
95.8998686604323
95.9505800944492
95.8787436955813
95.8558550966674
95.8571972192217
95.8340845629918
95.8515098074674
95.9884792488984
96.003554469563
95.9302230121791
95.9251534628699
96.0208349701618
95.982429629017
95.9702255738386
95.9967521480422
96.0660137351746
96.0135448178741
96.0057392260635
96.0766655257697
96.0586358219021
95.9483170739884
95.9556619571423
96.0330445447516
96.0804581781683
96.0076684901888
96.0009469957732
96.0334222711254
96.1120746331341
96.141180781914
96.1764695388919
96.2066858377994
96.1975454137106
96.1341357670676
96.1730523487394
96.1722683455838
96.1533754839454
96.1458035905706
96.157985659156
96.1452249039046
96.176854215332
96.2330317326191
96.2645432799607
96.2008986624546
96.1419688292462
96.0518399951822
96.0771079260449
96.1517141946963
96.1884061692166
96.1460822598027
96.1413208880108
96.1283108106429
96.1261432754228
96.1255876874868
96.177095443576
96.1849329246791
96.1554684903173
96.0959480964398
96.1445291375618
96.1523842502326
96.1581674946941
96.1791738796758
96.2193472805236
96.1947430394972
96.1782344513185
96.1891775986837
96.2628599620799
96.3006099058938
96.2899941667404
96.2635269838572
96.2557799062767
96.243272777025
96.2308626294749
96.1987071598367
96.2554808228835
96.3277834540601
96.3881353315861
96.3880765238798
96.3608139577455
96.3210272085661
96.3575920345097
96.3820046630841
96.4735629942761
96.570847708398
96.5657780030143
96.475048068337
96.4249755109778
96.3766925300569
96.3958892907931
96.391598656491
96.374459301054
96.4151198123746
96.4424511959896
96.4515190919176
96.4645729867196
96.432721547016
96.4567764619732
96.4755229730631
96.4766350706449
96.4308211971022
96.4102746977413
96.4267375877466
96.4308062394462
96.4647165255828
96.5296749055056
96.5802751842879
96.6004783364627
96.5169114093464
96.5124820812863
96.5824132809896
96.611975591611
96.5598374789023
96.5700888286897
96.6261187279132
96.6548996745661
96.605609874997
96.6222465779881
96.6389109271481
96.6377831872178
96.6763469752984
96.7190308502389
96.6907388706564
96.6672600352054
96.7035957616673
96.743336107604
96.6988796780097
96.697219252267
96.689615930964
96.6903053565241
96.6962845643819
96.6725034095226
96.6797677753422
96.7629379103614
96.7522223841303
96.6942719398646
96.6540628743272
96.6959512348776
96.744893038461
96.7415546214569
96.6920201301243
96.6926033754267
96.7041274702239
96.7142240091196
96.6983273990743
96.6982500452412
96.7368789841306
96.7915204761469
96.7589434268014
96.6805489889385
96.6512986445452
96.7263982596777
96.7675897488622
96.7422385998312
96.6832380645472
96.6715375708831
96.6501841718201
96.6356314354242
96.6292896196765
96.6981931206786
96.714215670979
96.6619054592362
96.6918311872226
96.749954789524
96.7700438251393
96.7899526213294
96.7504591926022
96.7220611152466
96.7101330134686
96.7102476779161
96.7375799446653
96.7415128764727
96.7416456269474
96.7832979245056
96.7652920965006
96.7478191327258
96.7243599765886
96.7376115014036
96.7531361282061
96.7338075078572
96.7285657501515
96.7249815733098
96.701985756506
96.7220817185084
96.7196211218713
96.7619394473445
96.8282426818572
96.8453409444521
96.8501315340092
96.8673320641385
96.8803038883093
96.9030380471359
96.896931913269
96.9129712010549
96.9521736202541
96.9800912769653
96.963707039491
96.955319101677
96.9592583591892
96.9750685247074
96.9872151600185
96.997706514071
96.9953621359063
96.9994551299999
97.0255405216025
97.0564976388462
97.0378945006932
97.0060556690288
97.0367841400305
97.0918582620881
97.0801475714149
97.0680075731314
97.082918758736
97.0799520185143
97.0837280725737
97.0839931062981
97.0377676395016
97.062713600125
97.0856794658703
97.0384251631125
97.0075972348139
97.0328197469331
97.0478974656616
97.0597305291231
97.0790406136196
97.0765331919967
97.0860278646096
97.0799207977898
97.0672748861393
97.0933697211003
97.101344124933
97.1212483848259
97.1317930546604
97.1549410582351
97.1820680411171
97.1937679242126
97.1742861681224
97.1925051795775
97.2329732680062
97.2607192310486
97.2711960879469
97.2741406552111
97.260824697439
97.2366808068489
97.2628864827624
97.2882018805985
97.2544315230711
97.2800253900327
97.3340234911664
97.3002122333145
97.3425608885477
97.3603806091085
97.2641793296891
97.3099299617363
97.3959081821162
97.4268983171543
97.3941524166002
97.4224945469308
97.4968412286194
97.4301815209488
97.3513443356185
97.3537786490597
97.4086437784526
97.4835764679196
97.5002587330594
97.5205205641231
97.4978181003783
97.4460991010551
97.497075935708
97.5409948386856
97.5268045622619
97.5620858400335
97.6116559335023
97.6130763292384
97.6615953433047
97.6318909281955
97.4317453487843
97.5104244481988
97.6560158341142
97.5780853405279
97.5400326360159
97.5742373868883
97.6441417668902
97.728228886194
97.6788978885414
97.6494463133207
97.7036211681343
97.6423052834356
97.6345875060656
97.6398923025002
97.5812127989046
97.6730822618295
97.7283265803133
97.6769982124581
97.6640871442031
97.7154323433398
97.7181565988349
97.738289168291
97.7136900914709
97.6844396251721
97.6951756181887
97.693572749772
97.7054971457405
97.6832270497894
97.6238577191963
97.6856146941662
97.7336311435778
97.7085156429004
97.6937677445581
97.7125588549062
97.7189652125489
97.6577169795668
97.6042068731063
97.6111160706976
97.6212343677747
97.5720246940715
97.6006486810501
97.6676614594343
97.6212028243073
97.5286451815741
97.601240643469
97.6701962748081
97.5169235054552
97.388178663202
97.4591118819388
97.5857335562618
97.6595645904651
97.6708166534965
97.6530041226908
97.6393307268295
97.6090053815664
97.62027188698
97.6488928859975
97.6280552702084
97.5943276140378
97.5655940857236
97.5548401615693
97.6525779933092
97.6790447458318
97.6074355847819
97.5234438315282
97.5591136566759
97.5559214989083
97.4909687733308
97.4719908237265
97.4374304744756
97.4173362101032
97.4358941706378
97.3519346969233
97.3252997454673
97.4026494849158
97.4466431097739
97.4678613927764
97.4209218569652
97.3806054474206
97.3669037638054
97.3228053736322
97.3118535411575
97.2137625604099
97.0992090759192
97.0257405539606
96.8647879620646
96.6851574057012
96.5812935369216
96.6085900980392
96.7026531287462
96.7487735236984
96.8112669197414
96.9259416145649
97.0155969074838
97.0883578592927
97.277868191447
97.3942500437878
97.3863890012072
97.5302740518386
97.6899674197597
97.6672610151118
97.6403752043601
97.7757858080391
97.875955066595
97.8791406405069
97.8907703318111
97.8809013984823
97.8411970466515
97.7890699722077
97.7378870202266
97.682248490456
97.6987570394336
97.6972529739232
97.7542421103828
97.7893497057888
97.7323450499245
97.7099407689557
97.7089989532685
97.7018989129867
97.6864364759025
97.690093170304
97.7208156995021
97.7714300444783
97.8031751626717
97.8006835482469
97.684048809707
97.6147939519649
97.7318431685421
97.8098105985692
97.7512100915075
97.7983868109441
97.873071119947
97.7562304378533
97.7076233019899
97.8165454669785
97.876564590052
97.8751086244537
97.8999384426436
97.8717286328541
97.8167655116103
97.8316340850149
97.8974283784231
98.015756885151
98.0637330847137
98.0488447961727
98.1442749725082
98.2277374401485
98.2431008862701
98.2497073890092
98.2744019568818
98.1883125061866
98.140171745348
98.3261808182142
98.4450628338127
98.4433256031722
98.5349126971502
98.6411291830289
98.7096185499964
98.6400198046675
98.5503643074513
98.6140964636205
98.7326640539025
98.8048049252347
98.7663468768338
98.7535065597857
98.7682389802847
98.8582095819674
98.8410324672254
98.8711949764723
99.0737109218117
99.1419971003101
99.0996567740668
99.0827841069582
99.0971099608141
98.9693717888682
98.8780683906501
99.1086760733884
99.1653239991062
99.2033643621704
99.3982293951706
99.4384176231808
99.316677399453
99.3497182515659
99.2871218499009
99.2690879520843
99.6024045108926
99.9747460099231
99.7673929467064
99.5022084337015
99.6132861281054
99.7749425332568
99.6877020681899
99.5316307776016
99.581676720862
99.8845606679556
99.879476212565
99.8038565898119
99.8759618269256
99.7392775844827
99.8222232342599
100.138666994975
100.05596333041
100.018406244005
100.192783005837
100.552810026463
100.479316474473
100.156927023131
100.121134137043
100.298621644156
100.316175113038
100.436046767642
100.472373590462
100.339749896215
100.24050338606
100.488275181679
100.579241536334
100.662796500885
100.543948471606
100.241359802189
99.8890785123938
99.7705583853003
99.8749449528318
99.6367149941624
99.3355110614812
99.2499873171957
99.2424168478863
99.0827495846721
98.7914675510802
98.8163954690513
98.92917173029
98.7665847367672
98.6682654350201
98.722522336684
98.65861768077
98.5019202465747
98.5886027752917
98.514323371612
98.4815662980026
98.6001412500411
98.6192229074996
98.682359849946
98.6635300530677
98.7006285157437
98.7915573752046
98.8290728214109
98.5864506716609
98.4454072130949
98.5171861647504
98.5583227824165
98.4852920247207
98.5769331891998
98.616109583936
98.6285455376554
98.6326042486277
98.5812476289227
98.5101135131953
98.6411689784179
98.8413213947779
98.7726791650935
98.6732056088256
98.5757060816945
98.4040352955921
98.6381920675562
98.8300657007499
98.7494366467585
98.8908232907467
98.9448257246773
98.7307458155372
98.7979244602173
99.0894953717414
99.209588644814
99.3171220716423
99.3875750759941
99.4204299117192
99.6794202652246
99.7354943799329
99.4995540342262
99.6300067754963
99.8210599504713
100.11684152433
99.9247350361115
99.5767242276896
99.7744708938278
99.8953095984047
100.108463118791
100.206839947127
99.9615428104131
99.7355308572843
99.9527466358867
100.026645618119
99.9454916706736
100.118153113662
100.189348193343
100.08229555598
99.9948327533855
99.9397434592128
99.9698705977706
99.7978068671956
99.644991235973
99.7218425491975
99.6625894909541
99.3337648992553
99.3402800557451
99.6764652242331
99.6896329159197
99.5934629157932
99.7576106253896
99.6850723481402
99.6113977403191
99.6408778973816
99.4723635916531
99.5918866171778
99.855754245972
99.9918801419623
100.051833577905
99.8958140497096
99.6763054638259
99.5590016782411
99.3992632725186
99.3286379602467
99.3840139190527
99.3375853923186
99.3598456876007
99.2856303438233
99.1474982357104
99.1290634561862
99.2218014466296
99.2030270867463
99.1050201747164
98.8263413511063
98.624484505604
98.7129808262062
98.8860395585239
98.930214098722
98.7901094445966
98.6993593699282
98.6478271830177
98.7796562155312
98.9443937555459
98.8207859137287
98.5944498004632
98.5994223671039
98.4836101623205
98.367828249371
98.4193965763124
98.484823163148
98.6134933323231
98.5402799227425
98.4956350455292
98.5465434899369
98.5435855289629
98.4963812093257
98.3973258239455
98.3675473994857
98.3933560851178
98.3390232413306
98.3635856156151
98.3463605041783
98.3303229511176
98.4026701073888
98.3648843207864
98.3363819544933
98.3052319650019
98.3082860230781
98.3064478907375
98.3402123797977
98.3575638380476
98.3447922533473
98.2058731788435
98.0334172269157
98.1252589141828
98.2533726035829
98.2897496986256
98.2579681624425
98.2239475454606
98.2371215122967
98.3056890582243
98.3088665910263
98.2547493497324
98.2340220285659
98.1876995637632
98.1288256418045
97.9019611815489
98.0210183561534
98.1518608069091
98.1255664013895
98.1122900644408
98.1569500981982
98.2320895172082
98.2173375605853
97.990331170664
98.0736429327049
98.0307034158858
98.082308707509
98.1606280442703
98.1685006527808
98.1439774404327
98.0833895285667
98.0914711178763
98.0838033595839
98.0018201554341
97.9820675871551
98.0131825906121
98.0970820026235
98.0761003132596
97.9498906765316
97.8991837893608
97.9357627835713
97.9533185402395
97.931096882984
97.7295404596163
97.7840521985482
97.9114327731017
97.9168798607614
97.8333942061218
97.8850045284947
97.7909395303246
97.8013487933368
97.8532719657194
97.8241122501308
97.6910850915682
97.4665594312599
97.6712595723756
97.5571746971544
97.4239068188467
96.7546959857083
95.7783062203077
95.8648304746898
96.5663660109352
96.8526148779861
97.2684279958181
97.3788704049296
97.2343140305609
97.2555197543029
97.3603704629804
97.4791405787296
97.4656245995951
97.4937871801502
97.3868514415075
97.4107615983136
97.5463111511104
97.032229310018
97.0929774408582
97.1709782548636
97.166888345939
97.2740990038111
97.2502475521991
97.107121169438
97.1052812801818
96.909906954121
96.5037521802024
96.3982873601725
96.3617262753747
96.4137900071823
96.3241278990445
96.2083748443364
95.9401688635613
95.701106402115
95.7030660367391
95.0941553432563
94.9618995255781
94.9983678432902
94.5984909831202
94.927933526173
94.7853770469441
94.5623566706314
94.3933089755634
94.2343448804431
93.594270234545
93.7884622646438
93.7024827374946
93.7996784208494
93.6754366877702
93.3556985218346
93.4171274079703
93.2260023859608
93.0162488534705
93.1792188528406
93.250150836
93.0161447078044
92.8716746928105
92.9937249475851
92.9681706006712
92.9456126464353
92.4239612360346
92.1036458865397
92.7664889153937
92.6669053010797
92.3227106983165
92.4972016063342
92.7556000728163
92.7601751840108
92.7175177948756
92.5690207815693
92.1840284978929
92.4665419522262
92.7356831487554
92.766300334428
92.6637636697363
92.7436837399715
92.7108910510537
92.590170416427
92.7696332188873
92.8072184890958
92.6083711878905
92.6999846949254
92.9025275360371
92.8798076475365
92.9045155059778
92.8792485042704
92.9435372249121
92.9287462291226
92.9237729314602
92.8835378691018
92.8907329558359
92.8343075835736
92.8127401834407
92.808287660972
92.8291928541367
92.7562590913102
92.737815072648
92.6848408841641
92.6402404457789
92.5624300479741
92.5518918306189
92.3616005856673
92.021484615301
92.1888414903377
92.22813370885
91.9268089626559
91.7820368527625
91.8711393845336
91.7014078701699
91.7026939154314
91.4101207861377
90.4764655100731
90.5534544545003
90.9079266416384
90.8199245657147
90.9229199877397
90.6512253917179
90.6186100400739
90.3968040318304
90.0194990685739
89.7568423152792
89.3461052666452
89.285821437053
89.7032445615386
89.5475822014102
89.1464771898782
89.253294728378
89.1324661439825
88.8765734940647
88.582179314516
88.514095798983
88.0852535950268
87.9685971710675
87.9576021475926
87.6620660181008
87.7624016770229
87.6457748557596
87.44947217297
87.0795070434857
86.4426831927354
86.6733268869542
87.111136795091
86.9943781224471
86.7839897986748
86.5403455225236
86.4467586196389
86.6399739366271
86.5447400811627
86.1750413409895
86.1380157137092
86.2587305683293
86.430941145885
86.4305595491687
86.3536935343266
86.3889001772382
86.2074697777939
86.0357022357425
85.845030141541
85.7937916026453
86.1875403440375
86.2393656986508
86.0738170934205
85.8401520326495
85.9731113137365
85.8585702018517
85.4773849122072
84.8928802347066
85.1311569105417
85.0845631976428
84.7913603933589
84.2523176091397
83.5240475785884
82.9276368185295
82.3015240331817
81.6311357451734
81.0081135605459
80.2169872827136
79.2877642975245
78.7142426130396
77.9674443512551
77.4617462160354
77.4237222484051
77.3726536899862
76.8064320151818
76.1297023962653
75.5162028348446
74.6506640137523
74.0659906077339
73.6139727896411
73.0516900099248
72.3942140320022
71.7116448791148
71.1074382817712
70.3998252029188
69.6820994547806
69.1113548886993
68.4600107328809
67.6641851996971
67.0348730178447
66.28210131201
65.7077577785106
65.138155290396
64.4051013236821
63.5649314512915
62.8869563985957
62.2663733355452
61.5539773736848
60.885671741572
60.279041948782
59.7725562425657
59.3533355954141
59.3983423000529
59.7648324578482
60.1212936454929
60.6317253777402
61.1528066035396
61.5198921190005
62.0899060462321
62.8672746263829
63.5040653731434
64.04733436641
64.5818716640206
65.1509470760009
65.725645019061
66.3493594908585
66.9661464608359
67.5642646716987
68.1721673206544
68.6792424729855
69.1703457421584
69.8791612234141
70.5754847303905
71.1631580136595
71.6594451613696
72.1323175102318
72.5935094222038
73.0816654887702
73.5473659266958
74.0146369682271
74.4443616756196
74.855301981354
75.3134425977891
75.7414766334023
76.1095730309049
76.5093352690242
76.9020103888841
77.2700284477242
77.6338114877407
77.9951990254555
78.3366196198571
78.6506876512049
78.9582833236708
79.2665331681313
79.5836993640575
79.8905641959339
80.1576231752402
80.4150084261147
80.6934050594609
80.9683243168097
81.2035041470616
81.4395420963995
81.6838804889098
81.9245898300235
82.1476591143944
82.3727981351471
82.569949354029
82.775824892054
82.9740923582064
83.1666356583147
83.361321541402
83.5539089431868
83.709908139106
83.8856791823919
84.0680671357713
84.2286042802681
84.3784134728216
84.5112728324537
84.6426192438309
84.7877114832393
84.9457134968223
85.0889097256825
85.2248026572877
85.3624006508673
85.5152784820067
85.6610636325022
85.7884777258351
85.9123792382382
86.0242484053409
86.1160978712821
86.1971122147797
86.2710017551695
86.3306085431069
86.3760503400064
86.3985590924143
86.3766333690672
86.3307706237321
86.29769336021
86.2146971566421
86.1099308234506
85.9609284991488
85.759740394785
85.57770180501
85.3864432302588
85.1725295328254
84.9301282478189
84.6712489550723
84.4117564692641
84.1245548622204
83.848638114241
83.5746872478701
83.2839125219394
83.0072505264757
82.7388510204125
82.4629965111695
82.204745106791
81.9433920614046
81.6805224252006
81.3930441306768
81.1123069217187
80.8403934105122
80.5746690024838
80.2798061987234
79.9352103518744
79.5773417093468
79.2666220389886
78.9744851025499
78.6681403687114
78.329247512759
77.9865704849116
77.6674249559717
77.3651893042206
77.0421129525435
76.728046661328
76.427855369815
76.1279996761148
75.8005250235477
75.4779080066528
75.1441238243934
74.8126246473204
74.4943435480794
74.1767775084348
73.8697060746133
73.5883833715599
73.293434036084
73.0696001728319
72.9133378404681
72.80063183254
72.7327621355093
72.7004615558452
72.669449187937
72.6422852624209
72.6125313935938
72.6107291433304
72.6564029186223
72.7884328404307
72.9801696554876
73.2570988259561
73.5962463826952
73.9444449407071
74.2895904351774
74.6749184275905
75.1116472139192
75.6111908860155
76.1164576308621
76.6427338777054
77.1758227317386
77.7032998877221
78.2501523659922
78.7744770557772
79.2571719726968
79.7445106604783
80.2477307754412
80.7429331166944
81.2150669625845
81.6911438146723
82.1806454746127
82.6569804894325
83.0914648797786
83.4845447666212
83.8258456136179
84.1526223720919
84.477311576902
84.7481879879985
85.0013685552945
85.1338940339747
85.2716119683276
85.5889234166934
85.8885371984056
86.124316417005
86.3624861946089
86.6186202273929
86.8276330614944
87.0138102799359
87.2007041839797
87.3534354610868
87.5027411269527
87.6626755744123
87.8094041235721
87.9536437822283
88.1100976259636
88.2552213216866
88.3810310105689
88.4927850742142
88.6104845040318
88.7232940463872
88.8180611900085
88.9219738060848
89.0036695339744
89.0589016639632
89.1298247945285
89.1872818688175
89.2018689847476
89.1727493873385
89.1232668500158
89.1003241070255
89.0701780155713
89.0532199252068
89.1432643513423
89.2826554838263
89.4591982903717
89.6173452559512
89.7711320418149
89.9913196722987
90.2146476898548
90.394928074464
90.5107592737582
90.6298939428255
90.7495253900198
90.8549544265226
90.9286126921757
90.9901221472388
91.0552395297524
91.1265559058858
91.2137295116252
91.2711901800845
91.3127479343943
91.3681081311961
91.407373809676
91.4316802463704
91.4606581147767
91.4899722772613
91.542991956645
91.5988666556629
91.6146219263304
91.6501626639121
91.6814147280199
91.7139867830768
91.7397499729606
91.7842114810144
91.8248352589916
91.8522445451545
91.8699179377851
91.8715076637609
91.9090235951614
91.9535430342659
91.9879411657246
91.9998347982078
92.0120380287539
92.015751856649
92.0009875757757
92.0615456049928
92.1381304330754
92.1642043574808
92.1396490239989
92.1351024339567
92.1585426632447
92.1540868271158
92.1195322768359
92.0907515084154
92.0507952566492
91.9386485186387
91.7772302337234
91.6440282785952
91.4627848792575
91.1929563227774
90.8621126875671
90.4432441296116
89.977383851772
89.5449162338708
89.1597588249007
88.7806751113269
88.3826089573081
88.021170004896
87.7646798998429
87.6496557246094
87.714113793813
87.8931781478491
88.1269411019804
88.502923946385
88.9403661036391
89.3579080639887
89.731768524341
90.0613606490668
90.3205949396923
90.4030338202493
90.3837863235752
90.3607153228491
90.2719013234468
90.1394994771399
89.9534443690911
89.6901136099434
89.3211785281651
88.7951630747633
87.3039783981854
83.5254603720542
78.7575541571311
77.3280156706948
80.3415428911498
84.4344581870483
87.248134443979
88.7855165121162
89.6202487266025
89.9991396519518
90.154933343627
90.4225204685411
90.6551324032143
90.8077674916365
90.9467242480127
91.0162041905337
91.023101692585
90.991834141402
90.9903233202393
91.0217921543868
90.976324336633
90.9734370416816
91.0151695786021
91.0068254096695
91.0238889929748
91.0645572544409
91.0733212387414
91.0845840125215
91.0977839673765
91.0926679434805
91.0992837036621
91.0806908212282
91.0557065695165
91.1093623572527
91.1331829131623
91.0883699555797
91.0577061783248
91.0377653935989
91.0177011251244
90.971745061003
90.9199250150745
90.9316324364419
90.9545041113537
90.9229112373541
90.8431087674371
90.8252713443296
90.8393282977108
90.8246716349471
90.710967218648
90.6439670301742
90.6456375157193
90.5938318527479
90.5488123141148
90.5294137771644
90.4521040419969
90.3884579181517
90.3937053773925
90.3878112267743
90.3311626781052
90.2682269488204
90.1912677386988
90.0702725809203
89.9704944180036
89.9153593920087
89.8719151077864
89.8249129235678
89.748604436647
89.6380567894959
89.5457010143919
89.5190907397323
89.4548055661698
89.4545258378467
89.4053328451454
89.3721964742763
89.3831664473766
89.3594476409125
89.3990340514391
89.3935476846544
89.3606823856967
89.4475181602075
89.4850130590408
89.4825952210919
89.4279006416938
89.4559638701526
89.5036734525194
89.5962156120609
89.4387471859673
89.7080619091529
89.7400749993646
89.5152631272711
89.5091689878517
89.5157001568481
89.48255707089
89.4021367742178
89.2268889629577
89.0647790268107
88.9470413303514
