1798
3999.43349933624
650.420452594757
1
128
4
92.4508918881811
92.5353976527451
92.5643874972601
92.5679855291797
92.6243185365809
92.6493862344043
92.6307065878409
92.6411652591591
92.6840478520672
92.7348928569023
92.6922254595665
92.6502970483179
92.6235000921439
92.5552437081556
92.5980824826101
92.7676256367867
92.7799575454289
92.6367912790351
92.5492770433846
92.5895451061959
92.6434116504802
92.6681607950211
92.6670114409753
92.656245457413
92.7162540475895
92.8403919537686
92.8847089899965
92.7452077750578
92.5570119310311
92.6436295287826
92.7845842474774
92.7502306638666
92.7175619559905
92.7259764305121
92.7594686823614
92.8130252048572
92.7901340164888
92.6771949169375
92.6725250402674
92.8130156111516
92.7953618630538
92.7337755948785
92.8093782355829
92.936166594663
92.8768226246837
92.7166889591106
92.7196332420025
92.7732826052472
92.7977642396998
92.8326725299048
92.8589339231748
92.8724825938601
92.8664805534277
92.8752361514572
92.7310025866422
92.6355868353651
92.7962481842837
92.9876980619298
92.82885851485
92.6991070352591
92.9679146497034
92.9962226167446
92.8267973752183
93.0284996363544
93.0100599073053
92.7948038280037
92.8417459947335
92.8795422652798
92.8932313572279
92.8941005215728
92.7331649229903
92.8081012511288
92.9613435760983
92.9580454302694
92.8083419540507
92.770021644999
93.0018223614559
93.3324257051708
93.3044235472078
92.8734269349977
92.703380232069
92.7650058696997
92.9873102966672
93.1307113267519
93.0135820761562
93.0504762912584
93.1413539860862
92.9907156547248
92.8926579615276
93.0131153557862
93.0510540711133
93.0156292701818
93.0138733950671
92.9504491286623
93.0523820828978
93.188962425479
92.9409442187577
92.9784272684765
93.1929640048153
93.0313300356781
92.9872180893828
93.0902962652608
93.228816242805
93.2792950425569
93.0866301331412
93.1616569277107
93.1973366557679
93.0554722136315
93.1581305102516
93.2566691301861
93.2448043392355
93.2480820671579
93.1779100230512
93.1062647938936
93.2091590972375
93.2718472459175
93.2354526532133
93.3314675140513
93.2900750290686
93.1353727809098
93.1351730627622
93.2078441781941
93.2317105685183
93.1569496745046
93.1106724858244
93.1228897758813
93.0798342348127
93.2266651128951
93.3479116899626
93.2024552983676
93.0471691416185
93.159109520786
93.354570032705
93.3831291246857
93.3024369460787
93.2821675589733
93.3843843292811
93.0657493128747
92.8067213314901
93.1074978211358
93.5511461225221
93.7528791614814
93.5861367902461
93.4452770689411
93.2097475821561
93.2700541394765
93.5712028817618
93.5117907845413
93.3529043993641
93.4074193375748
93.4598275194749
93.3671716000403
93.4138003106921
93.6709017700278
93.5865351642241
93.3754574002757
93.3322761953008
93.4485514343565
93.6281264764841
93.5754593448394
93.3656149425181
93.4109243633633
93.469929925594
93.3933181208523
93.3888517899668
93.45876207001
93.5135320324055
93.4001842278148
93.2964301390297
93.4200348435561
93.4633367570239
93.4065993841224
93.4214963478303
93.5840134680325
93.3898804607681
93.2500696945902
93.5187642556594
93.428878837466
93.2034793427529
93.2571530433471
93.3188570776003
93.3050794159431
93.3341088375321
93.4306939524481
93.2970253756171
93.0280385058017
93.1271912999075
93.3695699099779
93.1993831696178
92.9676570273702
92.97060579835
93.0808991974949
93.0689215176545
93.012287508299
92.9488724339772
92.9550877731667
92.9364912837707
92.8516162708816
92.948411996619
92.9020929085186
92.5541067527122
92.4047180614801
92.5666010186456
92.7181339352557
92.5573196529289
92.4760816333626
92.5124697369533
92.4334542281747
92.3533384878015
92.331299327802
92.1958519113267
92.0684358284346
92.0397897664427
92.0216056144926
91.946710003348
91.8898328316057
91.876962475472
91.851551153185
91.6441951065298
91.5044279764696
91.6285808638419
91.6761004368097
91.5421501081762
91.4599215307822
91.3540773933499
91.3179473315295
91.3393434336838
91.318240577654
91.2058202212724
91.0324670128378
90.9794893141897
91.0255746383305
90.9476550033565
90.8595137852037
90.8788706741542
90.9413682737917
90.9443187883431
90.8455548157714
90.6580334181877
90.575205650671
90.5164845965383
90.4673522310901
90.4240072058143
90.3070918822128
90.238706724611
90.2962296804437
90.3297703021602
90.2511487679305
90.1028694820266
90.0309726442342
89.9825615001128
89.9964559626208
90.0246372232642
89.8985260577928
89.7464080553905
89.7760696563455
89.7786095625551
89.706918474832
89.5426213931878
89.4431152435977
89.4582983795368
89.4542012369086
89.4526151902072
89.4338841892381
89.3347751355901
89.2131672299476
89.0275733967911
88.9047451647335
88.948183946889
89.0249255814485
88.9873610562576
88.9447360021927
88.8943339471265
88.8077309895464
88.7454048147011
88.6528371173963
88.4566078053065
88.4119827631516
88.4458079059804
88.4064438842352
88.3211912533432
88.2150656941481
88.1386810056356
88.1438036320026
88.1209496055409
88.0469966707447
87.9818414579823
87.948520847997
87.8286580047722
87.6666212478889
87.6336684154763
87.7099886780752
87.6318083999715
87.5150862524863
87.4377293145352
87.3635743228972
87.303882752087
87.1888100822054
87.1342907676461
87.1252141501308
87.0227205359979
86.9378088856406
86.8297353571489
86.7498282543486
86.6921970561598
86.6190147672739
86.5910767543637
86.559929887033
86.4312446658174
86.3395843969646
86.2176974651071
86.1452086136957
86.1373705659861
86.0668008686066
85.87335701215
85.741235684866
85.7066111575685
85.7395668981136
85.7062477602249
85.5427198588845
85.3839442007953
85.3449067230585
85.3659568755174
85.3600296613382
85.2989941645472
85.2109003100098
85.1324670425425
85.0926279616259
85.0686818419477
85.0712602003839
85.0528893367708
85.0345608927984
84.9554503873229
84.8930950377409
84.8155887566313
84.7750025565535
84.796045048898
84.7749456080006
84.7275336437157
84.7430489655443
84.723800524039
84.6699499150884
84.6470818826551
84.6497151712684
84.6358740231875
84.6347226336334
84.6246229552967
84.6520501626449
84.6367999061352
84.5791226493013
84.5524648871856
84.5603863975801
84.4965955527149
84.4128424494656
84.4159554451125
84.4341743432097
84.4535656602994
84.4929542919751
84.5079901699462
84.5277871706323
84.4534338422926
84.3175601374073
84.2546919568332
84.3097414952529
84.3689492251584
84.3909809813133
84.3275384333967
84.240672538947
84.2227328090437
84.3340563671366
84.4187652359051
84.3503212769557
84.2940319893905
84.3144243386886
84.3362902477287
84.4383161836487
84.4631729369424
84.4193302124807
84.4887569306073
84.5913395911333
84.6367856539419
84.6428725159376
84.6654561969348
84.7419086912174
84.8065938182797
84.8211267265267
84.8664689545958
84.9535976519546
84.9114658402868
84.8974563927409
84.9538959692154
85.0501076766154
85.1008261958492
85.16816677148
85.2042769600335
85.2586204063421
85.2482846705514
85.2390180068978
85.2983195280543
85.3124156231589
85.3156534225422
85.3740706388438
85.4142075996822
85.4549279130758
85.4184553557851
85.3957000360631
85.477596313216
85.5604118229578
85.5892409225023
85.6256575613198
85.6926441915903
85.8427823023435
85.9311334438111
85.9675572209609
85.969272249
86.0045180586183
86.1081876547593
86.1686595834698
86.1346830531598
86.1583373451287
86.2446368256549
86.3328951531652
86.3776226336303
86.4103380686508
86.4454399122202
86.5213996584211
86.6176996757577
86.6843471299627
86.715753192365
86.7460547582435
86.8369891558587
86.9140526120616
86.8735507750844
86.9513646797262
87.1285902110063
87.2185611797786
87.2231952312038
87.2262294194589
87.2931693405961
87.4588073503355
87.5172059900387
87.5150923344698
87.5625594017999
87.5932792665543
87.5820237456432
87.6110713964365
87.6995509206481
87.7827870310903
87.8352433589552
87.9334097038836
88.0421015380742
88.1001324116607
88.0964620087117
88.1536990005509
88.2411645762315
88.315256636051
88.3522623190837
88.4500648930547
88.5449716001058
88.583414312548
88.6031161371187
88.6063676104474
88.6801929419044
88.7542414279333
88.7665991745079
88.8197265253303
88.8638228463763
88.9648918147807
89.0768749771374
89.1159071860525
89.1346346558749
89.1915029027949
89.2464051272679
89.315280649572
89.3241606416261
89.3603584023762
89.4515427740349
89.4592712541162
89.4186464189925
89.5167488426703
89.6416017060393
89.6674734724219
89.6586547174672
89.7057753972871
89.7856474952149
89.8246713742567
89.814297934623
89.8555711360133
89.9176899647047
89.9996539745875
90.0486750873342
90.079916927385
90.1380004129216
90.1911164598015
90.2381413375871
90.3106785625394
90.3501329305621
90.3388188623744
90.343878512213
90.3635330305908
90.4025084195065
90.4853944425632
90.5578633738189
90.6599427411912
90.6960545907681
90.6791709098319
90.6792097135404
90.753788594164
90.8503186626227
90.8861315091532
90.9248058852211
91.0237155344503
91.0403541305625
90.9740945696148
90.9511777382074
90.9810992652448
91.0680478185668
91.1905427290332
91.1962690738706
91.1578961690207
91.1892752202805
91.2348754753649
91.254924989395
91.3157985483494
91.3476940202394
91.3630432660532
91.414652319377
91.4826125449427
91.4915206367468
91.504879485144
91.541972009545
91.59870037545
91.6461497184868
91.6802587990382
91.6645161421861
91.6394734098324
91.6567466581775
91.7512246064426
91.7898915061381
91.786362548322
91.7863214360312
91.869177818302
91.9026537996729
91.8426569525604
91.842181739183
91.8991172268745
91.9300550477386
91.9703802252667
91.9976320607866
92.0544895179546
92.0410322262401
92.0189819629182
92.0552444436524
92.0996981318429
92.140437341903
92.1043831102591
92.1309543442368
92.2104481402038
92.2037888298651
92.1467760561648
92.1812810497496
92.302642791707
92.3162116106777
92.2983268724056
92.3561551345878
92.4663290340281
92.535786349194
92.5205037792183
92.455395731425
92.4377177848566
92.4589869856678
92.5131543523604
92.5358643740979
92.5797254965545
92.6291585515654
92.6314517709726
92.6124874336188
92.6037029869557
92.628467165549
92.6823118253545
92.684034495453
92.7389579593096
92.8306474234333
92.8623146007082
92.8803257254518
92.8918745498407
92.8652069108164
92.8642824235798
92.8820729760218
92.900881987398
92.975684690254
93.020078456012
92.9641304438908
92.986413349264
93.0440679249217
93.0423370294704
93.0091791124594
93.0109949443116
93.0580161444468
93.1054324582204
93.0914624612705
93.1078025580778
93.128901778947
93.1542934221091
93.2294409787059
93.3102005051572
93.2682649757354
93.220972280546
93.2267392074332
93.2236627872407
93.2404757971637
93.2833121611813
93.3033161604703
93.333154001392
93.3689081654185
93.3757801168011
93.4148215017266
93.4298875487534
93.4098511332213
93.4286604898606
93.4284940278913
93.4447583133818
93.4933513918625
93.5731964677292
93.5839479661323
93.5703023320232
93.6048444952646
93.5906900233894
93.5639008939841
93.6002423130053
93.6093312227498
93.6094325752374
93.6119595620984
93.595364535332
93.5793758855161
93.5995983361049
93.6219217664914
93.6637937723713
93.7004569281743
93.687712177227
93.6649594359391
93.6395452136241
93.6151501411566
93.6466512657124
93.7179516404618
93.7499488850771
93.7571282862642
93.7471791924846
93.7059906618763
93.6936886867844
93.7086184175296
93.7034423506594
93.689647211616
93.6564640092129
93.6249252696987
93.6029428191792
93.6173917982514
93.677639135393
93.7079417719812
93.69075261061
93.6907655370373
93.7350698291065
93.745290375292
93.7362736505414
93.7614072697674
93.8072456635425
93.8197209886788
93.8326156006108
93.8274771940867
93.7740688323365
93.7329814070441
93.7781127199998
93.8563127774013
93.8478115976062
93.7573151342521
93.6923248913231
93.7012187491195
93.7742331307238
93.7696182773813
93.7627154466244
93.7422095973159
93.7293932725504
93.7799113758463
93.8712701933938
93.948712545823
93.969654590786
93.9976982791858
94.0331037312723
94.046612241608
94.038233054257
94.0244485072475
94.0805568026235
94.1287736686235
94.1538253504204
94.2151008199495
94.2188867924924
94.189897191219
94.2210187319769
94.2449540763095
94.2513038814403
94.2746051904483
94.2986072475225
94.302054209001
94.2937237629983
94.2759437182054
94.3110065537527
94.3564590828375
94.3925154764814
94.4229095396364
94.4368866237397
94.4360708617504
94.45413324413
94.4399872774972
94.4264353903445
94.4258905371484
94.425521337268
94.427653467932
94.4406201191304
94.4673362752508
94.4384146574637
94.3998927348032
94.4068329979298
94.4228495680062
94.4478707477519
94.4526602356132
94.4444984970484
94.4716413436577
94.499708080576
94.5189493210237
94.5555818495536
94.5629092822425
94.5635217975723
94.6088911294798
94.616972557121
94.5819962489442
94.5812745399746
94.5875344603557
94.6494994467685
94.6965884163287
94.6942737108831
94.7258312668304
94.7510375753711
94.7227657947298
94.7299233165303
94.7528862577375
94.7298371590066
94.7802650905193
94.8096431242407
94.7709325436578
94.807837705983
94.8701935419335
94.9226963663648
94.9267680837961
94.8648485134623
94.9084109349502
94.9612365974228
94.9462057009938
94.9527179581874
94.9943845079539
95.0369141040649
94.9877028501727
94.9906670671908
95.0812362865728
95.0621820069766
95.0031769143205
95.0644259447005
95.129474916464
95.170827810321
95.1391951622098
95.0496736867715
95.0946357340555
95.2024377053164
95.1780692714196
95.1449520029622
95.1832777727522
95.2378700696941
95.2745200146199
95.2921906660481
95.2660536894118
95.258478814093
95.3015783771291
95.2732507558741
95.1971194582885
95.1989939075053
95.247294427655
95.2909001750802
95.2416321423599
95.2681382706261
95.2964195859026
95.2560680567958
95.3127954666598
95.3770739181529
95.377222149997
95.3801838957333
95.3715841611803
95.2880522315035
95.2820394856731
95.3524353622197
95.3545141822235
95.2819132776309
95.2476874504901
95.3707195024031
95.4156487430406
95.3880730141994
95.3706857302098
95.3375579107568
95.2363904057385
95.1791637166489
95.2436591522606
95.2691586767551
95.211400242613
95.2210023302726
95.2796834607212
95.3044205028447
95.2838219034366
95.2323782273812
95.1492167554565
95.0939631538207
95.163117727435
95.2065494118887
95.1663042344242
95.134348361928
95.1554221022921
95.2472876677932
95.302489723752
95.2429507177354
95.2192668695004
95.3288396147254
95.3292803577375
95.1898957212538
95.1498421638847
95.2145519462894
95.1592184759012
95.1752011832094
95.1850742559013
95.1406659868885
95.2177407284514
95.3071240133908
95.2442414511333
95.1512834670688
95.1153848900222
95.0906518884585
95.0930664619867
95.0460175434074
94.9909929013645
95.0090133361793
95.0137851101013
95.0384709498707
95.0372023273175
95.0052141011554
94.9641644050842
94.9204276996662
94.9269369556135
94.9489456725533
94.9595814131527
94.8429591348918
94.7435670469623
94.6619047741399
94.4609420760453
94.2564103710228
94.0208900010541
93.8575385038755
93.8840752224521
93.995505150283
94.0944609140929
94.2328365191088
94.4548423780522
94.6229838292429
94.756637885406
94.8532961808656
94.8684675076853
94.9172877568903
95.0208075171266
95.1305114238641
95.2195527890305
95.264596219983
95.2941020212668
95.3851680503268
95.4573021258704
95.4618140358788
95.5423617473824
95.5565858172906
95.5070186299871
95.503883996667
95.4682588806842
95.4207538576707
95.3796495544954
95.3303698611111
95.3038189949024
95.3261106897233
95.3918116201338
95.4356225087331
95.434266049927
95.4507408898537
95.4862758352914
95.4932997546401
95.4517660048835
95.3910084044021
95.3302034436477
95.2988170970814
95.3168600273565
95.3432469327502
95.3296255234951
95.3341673674343
95.3583885195511
95.3854392179003
95.4557654378438
95.5401237618924
95.4366211377191
95.3282462624346
95.4104659916032
95.5051298548507
95.462096300356
95.442200553367
95.5047798648377
95.5509920783571
95.4801027913938
95.4121098762876
95.4633480582912
95.54008582577
95.545579745235
95.5094060987329
95.6027086534438
95.8106887196039
95.8878115067001
95.7812400536146
95.7718280221235
95.8124318864762
95.826654263603
95.9518961809522
96.058081369459
96.0509630015087
96.0906184926376
96.1357652002468
96.1291211876281
96.2013471029284
96.2586273107149
96.2528131964334
96.2268256228532
96.2491955314593
96.3838607878056
96.4362997502173
96.3613604415818
96.2722275967951
96.2871491888909
96.4407650919949
96.4626049241789
96.298557686147
96.3117967835608
96.5432097456818
96.6303967342491
96.6628135128919
96.6643797893995
96.7642089930455
96.9696958624382
96.8879028395812
96.6981459236796
96.8413058525023
97.0707418311811
97.037454737597
97.0168568694561
97.1541973742528
97.1435948153813
97.0720849167205
97.1312564738001
97.2849494964675
97.2881485802662
97.2597236053361
97.2316032512299
97.3015674806724
97.6282039390593
97.7649731227184
97.7449348216778
97.6750335417819
97.4426775598701
97.4545742321693
97.7998811075739
97.7690916284943
97.8847231559078
97.9804900578232
97.6394150160731
97.47316177068
97.7825136681022
98.407869118194
98.4319718458268
98.2961493216352
98.6394608417148
98.5703708353098
98.0582704179575
97.710939761878
97.6632371220647
97.6474976375794
97.549295182726
97.5059449400695
97.6230426620318
97.6115132990862
97.4378958922142
97.2811113954387
97.1732780018561
97.1302996772168
97.087401329449
97.0313364842067
96.7994151771304
96.7113086695031
96.6724857633459
96.5318922611277
96.5009805962926
96.6007166662854
96.5843505508766
96.4633543364925
96.3602938912705
96.3783199486735
96.4965640475648
96.5447979957245
96.5566266267783
96.5255180305085
96.4586712712537
96.3513355726484
96.3562874775116
96.4181067754704
96.3322938293215
96.4258841863643
96.5816133542471
96.5802416603877
96.4936059681505
96.4326686221937
96.4805672194696
96.5225531020337
96.4389308551275
96.4090930853765
96.4706180256039
96.4862601808692
96.4955998296265
96.4577940410208
96.4294932008335
96.4977209524915
96.5720725709852
96.6193862988463
96.5886721000378
96.6012990187413
96.7683226570082
96.805492587478
96.8459521560355
96.9348290257489
97.0657614437123
97.1494208692483
97.1896797228258
97.2162190242954
97.4502463542915
97.5537141711689
97.3832821490354
97.5916547316587
97.8957199349778
97.8010869631505
97.881839424708
97.848061780177
97.7980750746509
97.961962167793
97.8661272601591
97.8420861242211
97.9511971580175
98.1980594308396
98.1641363343686
97.9957157793792
98.0982559196267
97.8329896837275
97.8973197838133
98.1692930107914
98.14894319892
98.0396114676086
97.9042299506496
97.9585162178707
98.0236508324019
97.9392383960147
97.676965734045
97.2771571908602
97.4440906462336
97.6508505725594
97.5161143597607
97.6369561095719
98.0257551000743
97.9329706326215
97.5696302774234
97.5455183852778
97.6136802632645
97.9999093216202
98.4343606325138
98.3951537055372
98.1340666708593
97.9035719342586
97.8450778044125
97.7259852643263
97.5033929483398
97.5837564486974
97.5821413286685
97.3529222389447
97.414342839418
97.7213852113183
97.8461850327009
97.6026099363966
97.2473360336918
97.2272551167762
97.3735638842453
97.3476072727969
97.4559930040239
97.5174785906063
97.3893464205294
97.3640020006358
97.2645341364361
97.142008125402
97.1253791837622
97.0291121393061
96.9608901151391
97.0666431483778
97.2101023824188
97.2722329508302
97.2490790224774
97.1865016839287
97.08975031135
97.0034948954542
97.0008763978678
97.0710777284477
97.0923026176766
97.0259471107704
97.0338513399969
97.0589549244047
97.0231133383527
97.0864414094526
97.1109305786716
97.0594956494905
96.9354047363888
96.8760706805129
96.9250949796531
96.93581114697
96.9434124038112
96.9652283195831
96.9555981033436
96.9346046775809
96.9131575990704
96.8885121268622
96.9498024591073
97.0032685720731
96.9575874741132
96.9120302209384
96.9019563615183
96.9250845991094
96.9258123063451
96.8662418035042
96.9160550098428
96.9186746782612
96.889656734669
96.9297904197645
96.9496870801961
96.9967625444784
96.9917233230468
96.8926625326077
96.9032610876589
96.9431044941474
96.960751850055
96.9926989454883
96.9683827374384
96.8916454300264
96.8628473488076
96.8616231472023
96.8938732684381
96.9448376180201
96.9549324072916
96.9900303792395
96.9560922169841
96.9459825001563
96.9673455391235
96.928047609894
96.9067722970679
96.916789126758
96.8977574105137
96.8949912103591
96.89239393505
96.8782155552063
96.8830375806641
96.8431015184293
96.7665807564397
96.7454284287222
96.8086738238557
96.8514824363334
96.855435157197
96.8652120804545
96.8373439494752
96.8133344103809
96.7953130001263
96.7702853863931
96.7242757204335
96.6849119649915
96.6743054748825
96.6636901073349
96.6845569199952
96.7405272515232
96.7168586965953
96.5983015890673
96.2277139054332
95.2211625697102
94.099040718084
94.2090206207246
94.9584798458725
95.4881419629871
95.9311083975287
96.1102450851767
96.1769542722493
96.2619871779171
96.3047870970835
96.3650066587415
96.3721931011263
96.304249545961
96.2616510821294
96.2521631586544
96.2314241790247
96.1790027737886
96.2565198288073
96.1953015647664
96.2013483561984
96.1814602733186
96.0359329133724
95.9216794724703
95.8900496347662
95.8424998960917
95.793325278472
95.7665574067222
95.7426870528593
95.7299511135169
95.6267719700982
95.4893418225051
95.3503626025192
95.2404348336321
95.1457082243398
95.0371993944906
95.1207567653139
95.0576435816031
94.9107612470359
94.7756086218677
94.5286686903481
94.324775908414
94.1240671423159
93.93612312625
93.8269623827198
93.7495413394506
93.5583583486928
93.3773683114812
93.1215609091418
92.9145862630846
92.8271429891542
92.6486401041489
92.5276025408271
92.4676462058658
92.3037617572825
92.1092284230255
91.9172605090326
91.7185809622002
91.5525865639606
91.3893999651816
91.1360587788126
91.0289363549201
91.0904623841554
90.9514637131388
90.8028312784336
90.5935314201573
90.3296256823242
90.1288199945484
89.9095373204737
89.6411505342693
89.5404483722219
89.8771651174985
90.1225996256638
90.165701643309
90.1250314780238
90.1630189997371
90.2160304419385
90.3255672177819
90.4942518616948
90.5141547906737
90.499536591419
90.6965824943503
90.8277634879624
90.8671155141032
90.9123030756684
90.9215958735782
90.9682389855024
91.0296681901305
91.1015686089403
91.1700252019844
91.2328440456692
91.2796833550479
91.3167142406585
91.3837097693095
91.4819825118618
91.5410750696771
91.6053505981728
91.664452417274
91.6681527729903
91.6823183683001
91.7519643890859
91.7255802710851
91.7156660873809
91.9267770298062
91.9801723373935
91.9299945357318
91.9550954162268
91.9770440191149
91.9270855142601
91.9445543341508
91.8619316154356
91.7135904463983
91.9927641188523
92.1553036390174
92.1850320462477
92.164639789998
92.058088343537
92.0350032572364
91.9345125692778
91.8510290496282
91.8569246676556
91.8105501133083
91.9744882536925
92.2024508494884
92.1402018570497
91.9987179402084
91.9779134245252
91.9273445011233
91.8371675013637
91.748281255046
91.7219205175852
91.6540630573561
91.7037837492666
91.7171953336906
91.6268361023984
91.591690641546
91.4793209901028
91.3945505927848
91.2720211617041
91.1084972394392
91.2990609621674
91.3733341631807
91.2389499256836
91.0834406224408
90.9252771885247
90.8788611540018
90.9121020718168
90.8077103846946
90.6598380220648
90.6274694659391
90.6299031968354
90.5972053507778
90.4747414383385
90.3173299053765
90.2023181743867
90.0726712219779
89.9517264659563
89.8014949840115
89.6913440199461
89.6854074970381
89.5890209897758
89.4261358601927
89.3014128293251
89.3310315338936
89.2918521616169
89.1200260802502
88.9581558777726
88.9417935362195
88.69353296779
88.1995257217195
87.5342144167978
86.7550754362706
85.9436365825624
85.1972704220967
84.5423924010239
83.927261643037
83.3163496096469
82.7030643639563
82.0827915982661
81.3603971431656
80.9205341549827
80.9575421201143
80.8797590466836
80.4474381463134
80.019577810941
79.5877986419619
79.0958559180426
78.7468187180114
78.4349495689509
77.9926876081737
77.50971177684
77.0225932028626
76.5992099510222
76.1206145653409
75.6497341196684
75.2387517674834
74.7537768640269
74.1898913189987
73.7374483005976
73.2297939614301
72.7490412967669
72.2033843846759
71.5338930871384
70.8077045741176
70.0736376820285
69.2829850869425
68.4513088827466
67.5600112697638
66.7171938243617
65.9505778803353
65.3397800088621
65.1069245000032
65.1420358164636
65.2094142637694
65.4153448973643
65.6150375037748
65.7887771772988
66.1345247715125
66.6080927042417
66.9268159798438
67.1585795304767
67.3680694144601
67.6072185286504
67.8362707858115
68.1207657269637
68.424554756308
68.7077183698172
68.9645286859106
69.1778934013683
69.415473077902
69.8278612613831
70.1943042315683
70.4715808912329
70.6972998946509
70.9566318338301
71.2359765776104
71.5314091138133
71.8092132950002
72.1177120899804
72.3950234373183
72.6842941952929
73.0243890762127
73.3545741054908
73.6264995201783
73.9349318803173
74.2164818313582
74.4643486648261
74.726291050371
74.9980795776491
75.2568820519537
75.5106717382868
75.737561384065
75.9815242330729
76.2393626439918
76.4753393071802
76.6918283840535
76.9171727352899
77.1368671679962
77.364712365983
77.581432807663
77.8117798635787
78.0226808140861
78.2051466081086
78.3763701277531
78.5624035026649
78.7318474709541
78.9014260273702
79.0786548236904
79.2559379480515
79.4338608793656
79.6105304829805
79.7609226320676
79.9277068000508
80.0867749239957
80.2435199785307
80.3929673719842
80.5371339144291
80.6889354915188
80.8399594777596
80.9657003618231
81.10912934548
81.2545983125566
81.3932595472221
81.5229495985673
81.6736106345942
81.8232203151621
81.9351744054313
82.0179861528712
82.1277532407236
82.2560692218434
82.3590271935068
82.4354647926996
82.5165816086933
82.5436785719893
82.5450336740448
82.508772095808
82.4265525000145
82.2886858644387
82.0640603834427
81.7512342649129
81.3643308643492
80.8731902616992
80.2801469012424
79.6191069061092
78.9357871468577
78.2398029273268
77.6203845696762
77.1350713375571
76.8224315657553
76.7585024617191
77.0156990325308
77.5498428443636
78.281322038135
79.0173658793581
79.6331466713774
80.1016010123424
80.4111239509042
80.4990868036097
80.4216773972984
80.2114556868984
79.8690124697906
79.4458754727345
78.9227384211435
78.3135377957207
77.7041136421544
77.0818935052042
76.4789858318013
75.9285893459987
75.4392264835923
74.9431859233299
74.4416534860462
73.9180967605944
73.3926957512717
72.8453784469595
72.2788919690084
71.6954400712365
71.1144308557598
70.5730138007329
70.2102926203277
70.0958102284358
70.1490148255683
70.1582489868
69.9444583397156
69.3827047038432
68.6384030762884
68.0405105299712
67.8552106977785
68.0182711065788
68.4254805397015
68.8645320177139
69.242075821673
69.5029557780025
69.6460543325778
69.6412749976973
69.5226522425724
69.275115190642
68.9006516164567
68.4505678153409
67.9846007890241
67.5381787268373
67.1537554221164
66.8780526802354
66.7907367204681
66.9067389073222
67.2126750413307
67.6414315157135
68.1703742360732
68.7431672474025
69.3793802625711
70.0796443091945
70.8089691361764
71.5022722373036
72.2235977490399
72.9699310826268
73.6453769304403
74.2899928690603
74.952313335002
75.5628915627885
76.1359309399899
76.6599216392022
77.1613500510319
77.6588645609956
78.160664234799
78.57398254333
78.8405323691948
79.150557866162
79.614693720709
80.0420655329481
80.428622367349
80.8185334393914
81.1987803952916
81.5185220925544
81.8254884447989
82.1368014864771
82.4372848389252
82.6923116791872
82.9314750563275
83.172564707559
83.420641378605
83.6752829914673
83.9198933104354
84.1355059235755
84.3411101130374
84.5150369020505
84.7014167861882
84.9090530168441
85.0775082877508
85.2220058599069
85.3254862179952
85.3421678270047
85.3441244460767
85.4378876294029
85.6264279695934
85.8018582327816
85.9639184656576
86.1214861607413
86.2680849907159
86.4173388538048
86.5407815111723
86.6215770389649
86.6383077776815
86.5669304527818
86.5870391640702
86.7695448552269
87.014916748341
87.2208782663251
87.3774338673063
87.5328529316268
87.6524651118068
87.7590953891098
87.8662092148675
87.9365655027575
88.0090562322523
88.0877697924793
88.170248296007
88.2762749249346
88.3472087084576
88.3823999525945
88.4305745882157
88.485689141831
88.5748842975126
88.6587187297387
88.6977862972505
88.7431282357025
88.7944919473579
88.8238533900406
88.889289550355
88.9718633832848
89.00586066275
89.0365059573436
89.1095213109446
89.1419713769287
89.1710564255467
89.2433409620494
89.2861536389605
89.3067200877949
89.3469537141823
89.394645091275
89.4254681451884
89.4384532129184
89.4772755071099
89.5145407621334
89.5329733966593
89.5745757191672
89.6398079452572
89.6785626535023
89.6869805418836
89.6848842161737
89.6836965045685
89.710584074076
89.7310986986545
89.7074632928643
89.7039565229769
89.6890933041349
89.6764114493734
89.6258201162016
89.5703813183642
89.4930220486882
89.4154232837682
89.3080642409303
89.2001256811243
89.0346985605328
88.8443339426326
88.7344814892128
88.6898017013803
88.597161116414
88.489601206951
88.4264068406518
88.4162921458699
88.39376373931
88.4086477559951
88.4432441574616
88.4542742189067
88.528126217234
88.6569282779651
88.7439428247521
88.8311616960203
88.8621088197285
88.8539437024221
88.8065571845745
88.6502646251189
88.3755500191588
87.8563351054833
86.2715886618723
82.4882276123043
77.2968241222479
74.3598159413695
75.6829729191051
79.2009988223275
82.3329440092267
84.3975838924047
85.5933659967128
86.1498932643927
86.3966578465662
86.7264996868903
87.015160519985
87.1704820790137
87.2553846909259
87.2782368227657
87.227723023893
87.1700550584002
87.1878448683088
87.154398949437
87.0564913452398
86.9701176553769
86.872964227828
86.7911677541178
86.7297773215502
86.5862976673727
86.3922533219453
86.2974248184853
86.2128243048978
86.042479808495
85.8270023917049
85.6185278438257
85.4044986034711
85.1818979525043
84.9185551658824
84.5972563595434
84.2624611800213
84.0013908859945
83.7168362919993
83.4597213687512
83.2461712705563
83.1168155932551
83.0456423088782
82.9762307252104
82.914438331909
82.9765839670732
83.0474271154933
83.0851398831157
83.1524084257956
83.258493568984
83.3429722667833
83.4329048513855
83.5030998405
83.5493095375834
83.5540770035
83.6324243008679
83.6742614352951
83.6740375793813
83.6966156085979
83.7416421322503
83.7051845499345
83.5853568330726
83.5705404662469
83.6351579744796
83.6154094999264
83.5892171847407
83.5267416143414
83.4564088585739
83.4545863316465
83.4872937597036
83.4146409528562
83.3214942204161
83.2801709226185
83.3228795490656
83.3601186478917
83.3873268296954
83.3801934257053
83.3445526360069
83.3400667908843
83.3575911813693
83.3746955492306
83.3780150239976
83.348295730195
83.3081864929319
83.3301839584899
83.2730777901098
83.0302722912669
83.173942041714
82.9321790171231
82.0575863904665
80.5724080652573
78.4246451807045
76.3530632594164
75.8422082974721
77.1455232036754
78.9205024375231
79.9741009727878
