1798
3999.43349933624
650.420452594757
1
128
4
97.0518277608378
97.2194500230623
97.0439804374946
97.2374573368113
97.4116458073822
97.3596114810221
97.0958660788065
96.912131562846
97.1461773333355
97.2142483462812
97.1560169022253
97.226586001072
97.1545539969186
97.0180218892532
96.9431474679288
97.0521393561378
97.0614947494191
97.1662199820527
97.3228733747519
97.1243120529118
96.8986896278612
97.0120675088397
96.9776739934939
96.8578729832097
97.0309743881696
97.1008492879155
96.9548765993246
96.9643188014696
96.976129300974
97.0075007835562
97.1068933595441
97.0524096298409
97.1278840899427
97.0913890407206
97.0352553350306
97.1933613187284
97.2230521572069
97.0624074469005
96.9660601280439
97.0045845721761
96.9614205623209
96.9507901869762
97.0470638752721
97.061863965379
97.0407786794949
97.0572443098581
97.0687328833808
97.1658553549857
97.2113141642989
97.1610221692689
97.0562050427743
97.0503824429529
97.0589338661969
96.9902226066155
96.9093727512107
96.9161729854157
96.9545654730917
97.0325864175722
97.1002414435326
97.0643530835138
97.0498231747549
97.0898988679961
97.024136136916
97.0319933745636
96.9615581084653
96.9452023371528
97.0777386738043
97.1569936448696
97.0802383314465
97.037713779302
96.965460202236
97.0397415903295
97.1029316045681
97.0188239505356
96.9311769782045
96.9528294230571
97.0232118217131
97.1295141130827
97.0153312908135
96.8949793320789
96.9574314971333
96.9835654939553
97.015072945239
97.1392579428108
97.0699245110526
96.8728853169411
96.9221082996371
97.0523885472029
97.0084044041508
97.0228384839924
97.0457302983212
96.9614830302998
97.0230582225401
97.146051220361
97.176364547545
97.156139528634
97.0799164867939
97.1316951375127
97.1778874717497
97.1347318945085
97.1316581224531
97.1711686567529
97.2116647968732
97.1794821185951
96.967191679591
97.0264504831157
97.1267377048647
96.9711563512285
96.9904908111527
97.1008982349867
97.0887198680428
97.1488581543076
97.1957897687037
97.131549250786
97.1579729231481
97.1812106657244
97.0734063934568
97.1614882460451
97.2590165791327
97.2163662818454
97.1600709456445
97.1318089041413
97.1109395486159
97.0646320311319
97.0341073010757
97.1119478094442
97.1505681103509
97.1538089159633
97.1919445604424
97.2170782339601
97.1853923473632
97.0664252571653
97.0651762085427
97.2137135210926
97.0175436863059
96.8581343698015
97.0049343116737
97.1149854488291
97.0858836610268
97.0543293573267
97.0483359181146
97.0653639543085
96.967824214714
97.0348385367164
96.981385856302
96.8863397552036
96.9707757732174
97.1684584486325
97.1210891616986
96.9666060210565
96.9737023496109
97.0975198611021
97.1340321374386
97.1564350995407
97.1350568508112
97.0905063494417
97.0663468496992
97.1070445869291
97.1639093765728
97.2151562940585
97.1903787384308
97.1407131145963
97.1346160855892
97.2250165066057
97.2362825095363
97.0938750659325
96.8914045612579
96.9202918994549
97.0973963850369
97.2883576092656
97.3407665168466
97.2604307927902
97.1015551254592
97.1777010515617
97.1421394856365
96.9728737412028
96.942733778495
96.8437418836178
96.8220368906801
97.0271887068653
97.0830638075369
97.1226604877133
97.1974567113782
97.1914949788023
97.061000424689
97.075298860072
97.2151518419764
97.1222843604562
96.9019305612493
96.820705986048
96.8187414444365
96.920996162978
96.9502148740162
96.9770240782884
97.0143369956705
96.9874489223235
96.8280506539816
96.7256123212742
96.746281291849
96.6897990149702
96.6547346738934
96.7372489627237
96.7275708674243
96.7026317901075
96.6191914424393
96.6048534542939
96.6798667814776
96.6323176259786
96.4156919290859
96.3404401545605
96.3659397748568
96.4695145398981
96.4632666595801
96.370136355406
96.4514682818939
96.5359350902464
96.4270183497893
96.3279677813898
96.291861378722
96.3000632381255
96.2898149662608
96.2129906560477
96.1549857375422
96.1312666208141
96.0642500457951
96.0803454888801
96.1574183920653
96.185207300096
96.1245733497892
96.1038619381119
95.9756612941417
95.9681502666085
95.908233838967
95.808343663258
95.8595451238519
95.8405905864869
95.8313346029247
95.911599233007
95.8988021996253
95.8713668659928
95.756294970748
95.7348979656034
95.7083751487901
95.6767680256687
95.6451572327568
95.6149277627251
95.5864825422005
95.5166631026755
95.514929039521
95.5731041248638
95.4890427151458
95.4136926172123
95.2943151907096
95.2724262977946
95.2924344536835
95.2705191236033
95.2123090647343
95.2497537938175
95.3068905593505
95.2862986479904
95.1678608398441
95.0979165314549
95.099440115013
95.1062022520459
95.0928593256169
95.1103311537023
94.9874672722275
94.8942775079747
94.9269953014412
95.0452285249726
95.0105514589045
94.8139923946378
94.8007071505416
94.859860272636
94.6902950488354
94.6013865828054
94.7239123292631
94.7278852221319
94.6642923312289
94.6082299879096
94.4987279846353
94.4912070104416
94.5553302602305
94.5207133708873
94.4273094179957
94.3786921868553
94.3665532143588
94.3791110660098
94.3446546398282
94.2884286311452
94.2515064523211
94.3079942103469
94.2892912515927
94.3069669813511
94.3405554027438
94.297232262373
94.2357361001865
94.2042176943042
94.2191399888428
94.1701392243066
94.0624682713079
94.0588301328531
93.9527197503449
93.8720941020406
93.9293756671167
94.0083628575703
93.9555295372186
93.9160909598637
93.9104921021254
93.8360899665763
93.7690338135452
93.808767913488
93.7601046172932
93.641128869868
93.5741059478271
93.672776584795
93.7774088587235
93.7519717827366
93.6748999661209
93.5675216653047
93.4660846442516
93.4692975980085
93.4949934943532
93.5803047186681
93.583877220051
93.5508007666217
93.4541672093137
93.3484843622359
93.3413514977992
93.3480800333198
93.2975025662742
93.2700442124054
93.2741405616142
93.2723482377311
93.2161644191234
93.2323807516688
93.2058495238316
93.2020338611502
93.2374151007454
93.2473264352199
93.1568020197399
93.1396515916352
93.2282099153855
93.2401557202413
93.1855705249555
93.1850709067065
93.1679368771043
93.0822021680968
93.0314200164968
93.0648491100567
93.0483208999151
93.0279615404847
92.9783072581484
92.9365783850552
93.001139056916
93.0457463099106
92.9231366538899
92.8509441512391
92.8757138278589
92.9402117686903
92.8946027453578
92.8461811620275
92.7732782804982
92.7061469677902
92.7715378282112
92.8732535795869
92.8831626907474
92.9012069623687
92.8311033555734
92.7300794671268
92.7234732031555
92.7814401707102
92.8105665491296
92.7992622603234
92.7840991565069
92.734521050473
92.6721479773406
92.7405305649974
92.7958684738001
92.7329185576979
92.6327206529354
92.618483200472
92.6266882715021
92.6323546597626
92.6287551105227
92.6348600339741
92.6217994898432
92.6325307013885
92.633639220186
92.6718851143345
92.6583403004168
92.6168736852959
92.6593668307344
92.7208671887925
92.6721802607779
92.6437222481562
92.6646612947203
92.6639295287578
92.7029374351668
92.7516596980131
92.7593949291313
92.779551346702
92.7567886732405
92.7189514295742
92.6991513902951
92.7555902441317
92.8221318390452
92.7991108428474
92.7521292728083
92.8040078733677
92.8736712944672
92.9494547825992
92.9171548940765
92.834476022165
92.7271379402419
92.7537996791241
92.8086521642215
92.7464721869855
92.7096434066664
92.8149330687234
92.8829155172787
92.8552624439175
92.836124266396
92.8615598840925
92.8702971098544
92.8976841864118
92.9106131352465
92.9304991091393
92.977971632702
92.9923610160507
92.9723540771783
93.003678336692
92.9788952241494
92.9426584971249
92.9701687437219
93.0286628691637
93.0536927777251
93.0851567688442
93.0685158685765
93.0248199408662
92.9303555965957
93.0023807131139
93.0747013144242
93.0732383537486
93.0823931368864
93.0631914971034
93.1439242504721
93.2545874699207
93.1968843405993
93.0944932065395
93.0642854139012
93.1816148305216
93.2674832761891
93.2979291090857
93.2760283652408
93.205469682105
93.1716795457424
93.2028610769611
93.2278851902646
93.3109161319486
93.4202415899514
93.4291620536429
93.3532990634786
93.354664693574
93.3384109052585
93.3075983026898
93.3103828632657
93.3487872912813
93.4399331733035
93.4971511497723
93.4845825643556
93.5111443292289
93.5243396574243
93.5704408438158
93.5653929491788
93.508383311503
93.4966809685244
93.4707351964074
93.4468314668949
93.5119398099489
93.5052507438005
93.4787941076016
93.5527243416123
93.6133398500964
93.6171778040484
93.6341198720555
93.6392352873581
93.6726261556813
93.6326829463584
93.6000429280283
93.6277162254294
93.6499389546547
93.6438805992122
93.7168747133183
93.7852751587838
93.7877074874743
93.7292354021238
93.7443820831248
93.801428218486
93.7534144254528
93.7288902960276
93.8570418774588
93.8743418773618
93.8039592062998
93.7827885721641
93.8168725707503
93.8451219576156
93.8790878038643
93.9067767373819
93.9867761344543
94.0100227548317
93.9190121940212
93.8793913195493
93.9622485272349
93.9689285981602
93.9804463040602
94.0329520557594
94.0528208804005
94.0451750968303
94.033290850296
93.9973828248934
93.9898958192001
93.9972768151207
94.0763422386333
94.1167240465801
94.0938315238444
94.06035660084
94.0585425496667
94.1086569976107
94.2001991565084
94.2009203051786
94.1305597647344
94.0985309169422
94.1643930944291
94.2146308226024
94.1796146372255
94.1248223249461
94.1566890798692
94.1454338165033
94.1418064992766
94.1651239576711
94.1462966004356
94.0991507301016
94.0827005170148
94.0471338154895
94.0554637216262
94.0763255910298
94.0548144925992
94.0480685233458
94.0683558278688
94.0454913130867
94.0388388701919
94.0299078800273
93.9941557506978
93.9451696913085
93.9099619457672
93.8369861027449
93.8468758245186
93.9007946358678
93.9164569311517
93.8720026208882
93.8216713090065
93.8377057450834
93.8966543464809
93.8950079478775
93.8791412042389
93.9010155117127
93.9509583934939
93.9212296761061
93.8685904319136
93.8223025396893
93.8147904273794
93.8222648965245
93.8266152835901
93.7951998270815
93.8153180210288
93.8478505580137
93.836437080374
93.8295207008438
93.8628816055157
93.9155527571906
93.9682693399998
93.9540838557618
93.9679384166539
93.998792482852
93.9877896330052
93.9445814564485
93.99767400695
94.105496860349
94.140907677718
94.0910094803768
94.0594825823353
94.0732122533469
94.1469663837528
94.2145753816154
94.2174420735846
94.1907968884126
94.2211123706252
94.2253364121199
94.2477196854061
94.2178741512532
94.1569152392041
94.1967482465417
94.2786054025491
94.3095737449646
94.3455555198685
94.3552961628572
94.3506102873428
94.3364791804193
94.311771884744
94.3174417103903
94.3824362393398
94.401872751112
94.3983675589375
94.4333319451167
94.4716946694707
94.5137040370906
94.5708612368243
94.583500636134
94.5751674063187
94.5233636292338
94.5854410662117
94.688054870743
94.7075345331317
94.7178376278441
94.7253164520334
94.7335922209531
94.7936519127886
94.8315684471697
94.8553045724792
94.8496035460052
94.8524764782535
94.8799513203822
94.9068799784186
94.8771181602056
94.8649386652342
94.8860447466506
94.964179455125
95.0103951413138
95.0011640048639
95.0000502802636
95.013270879502
94.994322564477
94.9813731790185
95.0098160884317
95.0544029395391
95.0587472446328
95.0583166813985
95.0804374609155
95.1416293533345
95.1939346408891
95.1867970478264
95.1428149575026
95.1358902714795
95.1329306084921
95.1296609831434
95.0979221932851
95.1130204446016
95.1604149310978
95.1600003332119
95.1327303544
95.1660718430691
95.210627925268
95.2383790881461
95.223653053737
95.1954427866438
95.1939671967905
95.2069102408816
95.1987101743951
95.1980051913823
95.2106795229945
95.262265467834
95.3185991044713
95.3011075624384
95.2411884699012
95.2431348819875
95.2689450476318
95.2828941583169
95.2589766641683
95.2489287928978
95.2758055427698
95.3093138407631
95.2993134366185
95.3215019652398
95.3470759553816
95.3679149200176
95.3350251814146
95.2990920219814
95.3185640102944
95.3345642422763
95.308858814013
95.295253419058
95.2814573002226
95.2438209216112
95.2245100900551
95.2586712549785
95.3124200504478
95.3723669764574
95.3973744840234
95.4027416841786
95.359652828728
95.3018500952323
95.2579026161966
95.2238903710998
95.2240394691319
95.2390829411493
95.2227741628273
95.2225988703519
95.2391989837096
95.2509140739728
95.2401687209568
95.2754890355413
95.3166330644129
95.3357821463864
95.3224216623077
95.2686930058373
95.2143138339547
95.2178437105669
95.2241140423992
95.2311453754502
95.2200192994629
95.1982979768648
95.2034074346292
95.1814855926563
95.1331111728414
95.1778066938817
95.2226526387579
95.2247545927118
95.2134783727212
95.1817972154242
95.1672747589986
95.1754079392307
95.1683222033607
95.2053805499735
95.2705254174773
95.2764820751266
95.1695825638391
95.0834325928896
95.1175291745232
95.1949486603819
95.2081265631824
95.2548885523699
95.310799686223
95.323199513247
95.2952660053125
95.2834405310071
95.2586691537164
95.2565884734342
95.2422645736929
95.2427610109737
95.272815397761
95.3141726003796
95.3860525452235
95.4163057231698
95.3172084824818
95.3044609865995
95.4478960251737
95.4836575373757
95.3597753844266
95.3263286372045
95.3512133607053
95.3720595781112
95.3843929767442
95.3719577874742
95.3685797929513
95.3852742981305
95.384759324839
95.4091271451639
95.3938666191231
95.4250031397539
95.452772668209
95.4771555874344
95.5361037188477
95.546247369027
95.4833052601943
95.4069327303274
95.3774896186605
95.4257400517716
95.4401052007378
95.4690389559384
95.4955142532709
95.4839542481155
95.4502214967129
95.420091069674
95.3564033999811
95.3424924355388
95.4094692941514
95.4550749471576
95.4122492105032
95.4222781370078
95.4472211687816
95.4216475550595
95.3696726123328
95.4094474269326
95.4895734967424
95.4572641285092
95.4487350623687
95.4645721857808
95.4375622730317
95.4631310108213
95.4696234570637
95.4988775911687
95.5001811664253
95.472980785992
95.490501657048
95.5547304796909
95.5570287119901
95.5102749152767
95.5067515330559
95.5160629914352
95.4675830807164
95.4830675233268
95.5079137916663
95.5144082542017
95.4771272392799
95.4481589375625
95.4772593473459
95.5257497330055
95.5541816825567
95.5454775538707
95.5242735683224
95.5524364595594
95.5371163696598
95.4869326424465
95.4466485293736
95.4270826419833
95.467839205795
95.5562999500561
95.5895128485667
95.5958643674053
95.5822423741215
95.5392028250868
95.5356659224189
95.6067214480015
95.6249828032779
95.5197916016236
95.4790717320347
95.5811871846429
95.606218253527
95.5831254137511
95.6637489078632
95.7447136007322
95.6668278451193
95.5968916689238
95.5869852440849
95.6264272167639
95.69149723349
95.654926754343
95.5965413471539
95.649241396613
95.6576836558507
95.6181891040375
95.6498144488947
95.6819480975783
95.6487519162166
95.632220328624
95.6198417776285
95.6504415373934
95.7002490737303
95.7241014508804
95.6902096688577
95.6710248305767
95.6535982657339
95.6645792077522
95.6899950138343
95.706240162463
95.7000090009866
95.6907023290635
95.6891603196534
95.6954286932344
95.7106266054227
95.749277072318
95.7769015049111
95.8239642464326
95.9145782069348
95.9868774832882
95.9389613579902
95.8817012679315
95.9067316272467
95.9081170347591
95.8808437567765
95.8712979368547
95.8738592268946
95.895139863258
95.8497693037267
95.8191083735633
95.8119440922066
95.845139662092
95.8577824911345
95.8427857102712
95.8152544181946
95.7961532143959
95.7936022388625
95.7772040969517
95.7988684331875
95.8573895780434
95.8671529285573
95.8575856265318
95.883121357291
95.8396689379261
95.7752041564214
95.7955552462039
95.8552828731596
95.9157617425916
95.8678318917514
95.8474020970667
95.8904183171492
95.9158006042098
95.9228491236634
95.9275512951116
95.909758005646
95.8968364980223
95.9461862027839
95.9989894455733
96.0256588462683
96.125307489265
96.1914633154526
96.1231032989538
96.0598036005158
96.1437453269387
96.2551279344915
96.2842885558733
96.2525373158022
96.2578989861594
96.3921132690697
96.5390722830518
96.4658022294453
96.4771208651707
96.663497023298
96.6492161329103
96.5799924525188
96.6507989671836
96.7305084196533
96.78203954873
96.7338558073202
96.7336587433854
96.8459721639522
96.8739079665582
96.7921806111685
96.8780538140807
97.0358392827416
97.1658001673515
97.2128360749542
97.1804441882075
97.1628474312162
97.1975004611711
97.1477982096786
97.1408647560499
97.2882213971426
97.392342965668
97.2547437058399
97.1730878505186
97.273644467289
97.4618530373378
97.5318990142171
97.435020654619
97.2609125127414
97.4318617505755
97.7482976803079
97.7518539794477
97.6623513079979
97.8032207281003
97.9212351179389
97.7953943143544
97.5960939235604
97.7080568892568
97.9356984567169
98.0141435010777
98.014495260734
98.0594612202615
98.0568015406367
98.0519639044113
97.9240476717954
98.0935160785745
98.428111354489
98.1613864968957
97.9358923595342
98.1519533098993
98.3179419936228
98.4836058181149
98.5156901237955
98.6322200568228
98.6352454248507
98.7183720053809
99.3509038007818
99.3931454205152
98.7951355272574
98.9209729798301
99.1323214244574
98.8384602915698
98.5698633522095
98.7743431146575
98.7974131053339
98.3626866896456
97.9053973858172
97.8554220612127
98.1131443060159
98.1183515359937
97.8338293084372
97.6696578096842
97.574559918304
97.5354769881036
97.5063728740848
97.4119174732007
97.2925048706675
97.2106366111513
97.145695324289
97.2888157634279
97.3981711658881
97.2649938979164
97.1458167483252
97.107561033553
97.0720426657199
97.0048712971053
97.0777873345258
97.1914675130289
97.1571987487488
97.1259069055141
97.1601359255783
97.2009784729301
97.1923221058595
97.2668020869935
97.2273573163085
97.2054246770639
97.2895140939726
97.2831786286592
97.0995760088773
96.9590956023128
97.0496570729701
97.2321819125522
97.1944797395494
97.1346910057498
97.168959714342
97.0624527008327
97.0186250852983
97.3822107235615
97.584630445868
97.4625018933298
97.4158210956515
97.4465487478765
97.3766904332209
97.2419794369965
97.3114587935584
97.5328478078156
97.7429744813682
97.72192707685
97.5999180329098
97.9650264689067
98.3252749074283
98.1508144280925
98.0174471242762
98.1233293821118
98.2216462042993
98.4914724398031
98.5576410121293
98.6757126496135
98.9405698349439
99.069152476484
98.9664509649425
98.669246725838
98.3871874577381
98.3071665539324
98.5390909897921
98.5317350992414
98.2981993475037
98.2714980448805
98.3270104064788
98.3627177843424
98.4712141207282
98.7458197171917
98.4713074918204
97.9086157867274
97.8086795098665
97.8367353826362
97.9014232998518
98.0070467924075
97.899685870657
97.7430546169724
97.6961588434719
97.8892043568406
98.0797615064892
97.9720143865671
97.9929699206288
98.284468451459
98.415554768409
98.4984481943969
98.3429541953993
98.2089713762504
98.2017184112544
98.2253144722435
98.2965391300388
98.1692503442917
97.7834782489752
97.6835877892583
97.6708186493017
97.4461605630648
97.2392537096348
97.4177846205882
97.3851628551088
97.2214641995517
97.1989407324306
97.1606422794857
97.050165828985
96.9756394206133
96.9069780167761
96.8363426736211
96.7651230706979
96.7780998035797
96.6568909008226
96.5931922307816
96.6225015292893
96.5329375153787
96.4518850391624
96.4698982755733
96.3863741344571
96.3589355305336
96.4270556031792
96.4465480898378
96.459079620622
96.3161698140579
96.0684203358817
96.0433976729058
96.1622368131056
96.1759249512441
96.1489048881756
96.1354185058717
96.1497987522056
96.1487338186923
96.1332280264845
96.1851609091072
96.2296422324751
96.1196505432404
95.9587727865172
95.969889154688
95.9990704991581
96.0044451113403
95.9824222131038
95.9718199693494
95.9763856798381
96.04920134906
96.0948844996273
96.0910690505266
96.026957057864
95.952671694617
95.933159488973
95.9629621522249
96.0271803115942
95.9967717728878
95.8650872407669
95.8618449367379
95.9118322518123
95.9568908934299
95.9133696088393
95.8858146720341
95.8011931199557
95.7904659009606
95.726411207223
95.7267283581092
95.8250091623095
95.9087732649855
95.9078111276484
95.8370664829306
95.8044783068983
95.7424725966855
95.5509204820796
95.5792591633668
95.6505514188359
95.7099229587669
95.8070836302228
95.7826182558773
95.7398129490186
95.6966511149856
95.6782746181168
95.6532474840595
95.6049584065278
95.5935625375355
95.5747013051885
95.5866746820069
95.55609793199
95.484364203574
95.4751171968631
95.4958318197003
95.4706506771659
95.4402935674564
95.3395996721168
95.3678551189805
95.5073283531718
95.4965532260676
95.4252892767911
95.4250601598771
95.3839500606256
95.2928982124049
95.3173387176891
95.2759724616144
95.2145216620409
95.0014722883927
95.0856242359181
95.1192431743849
95.0603082589411
95.0263276463765
94.9174751087292
94.848428181
94.8855462975265
94.7842804533686
94.6924583407894
94.6280933816424
94.4051814432297
94.2070725141262
94.0874672482932
94.0095058710639
93.8039840964021
93.6154276524521
93.4826008139077
93.3050602193853
93.2466757916157
92.9403565000441
92.8584144104114
93.0164906041352
92.9792730735283
92.9885802769844
92.9579649283394
92.8818148167685
92.8412522003159
92.7905915822424
92.548136375507
92.659737840725
92.8170613279511
92.8619157945016
92.7511266216217
92.60452054097
92.4548428307897
92.2819140222893
92.2382999483398
91.9711419466357
91.6665984207464
91.7680427980672
91.4966820597951
91.5587200504834
91.4828819129144
91.2460334731563
91.0412115011153
90.9024817779877
90.4485249620394
90.4681332042998
90.5210081220897
90.283181141439
90.0872646865379
89.7673554693576
89.6592373539407
89.4751809408617
89.2286774991609
89.2088693003589
89.1933950594693
88.9496560946953
88.7220650784706
88.7519503127877
88.6958998715279
88.5102800159155
88.1157923466958
87.8152549013134
88.4458297653164
88.516606348242
88.1627114452757
88.2012135744193
88.422372993094
88.3998004829365
88.2561239366123
88.0799481114206
87.8406233302362
88.0726172427883
88.3026649938211
88.1898784454232
88.0070903497034
87.9538725901369
87.9239290490963
87.819942706677
87.9295019403347
87.9307122954035
87.7404574808537
87.7976015662267
88.0805295496381
88.0763248514592
88.0312052879928
88.0186883757582
88.0787747459342
88.1013230258403
88.1162490713032
88.1208182360675
88.1267433106075
88.0945623447215
88.101385522151
88.1561593971561
88.1628413324712
88.1385777599348
88.1340822264165
88.1188000376471
88.1257132795435
88.1207037956293
88.0417278133514
87.9121049238208
87.6990530620009
87.9379634322307
88.153936058824
87.9621396318006
87.8554109049436
88.1225268736441
88.140450731934
88.1441369828578
88.0083145400759
87.4369576446001
87.8199372816735
88.558804581187
88.6039787284833
88.7243537829425
88.730263668111
88.8175521234915
88.8793654794132
88.7483388271386
88.7485601532184
88.6707962982641
88.8275148455145
89.2747367771645
89.3310588925916
89.018985654919
89.0928235464149
89.1567991900289
89.0366352287671
88.9262119503224
88.918108112312
88.7293699422527
88.6390881443942
88.7639963481292
88.5522809246552
88.5807925974418
88.5354199922225
88.3047651934595
88.0509218452806
87.6108245178047
87.6758123136598
88.0292121660803
87.8955262322785
87.5348206131415
87.2214418176332
87.054259071584
87.0423402429121
86.9048950011167
86.4847443651234
86.2348018895828
86.2327884716152
86.1875926939834
86.0026385391188
85.7333652568698
85.5784679923316
85.3611812116015
85.1053128242783
84.9183255398202
84.7778467747672
84.9697738318537
84.9172576110372
84.6220283694987
84.3605088150389
84.4259752422762
84.3250896203859
83.9314369191148
83.5646098762156
83.9085433645808
84.11346394807
83.9620770914296
83.815645127354
83.7157504817894
83.8471025916234
83.907723880849
83.8660478957514
83.8089419368846
83.6670183948
83.4105056777379
83.6728751502177
83.8040155639519
83.6333741802299
83.4975539469731
83.5152403673601
83.3921412569068
83.1489032439349
83.0462500743929
82.7230990209835
82.499379209388
82.5515082038899
82.3611607582501
82.0406476414444
81.7348667189369
81.5282057847712
81.2508861591205
80.9514615823867
80.7571730179389
80.5214984824031
80.1362227734576
80.0114991934
79.9097032451412
79.8935527239366
80.0015367507148
79.9348620846486
79.7558218463427
79.7656388950168
79.9427242841447
79.9540575291246
79.9196938728872
79.8797627807858
79.8600719999951
79.8070066847002
79.8686177562125
80.0529697901689
80.1200089748152
80.1910044565069
80.2651499349327
80.2263359858244
80.27966543693
80.539372388898
80.6906792794629
80.7310049069842
80.7838092217403
80.9172088163962
81.035716554369
81.1320395549388
81.2610117444676
81.3951418663337
81.4902873136838
81.5136885044779
81.5092121106744
81.6545027677035
81.8122282224375
81.9204295108124
81.9659687286393
82.0085232681772
82.0737119381585
82.1544529990145
82.2364542071414
82.3095703716534
82.3359167041111
82.3750946369874
82.4599714818955
82.5665595487196
82.6414875390654
82.7186408783703
82.8210620508315
82.9376843558434
83.036145365214
83.1345276945762
83.2401543256628
83.3393751379461
83.4284042475844
83.5395566410663
83.6711189354493
83.7833449363306
83.8821791646375
84.0091848884668
84.1029543220781
84.2106108164371
84.3198796804288
84.4148694241292
84.5220028433586
84.6544522486225
84.7650075096945
84.8625800502445
84.9185458487826
84.9882188944065
85.1163985153396
85.2289609838175
85.2987530457068
85.3765395296119
85.4410300420236
85.5078832796823
85.572909128363
85.6372952302726
85.6919413080944
85.7570381715657
85.8412053717285
85.8857735912636
85.909913309305
85.958579767884
85.998793474854
86.0182904447353
86.0400835457769
86.0805689832383
86.1327848619156
86.1729725150556
86.1889614221293
86.2265823490209
86.2710789225386
86.2818214765841
86.3003728955048
86.3164911377885
86.3014100064157
86.2800155322524
86.269007110862
86.2763197977622
86.2775496567874
86.2622805189765
86.2288631393144
86.1835462972876
86.0930957044384
86.0108677028124
85.949047908425
85.8727247673728
85.7698363875332
85.6605247973654
85.5253540917527
85.3900187077357
85.2728589641391
85.1644559092883
85.0241660556904
84.8745353056331
84.7107312645277
84.5569827973751
84.4427572735619
84.3609512383618
84.2865378902736
84.2716073748338
84.3134446464611
84.3890850550395
84.4758539990711
84.5783802475239
84.692953477605
84.7896126297267
84.8468161743879
84.8668721887599
84.8528727500967
84.8055887967207
84.7383074491615
84.6818644941425
84.5684848412037
84.4672819053678
84.3708491591961
84.2237391897761
84.0419952153958
83.8563254618669
83.6527680324043
83.4500424862003
83.2558902007162
83.0307943031651
82.7861974484406
82.5663570757219
82.3665852404227
82.1540930301434
81.912359319397
81.6779074838245
81.4772470135704
81.2931605656738
81.1037218490511
80.9651369738577
80.8482355915044
80.7267667277586
80.6071936594512
80.5240724856237
80.469332451395
80.3964398198839
80.3194948290596
80.309491272676
80.3702612123807
80.4790667917224
80.6566023390711
80.9221965408128
81.1519537936613
81.3654370184621
81.5683063879232
81.7403982967878
81.8798280849061
81.9977042130965
82.0758050641469
82.152144683493
82.2218382214677
82.2991179892109
82.3788616059874
82.4463452464374
82.4461192040049
82.452663892634
82.4968625179221
82.5076996990001
82.4890235428753
82.4386422794831
82.3899352351468
82.3488692787741
82.2480263328536
82.1405123095782
82.0307800889833
81.9614076740093
81.9716321635084
82.1075029224491
82.291534663377
82.4519021220682
82.5611851368096
82.6083482176387
82.5656287471884
82.536281681675
82.5819699457162
82.637985419932
82.6731903747631
82.7039066529932
82.7103180652233
82.7173352415842
82.7435128644048
82.732950188892
82.691831033325
82.7062017703461
82.7410206878905
82.7630583969896
82.796398915235
82.8310609421574
82.8525740313079
82.9130198128097
82.9740229921757
83.0136765272487
83.0550008839212
83.0746183791022
83.0074188843265
82.8573836625493
82.8519508444479
83.0735664814939
83.3245281812882
83.547407639658
83.747011831027
83.9158584040734
84.0606909790691
84.2031363450293
84.312399107309
84.4366519708177
84.5702349043624
84.6961175534802
84.822715287529
84.9535592908321
85.1008134532436
85.2289523726916
85.3441496178987
85.4489671943065
85.5337922288588
85.6380313938211
85.7307799413974
85.8184603392241
85.9079055106125
85.9833424861226
86.069656718585
86.1647765910813
86.2001315900148
86.2835938211731
86.3865937392461
86.4586215110965
86.51721189655
86.5681785111165
86.6315853927329
86.7064014455091
86.7889409063908
86.8819956497607
86.9257823044596
86.9656158312154
87.0366502580754
87.1055133498986
87.143837870394
87.2250018352208
87.2684452534662
87.269167904877
87.323467913472
87.4104020492652
87.4466570480337
87.4614481856827
87.4870382213108
87.5420029841618
87.6046736973818
87.6363266178996
87.6209251345652
87.581599380612
87.4796796604704
87.3406532670197
87.2110543577282
87.0400676416094
86.7351765204772
86.4387679282855
86.2623739557246
86.1639777544638
86.1040776576456
86.0913478304726
86.0943391178781
86.1008007763375
86.1132547059601
86.212362695205
86.3465338770379
86.4830476088773
86.5865461139177
86.6027290268421
86.4576121848962
86.1195957959116
85.7288464483001
85.4071687999857
85.0874883650657
84.6553300257854
84.1265939342504
83.5843845059474
82.976160854039
82.2895608222403
81.5151984351159
80.9111818159489
80.7169902079238
81.0669229298173
81.9390730580383
82.9711371815935
83.8568116023283
84.5107229662086
84.989932555043
85.3638918227713
85.6174994988408
85.8238269779695
85.9764732989648
86.1134590573649
86.2590387012895
86.3548187358346
86.417240253547
86.5172290787756
86.5677325890067
86.5764866170115
86.5888355407271
86.6814831770597
86.6789974385185
86.634302871461
86.6255531840502
86.6299712980137
86.6141713516049
86.6270859099119
86.6398200667593
86.6254593058735
86.6001271636879
86.6175256006411
86.6666405447979
86.7172259406626
86.754629783587
86.8416966121889
86.9274481147878
86.9510853005119
86.969535794411
87.0331078629232
87.0864675956425
87.126167763722
87.1759514806317
87.2363263852892
87.3169219616923
87.3568370333021
87.370223817995
87.4695059325197
87.5817431848598
87.6531172881161
87.7322607076971
87.8654167945593
87.9628812349322
88.0262458156738
88.0731664155856
88.1250269730313
88.2275379175152
88.3289021763526
88.3703896419475
88.449302988161
88.4868087035146
88.4347499370933
88.3542658310339
88.2828665171253
88.0715913209749
87.7120099414259
87.2882214645643
86.7661162015697
86.0997421178621
85.373142580058
84.6226882457267
83.8424262729739
83.099782683335
82.5603199806983
82.3629725118229
82.4593915890544
82.5415692586429
82.4853886379548
82.3176822332055
82.041255428878
81.7258285706625
81.5130160566412
81.2764616930453
81.1028083669496
80.9700364064093
80.8251453086192
80.6516871704918
80.5128835684511
80.4291633102076
80.3820415235441
80.2452652137884
80.7074007547416
80.9748864412124
81.0116429092053
81.1415097633895
81.0500401794881
80.8780805196823
80.8409225375793
80.8571901111627
80.8690800655381
80.8689339885257
