1798
3999.43349933624
650.420452594757
1
128
4
97.1946376315828
97.1568769370924
97.1324956279813
97.1342047058289
97.1254241207291
97.1203581187181
97.1310141254096
97.1293494707609
97.1150555988395
97.1306450379138
97.1405814668096
97.1561247741346
97.1985306167896
97.2406447889042
97.1899454633783
97.1807139480506
97.1601653982072
97.1761975733481
97.1920420058454
97.1252551128973
97.0946345770395
97.1007972774547
97.0715751597063
97.1107985324522
97.2352585884647
97.3180293257197
97.2006395988968
97.0855624112034
97.1267652580923
97.1620761518749
97.0986899344086
97.0470285300597
97.0887551258709
97.2012176689572
97.2103873834025
97.1445289070951
97.0856074771012
97.0767416980635
97.114892969498
97.1691773346357
97.1717169991297
97.213666240422
97.244365536031
97.2871497737452
97.2715454273171
97.158675135974
97.1433006082984
97.2263338492645
97.3019288649482
97.3886607712842
97.3303703807843
97.2266448724863
97.121306844841
97.047935280126
97.1409099475711
97.2585092744819
97.2215763348182
97.1090921270371
97.1757738042141
97.2562341766927
97.1065239598348
97.1130897649877
97.2203394994563
97.2614756038625
97.1613214587949
97.0587950602275
97.1422848823139
97.3057485243343
97.3588677052882
97.3170858907965
97.1710346298602
97.1251933222442
97.1050073771499
97.0417633651775
97.0588105446025
97.1566726312461
97.3047016274258
97.2967501042423
97.1090166672723
97.0717644942495
97.074104388317
97.1396496493738
97.2491957257054
97.2541283846023
97.2052402759396
97.2067421288474
97.1678023182746
97.1373625205957
97.1638009789996
97.2885383987122
97.3475776857751
97.2752158401248
97.2277796323163
97.2867664400706
97.3347614907216
97.3043667517622
97.2080546059259
97.1514558822182
97.1664186934896
97.2261431716521
97.1800029163954
97.1753216069921
97.2379120838307
97.2939111428417
97.3687370470546
97.4338516096115
97.3760470226459
97.2582002026502
97.1325778610228
97.1766675701055
97.2260005536466
97.2073284037476
97.2540966608758
97.2871301392424
97.324884419319
97.3387035995943
97.2367361366718
97.1254030917169
97.0716460008957
97.1237828117391
97.175917905691
97.2132668420078
97.264616997749
97.2117664408289
97.1121461724407
97.1912560012872
97.2852890672399
97.2131691236725
97.1828161591068
97.2754671871916
97.293000732555
97.3106114441027
97.2763559054951
97.2056418419221
97.2833429746079
97.5155098635995
97.417786098118
97.0557150292361
97.0211210280393
97.2654435868221
97.4238030724236
97.3684414277104
97.1900004278768
97.2302890197736
97.2884662250252
97.2322173772031
97.1552868506361
97.1625016693943
97.2074795846426
97.2606694617869
97.176757716524
97.1900700951336
97.3200512958361
97.3878387273914
97.3278363369393
97.2437767475257
97.1852022811409
97.2303378328726
97.2264962216722
97.2562583404688
97.2932179567104
97.1805882054009
97.1362419912149
97.2870445996632
97.3338896567617
97.2613635269333
97.1497204806047
97.123647377414
97.1519633004478
97.1233284099816
97.089862096874
97.150618905544
97.2397302498163
97.158149229128
97.032727799944
97.0594433162118
97.0247283899546
97.0730844251411
97.0264130211134
96.9781677481356
96.9954562098672
96.9799956150125
96.9238499477091
96.8956100995736
96.8073624000512
96.7783443516566
96.855368353938
96.8677799170417
96.7344160050685
96.5824642628629
96.4207280512819
96.3509788663688
96.3029875778025
96.3314041326118
96.3920497129052
96.4172947805825
96.3825440496627
96.2724807459883
96.0628447274436
95.9020684465187
95.8864794213748
95.8531981589694
95.7188142796302
95.6701915060858
95.6962590008117
95.6146702379439
95.5081200090481
95.4989320422759
95.3592735667427
95.1517845436149
95.076575762273
95.0124742602454
95.0168361884123
95.1449199097958
95.0106519936794
94.7117659066621
94.5402819127407
94.4951869771338
94.4556130329891
94.3803826662688
94.3370847245529
94.3104253830929
94.1665231706757
94.1158166094645
94.0911762496014
93.9902418543677
93.7931755613537
93.5688722327928
93.4638642136798
93.4989728584302
93.4036484082272
93.3075834680383
93.2865131778848
93.2407403487336
93.1815854641589
93.1836588038206
93.0872213159684
92.9605435842239
92.8450409021887
92.7455898214438
92.6339212022925
92.501140700374
92.4169298560234
92.384320796245
92.3130667918739
92.254835186976
92.1576165778043
92.1138280014362
92.0401249205593
91.9916281894987
91.9281044278095
91.7589494652281
91.6118267195967
91.530811262863
91.4176875147307
91.3496659855107
91.3385569488684
91.4077700444724
91.3002032781246
91.1275183295193
91.0733973902855
91.0285476029637
90.836874059217
90.7662503627262
90.8237333627763
90.7373867990499
90.4762371975783
90.3358452596189
90.3264752510226
90.2968698633553
90.2222330630513
90.2356525018896
90.1826564872817
90.0379273084154
89.9484463855662
89.8448504110952
89.6631931528538
89.5812998135816
89.5343930124893
89.4494459479596
89.3570346305765
89.3177793107885
89.213048392154
89.1320307898811
89.1306254522133
89.0189016117274
88.807757595719
88.7602118779239
88.7338429813278
88.5412038134571
88.3389044829726
88.2394945244078
88.1961554479595
88.1574127613953
88.0334260547018
87.9673847730425
87.9159861039932
87.8077105793085
87.682941946427
87.5672194669466
87.4128686667633
87.3339149856901
87.2397406409468
87.0779216151932
86.9733508290709
86.9559385429553
86.8783719192897
86.7643784521672
86.6448671106737
86.5702673281137
86.3838346235507
86.2569165879033
86.1579672874331
86.0346674991819
85.9598838327037
85.9223079737119
85.8511205980237
85.7791827569349
85.6715708987876
85.5533154037356
85.4248327931181
85.2673502123041
85.0994213902287
85.0894445444902
85.0291464244939
84.8536616706476
84.7702865115534
84.8176642068659
84.8271168900821
84.7416117514148
84.7180512338039
84.6561877299972
84.5145281994933
84.4981147394398
84.4559783845797
84.4288597750797
84.3886842243182
84.3042187588218
84.2367542780557
84.2406016418216
84.1915431371242
84.2339453110083
84.2584673989704
84.1924434950485
84.2124241707546
84.2426049702424
84.1499296106638
84.0187459676666
84.0132103619857
84.0804313666289
84.0566792904789
84.0200503183228
83.9520586399715
83.8884466378489
83.8203221529892
83.8323616439137
83.8626711466424
83.9035907512995
83.886147342437
83.8453732905812
83.8061115697114
83.7597382945882
83.6644635791508
83.6358907406806
83.6937959908102
83.7351389919254
83.6695973150116
83.6775158521838
83.6472971293621
83.6010580344978
83.6725405875264
83.7564581621917
83.7293888900841
83.7325037941623
83.8433916640015
83.8838145583914
83.796927485708
83.8481901976519
83.90204646245
83.9079082791707
83.885494396062
83.928831057641
83.9931347957356
84.0643736859576
84.1302188003572
84.2037157921113
84.2922726638497
84.3951104577872
84.372164211407
84.4096628687449
84.4813407356751
84.5081949392097
84.5570361354108
84.634767776163
84.6835497438415
84.6753219877253
84.6096792106064
84.6583065564911
84.7656380801072
84.8815269095382
84.9376451309272
84.9788664854239
84.9789103499481
84.9098952405152
84.9665951552372
85.1146943837919
85.1153436585678
85.1211462379922
85.1601881428147
85.3314412806761
85.4417606432236
85.3692154995768
85.3424243472919
85.4460666918224
85.5629676729545
85.6438816060879
85.674247200084
85.773712726255
85.8439399482944
85.8791331261631
85.9131659009587
85.9631978656991
86.0481959312957
86.1753635458315
86.2801009369607
86.3307807776684
86.3737218868816
86.4160002691367
86.4281337487856
86.4785444067766
86.5359148588799
86.6949161587135
86.7888328395992
86.8241666040818
86.9335713468802
87.0616852307135
87.1221250940733
87.1689257812774
87.1954659223268
87.2824338898368
87.3500967989091
87.4809232658754
87.5550313974129
87.5583533673754
87.6342387074537
87.7401780656157
87.8135732133808
87.8688433196372
87.8538889587889
87.8809522345898
88.0015838420764
88.160300352693
88.2411547203543
88.3862164196943
88.441698780925
88.4209368837529
88.5453965420725
88.6558613593104
88.6857669632661
88.7384663571524
88.830703599249
88.9337175649985
88.9659687689861
89.0075365849562
89.0723714394357
89.1593290616891
89.2446858693738
89.3454240657684
89.3979441079337
89.4695881169033
89.5288679427828
89.5548131370681
89.5836507283434
89.6243891610897
89.7055579343788
89.8483117015715
89.9678672776037
90.0385399551937
90.0425755400549
90.0707544500678
90.1204103893005
90.156543024424
90.198827639331
90.2913855364521
90.3674199243189
90.4186431870369
90.4313935428461
90.531949468469
90.6079121269225
90.634637991471
90.6794960188016
90.7178413715114
90.7186119544221
90.8356974041701
90.9853427394644
91.0428698161468
91.0146196427389
91.0281937014659
91.0804892835576
91.1702451193336
91.2888626464344
91.3600113392671
91.3293892452209
91.3855387056339
91.4869292139675
91.5213111875064
91.5225808786132
91.5855699131076
91.6766637561849
91.7476655496146
91.8056972850535
91.8126655206037
91.7954280325284
91.8503920293944
91.9595742695876
92.0337924960914
91.9634213312452
92.0079422258312
92.0940902124553
92.0654041506199
92.1126424968129
92.2368026716153
92.2618636481001
92.2923003634725
92.3168727317241
92.3392913354198
92.4239926861122
92.4864835141718
92.5387565431209
92.6247568872052
92.6644933463222
92.6421761496065
92.6530983378001
92.7365114956172
92.7447825438155
92.7520008531035
92.796282973248
92.8501697768289
92.8724022445378
92.8802368098567
92.8955934139846
92.9373319805837
92.9124230063706
92.9271574666057
92.9490571744402
92.9952068001463
93.0933972231
93.1706935562056
93.1440572577818
93.1548399563356
93.2246871754108
93.2430698131888
93.2501211548942
93.2435289151975
93.2574425668788
93.3106879653253
93.3921045636657
93.4656604686014
93.4664703094479
93.4514359863192
93.4260201546982
93.4545567266866
93.4981714892689
93.4978616238875
93.5168342193442
93.6107335066332
93.695860422522
93.7137360155216
93.6922218934985
93.6449189550605
93.7063911741799
93.7965944157033
93.7684072076853
93.7827233440512
93.8831428134475
93.9281817568267
93.9267270748981
93.9502789239351
93.9887565799104
94.0311062782298
94.1004625910458
94.1623813404964
94.1771097343995
94.2001246057041
94.2151475834003
94.2380624797693
94.2659063424127
94.280185798818
94.272948160319
94.2755864289598
94.2660319466281
94.2907774459214
94.3522560502262
94.3907938893486
94.4409337801122
94.487701576553
94.4441063012704
94.3925960889416
94.4130855027791
94.4484593952282
94.447554297286
94.4221047891941
94.4336248975146
94.5085679278465
94.5867979515748
94.5971104249591
94.553145005384
94.5935913488102
94.6101168117615
94.5934310234882
94.614597608616
94.6766211955959
94.7097467373163
94.6968647499914
94.6755913317994
94.7092874570157
94.7515535291877
94.8068124011982
94.8889158174603
94.9222189877419
94.8709752583923
94.8529448775755
94.8752475255523
94.9141826797802
94.9763172750886
95.0417604448375
95.0131512617832
94.9770898674557
94.9848857051353
94.9829173909541
94.9889969703793
95.0137490580327
95.0152947570278
95.0507915268219
95.0837712068671
95.084143066331
95.0530662749555
95.0740919146534
95.1218774933839
95.1596046583518
95.1076825688336
95.0494653095688
95.0420022521385
95.0316529280114
95.0427106334169
95.0720070293612
95.0594611672027
95.0318118787074
95.1006587356101
95.1558993991464
95.1291042173023
95.1004182653703
95.0681836403088
95.0223448214687
94.9775339071042
94.9551348762932
95.0177877420044
95.132338953434
95.1347579867337
95.0858265533732
95.0768902323971
95.0835721660132
95.1199353556723
95.1614065873181
95.1424939998224
95.0987854828254
95.1041646130074
95.1776935253419
95.2179825004882
95.2191127690192
95.2145848586251
95.2727347962665
95.2918682737381
95.2190791312059
95.1525894977135
95.131876230764
95.1473323144279
95.1772138869557
95.1468260053077
95.1295738178433
95.1668565988969
95.1811654243831
95.1490948869414
95.2214952865887
95.3384750702641
95.4228512124282
95.457171263646
95.4560724545632
95.4243404196075
95.3783362560953
95.4145992459624
95.4968121351365
95.5304868877986
95.5205749315447
95.5624726017952
95.6265541218469
95.6647018358038
95.6855285135508
95.7181568165823
95.7102286862573
95.6930481134996
95.7154886362882
95.7298114446528
95.7362235557447
95.7639850576049
95.7794595672045
95.7774166754641
95.7909426916915
95.8493158821444
95.8829895528594
95.8389832898347
95.8375339971572
95.8362340222149
95.8405029523667
95.8845892374337
95.8902813138187
95.8234958484489
95.8315568983405
95.8565000930674
95.8693018099815
95.8827321093935
95.8695307760593
95.8775428509099
95.8883453952126
95.8744762877678
95.8476323604881
95.8808829159373
95.9028342166229
95.9003866671109
95.9418531711573
95.9419280746235
95.9723918213936
96.0456057561388
96.0730684508225
96.0700002866634
96.0507463823528
96.0625681648234
96.0598219887894
96.034472149318
96.0709001650454
96.1348991932979
96.1767116841577
96.1888486877901
96.1753867411578
96.1435465001039
96.1331979864287
96.130535679489
96.1812267084266
96.2797626764067
96.295166156994
96.3346453553482
96.3583564988724
96.323566676331
96.2834263919045
96.3563713939182
96.4344938469741
96.4441774501144
96.5023324385396
96.4908283061822
96.4256247180985
96.395445493765
96.4027147342268
96.4834236073901
96.4851069859251
96.4394387948148
96.4398813961831
96.3995159416651
96.3446837082766
96.4329225768092
96.580826650807
96.6081162472532
96.592032431407
96.5794716090231
96.6146273024634
96.6669525018191
96.6558457095883
96.6430012584162
96.6791038379421
96.6702548820626
96.5576064705449
96.5488309266741
96.658978507992
96.7201200162049
96.7333974782083
96.738032263643
96.7696060546096
96.7589337250018
96.6756661146067
96.658053258852
96.6950656606766
96.7308662234525
96.7616002618897
96.7034847513632
96.6792828975596
96.7302620778623
96.6918674145101
96.6661998372515
96.7779320429491
96.7750997259483
96.6895882295083
96.7201507796955
96.7923700874988
96.7738246754195
96.7073029969117
96.7480394495144
96.783413181839
96.6685885990968
96.5502241120482
96.5053593719527
96.511730559003
96.5772434684362
96.6254016492803
96.5624094705174
96.5468980607725
96.6081807094223
96.5375007860081
96.4666103747692
96.5449160654236
96.5875640044793
96.4949878897416
96.4329675128761
96.5492728956466
96.6846208353975
96.6801444664005
96.6137317621462
96.5718473290383
96.530787652115
96.4402780488859
96.4554776077787
96.5741890906256
96.6397873190922
96.5913968273886
96.4971616959909
96.5053217466129
96.5959829333606
96.5277245483345
96.4182246212573
96.5142041138133
96.5925207404177
96.4816786502506
96.3991587107845
96.3594657126163
96.3198483567772
96.2367027064145
96.1714652340995
96.149702280879
96.1482152891258
96.1718180209025
96.162249511676
96.1149710040207
96.1238447703209
96.2165278529872
96.1512787193939
96.0541838327641
96.0870809893942
96.0025842208317
95.8127055543021
95.6599047411642
95.4868551328015
95.2557053300811
95.0244364269886
94.8920001952218
94.9240061744018
95.0844426147128
95.2316548184416
95.4097582454775
95.545743646804
95.6489974719921
95.8681977382283
96.0533922067652
96.1622771006631
96.297076574014
96.3870638166728
96.4268661283508
96.5238633419754
96.665698654295
96.6660084992263
96.5791123228804
96.583204058798
96.5709341047433
96.5756170669004
96.5739029609029
96.4835620791602
96.3776898513281
96.3642874422151
96.4269733670087
96.507980142106
96.5822282020338
96.5995234501287
96.5558423755189
96.4751260307292
96.4691380129231
96.5598796378569
96.5861058607948
96.5830996713657
96.5731396133747
96.5669761618993
96.5424033858227
96.4627554474591
96.3102699874915
96.3263036697305
96.4645256276402
96.5081615903835
96.466950173064
96.4793672318728
96.5014188584105
96.4830627532609
96.4551224898513
96.455834056476
96.4976533062372
96.5418644227769
96.5823717071163
96.5892353980833
96.5764377067114
96.5681556184284
96.5937915459058
96.619524510653
96.7055692683131
96.8439204520797
96.8201043275475
96.6546398550122
96.7340448227751
96.9279780226154
96.9530079006709
97.039615088544
97.0974805550616
97.0775763691943
97.0816275340273
97.0696105449422
97.1510201410843
97.1928630892616
97.1545236424837
97.2718012174888
97.3963283265224
97.3280848619521
97.4625899456871
97.7451267215343
97.7614362406124
97.694495482783
97.8456878495001
97.7737106324245
97.603291135065
97.6212886073588
97.7841262770039
97.9403545874867
97.9129987158847
97.7622641068832
97.8216428306712
98.0337000883967
98.1424857708763
98.1616249166083
98.1734232654256
98.3799888191191
98.3308732303687
98.0457697878675
98.1869439962622
98.4677079317403
98.3871831023597
98.298588987662
98.4429980901681
98.639105606025
98.5979452514675
98.4238559594729
98.6612681844673
98.9368910553039
98.8908164590169
98.9581587178993
99.1539404568438
98.996558090655
98.8536337688837
99.2538712048204
99.2962484562122
99.1507379050689
99.2348475862305
99.2800222955909
99.2040659194986
99.4304489544017
99.6078112764502
99.4665777912637
99.4749944871982
99.2697428639076
99.3061905229804
99.3918851748608
99.3644370036736
100.086525887311
100.277196747827
100.164286373535
100.622049744702
100.600163828535
100.193728806743
99.8786838605279
99.5189764774794
99.4179661536416
99.2357430841858
99.3082860190991
99.2825781246884
98.8478972036429
98.4693783763038
98.4314576851085
98.549394982552
98.6368083918753
98.4924417211037
98.3914391554151
98.3309127132442
98.1588902128103
97.8394194770789
97.6221679397647
97.659064554646
97.8481527181464
97.8238616273005
97.6053891486029
97.3422366130001
97.3385436537144
97.4870091057684
97.6563072671544
97.7705687493728
97.7178739365224
97.5921571856569
97.4721258287049
97.5948253682894
97.6246061282545
97.5011219154669
97.6077164521001
97.5385312242886
97.4140104747052
97.4381280616274
97.4583003221444
97.5848494212315
97.6766719684304
97.5633917741714
97.6281974738232
97.7685660503304
97.7587812686486
97.7246174729542
97.7139839142592
97.8912572437721
97.9318994511797
97.9897599360893
98.0648432738053
97.7987573850839
97.5572075930131
97.6420101810779
97.8540056301826
98.0450545164548
98.3969906548572
98.5583525426129
98.5313244863189
98.6099990354508
98.7579474038722
98.7417312501244
98.9265144987807
99.0600243075132
99.0196235759457
99.1032026084606
99.2731512942575
99.4089815763394
99.2382773635882
99.3210039966544
99.8344535541637
99.6989060318375
99.3234312965716
99.4960846474378
99.7024825375803
99.4414187077987
99.1408009396423
99.0103261547653
99.0997783113076
99.5014571188281
99.369049346422
98.8063607141285
98.8321615739414
99.2372776761627
99.259180273323
98.8285603997447
98.8430735676903
98.9596621853948
98.839711168754
98.9419317912207
99.2002507204546
99.12709800956
98.9861894987414
98.983812967297
98.944647053811
99.0476796293014
99.5692034439636
99.9050136723529
99.6250693945312
99.1609461153803
98.9710966553645
98.987470766832
99.0682941484657
98.993240252156
98.8578157587004
99.0060582590645
99.0667956471565
98.7924805268583
98.7321738432588
98.58562802806
98.4809842165305
98.3428064430014
98.3618938597483
98.4749275155858
98.4672721037809
98.3474908014566
98.2545196670965
98.1628506039593
98.2259999910565
98.1628175927903
98.050889103724
98.0362447111297
97.9839179211695
97.9681910257712
97.9782578630852
97.9344596996262
97.9665130511851
98.0454908516228
98.0324720670699
97.9487243802313
97.8822612512625
97.8405708347545
97.7807862276507
97.7663288975812
97.8539473256388
97.8148690394213
97.8107412168619
97.8071517492688
97.7501573285996
97.6619912740157
97.6061792468575
97.6359580720999
97.7278169452569
97.6565975593966
97.6516154391265
97.7350973172984
97.6849824800988
97.6622070557959
97.7274517250505
97.6738506576749
97.5981151060797
97.6367868228013
97.7062754054205
97.6350350882469
97.6319495181726
97.6816527006576
97.6375887074812
97.6170646934552
97.6901536974059
97.6785308879327
97.6122439316053
97.6017448916667
97.6176610871007
97.5450821146369
97.582354792097
97.6298600326746
97.6025707969323
97.6088450950645
97.5220862475255
97.4528794963363
97.5021608493209
97.543673537647
97.543662646719
97.5767959540143
97.6541018440176
97.6564517428938
97.5610619988858
97.4689237782204
97.4292738064364
97.4775722429544
97.5320227068569
97.5242092084365
97.5639744010449
97.5505432001122
97.5005799801134
97.4659400256704
97.4569235467359
97.4432225041478
97.4186927468469
97.4254829252527
97.462341563988
97.4178037577601
97.3482105852581
97.3810117964223
97.4598691010774
97.4620252964186
97.3644102747338
97.3116231593787
97.3217456826898
97.3375349651377
97.3095050273245
97.2909441454373
97.2410550761004
97.1813913105088
97.1816089273351
97.1913657689354
97.2088951915487
97.1615410609422
97.0471763794369
96.8655419348611
96.4153173072948
95.2754962560669
94.1027976761441
94.4405853328681
95.3897069155739
95.9325605663887
96.4196402296555
96.6274416938651
96.6488875537144
96.6397262909627
96.6194056650109
96.6222302725621
96.6721113452084
96.6603918945282
96.5739625800139
96.5884315500254
96.6606760485837
96.5516067641441
96.4537418507181
96.375538849211
96.3420171112247
96.3147200186736
96.2433858711883
96.193945161797
96.1770156167771
96.1212947762659
95.9867923539876
95.8263623254115
95.7088514743123
95.6647672317092
95.6286408349983
95.5478070180552
95.3953053176416
95.2330315401803
95.200182357106
95.0590992182005
94.8515942557686
94.6808808770971
94.4079430418459
94.2620083374712
94.0796497029994
93.9037988710665
93.7857814645383
93.6041970906348
93.2650464267172
92.9709733756375
92.7240100871692
92.5646699801505
92.4213389574318
92.2174521285464
92.0048576796203
91.7550535795637
91.5574170519227
91.3555860195911
91.1358359119305
90.9067739925017
90.6956439695987
90.5030016935679
90.3447731155992
90.1894481749439
89.9330583822772
89.8343284288413
89.6947451071379
89.3612225408421
89.136599876072
88.9378093031253
88.5926782819674
88.3051980107659
88.1293982783146
87.9624368596874
87.8972656441132
88.1419312775498
88.2427156254107
88.2865849080682
88.3718680311866
88.5060010494084
88.5608009184771
88.6685524585403
88.862410336821
88.8608260918642
88.8437505077061
89.0398069053473
89.129054335217
89.181796031957
89.2985625495682
89.36008103213
89.4336112593704
89.4965044980659
89.582393868346
89.6573373875897
89.7359367748188
89.8049071455588
89.8601543678971
89.9370945886779
90.0380873204435
90.1003055027853
90.1783559196848
90.2418783098497
90.2977192758545
90.3381214241572
90.3977237926015
90.4346101147164
90.4797421776337
90.6063585028938
90.6293935791918
90.6037028430555
90.6924426548747
90.6951856235311
90.640241706653
90.7383269887117
90.7208660282739
90.6106445593929
90.7975417730713
90.7673873197466
90.7532253276493
90.8020658355361
90.7239988103844
90.72893600985
90.7031294463733
90.7354866124066
90.7709293879412
90.7019611824061
90.7682162844086
90.8010453445271
90.6948086928412
90.6496877655924
90.7227928863721
90.6289963334186
90.5487356583194
90.569060852852
90.584521865817
90.4636378278191
90.4753305620558
90.4266673448252
90.2948850374038
90.2661994540732
90.1795755489321
90.1408860184855
90.0487049835047
89.8514325544764
89.9179768763858
89.9094429371038
89.7620953634124
89.6764728061999
89.6090372416403
89.5430595264349
89.4903094965169
89.3879481817277
89.2873419855654
89.2398057131245
89.1568382268797
89.0646825257959
88.9215143787738
88.7882678750739
88.6809157123951
88.5008919441506
88.3359160812583
88.1342996039451
87.9489260735876
87.8627811487532
87.7154954677782
87.6045018112377
87.5505489064761
87.5143424723988
87.3340861296801
87.1619085797735
87.0341067732969
86.8164430178829
86.304727818581
85.7365398416237
85.0461151328581
84.2110825134392
83.3363412471894
82.5013106468405
81.7397106836002
81.0333038725327
80.3572057415212
79.74116296324
79.0049319072412
78.1144541912381
77.7160661331479
77.8196758663523
77.6465136793011
77.0839880099443
76.5766061433207
76.0151807107949
75.4932567880351
75.1707979234958
74.6424189647308
74.09000745686
73.6220737299323
73.1586485520316
72.6672077089069
72.1251809428957
71.6873203946063
71.2344308691333
70.6523745410939
70.1191882214391
69.6514443952313
69.0601661190329
68.5899463332261
67.9465797042524
67.1726737896457
66.4134281152349
65.6573785042933
64.7300348965514
63.746502799235
62.7788827580438
61.8836187956925
61.0854062313027
60.5110151313691
60.3762785451909
60.3758472164682
60.454595038896
60.7755309092571
61.0209996331311
61.241489813887
61.7163525382658
62.1617019987629
62.4222235088799
62.6828188243731
62.9576717160288
63.2735707272723
63.5597624762621
63.8772489548859
64.1937720035217
64.5048804463958
64.7966169756877
65.0586238028254
65.4448446399251
65.9393427269216
66.2631961942678
66.5433610843959
66.8497409424434
67.2129965154123
67.5679170796256
67.9101357632153
68.255435027506
68.6383117587533
68.986295335302
69.3703748772549
69.7894827416649
70.1490719893125
70.4722455295036
70.8512238294594
71.1796211992385
71.5214958149056
71.8757097587914
72.1921797610842
72.4881217382412
72.7799588648736
73.0668833059244
73.3732828475121
73.6444417930766
73.92886922006
74.2119097825304
74.4752632294414
74.7351715242381
75.0228680628075
75.2817749292135
75.5219685624446
75.7341040613569
75.9542082539463
76.1517660637032
76.3541921410256
76.5580521031613
76.7820580131114
76.9846150021989
77.1657077210984
77.3485432798942
77.5346800156547
77.7293023999522
77.9277127089229
78.0905453244675
78.2684980229876
78.4459813994308
78.6000799447273
78.7474444001683
78.9008121809295
79.0658215253307
79.2265951496479
79.3858260837709
79.5410224645871
79.6724830207423
79.8211701063909
79.9510269877945
80.0601561352326
80.1768511539909
80.2944433835933
80.397063433905
80.5014207052704
80.5750614566346
80.6162965649078
80.645709008348
80.6460907289274
80.5600995992779
80.4221345433441
80.1809861412025
79.8299580852779
79.4120752747615
78.8982645478845
78.255449741197
77.5297621616092
76.7055983094517
75.8386946072288
74.996592211108
74.2392580094934
73.6218607898376
73.2554676248127
73.230572002359
73.5630031594797
74.2365890085716
75.1421319272858
76.0413395829241
76.765317752893
77.2548263672909
77.5349274016406
77.5974569740769
77.4699695521558
77.1718341981494
76.732524652049
76.1980429277071
75.5618590512693
74.8154466544773
74.0551446297741
73.2901720843539
72.5652910248816
71.8812289993318
71.269289145306
70.6712575574242
70.0614619439684
69.4314628744754
68.7911449661315
68.1123825674739
67.4023962326997
66.6575251533855
65.9627657533491
65.3271831278136
64.9003906331084
64.7546945093183
64.8207145378946
64.8371835480197
64.5457567282025
63.8033741355524
62.8728151481343
62.175799595927
62.0140105509169
62.28302445736
62.7392301707196
63.2252181639261
63.6737030336035
63.9731207327838
64.0976055911475
64.0528977337074
63.8965901470089
63.5874405127033
63.1211962040057
62.57556317702
62.0113386178712
61.4804488838714
61.0533346228162
60.7842622468054
60.7362262899576
60.9151125345642
61.3212428073131
61.870412929568
62.5112815488806
63.2203086450149
63.995828596887
64.790216790293
65.6329173069547
66.4689584502736
67.3304988720541
68.1983076101681
69.0272673579618
69.8058385805411
70.5639687821087
71.257177744724
71.9081244323811
72.5746174336465
73.2162543678024
73.8027929727472
74.3590323881067
74.8344070231642
75.1675227411159
75.5454343349282
76.1281000158183
76.6925154657536
77.1906962406074
77.6132147581854
78.0160380082334
78.4214245359925
78.8456346269707
79.2286970093728
79.577859693054
79.9262690798738
80.2513719322415
80.5501907323464
80.860504464823
81.166755864137
81.4582684549264
81.7000741144264
81.9547539965396
82.2055706273648
82.4628637421027
82.6968108734088
82.8977864686383
83.0896975482347
83.2350045273527
83.2407782479547
83.2261664426871
83.3268377885471
83.5708424174585
83.8422989616386
84.0678692985029
84.2464197038131
84.4299088263678
84.6093456813328
84.7763649424346
84.9012455670138
84.9102307791167
84.7710147532091
84.7984782761067
85.0647406952699
85.3466737944574
85.589623834787
85.7983030073484
85.9483337046191
86.109474500003
86.2497765421312
86.3829898265417
86.5087789685156
86.6257403014887
86.7056048071746
86.8212109209552
86.9272035926439
86.981489588454
87.057249074173
87.1396429657418
87.2119376031605
87.2881718729835
87.3513061536108
87.432402730703
87.4985811473328
87.5681603614299
87.6155878379794
87.6656740477402
87.7063457096713
87.752821069456
87.8265469930817
87.9008623515376
87.96958858184
88.0390716140269
88.0773650187754
88.0864180219887
88.1061707051345
88.1579232125843
88.2284342782964
88.2746207712922
88.2876896919544
88.3292959935679
88.3612021589487
88.4025594217505
88.4434913974132
88.498536197672
88.517952453999
88.5295709547204
88.5548470234063
88.5702399672344
88.5803418010787
88.6166097926988
88.6200644299024
88.5825537543457
88.5200790986555
88.4932407557341
88.4420341851469
88.3264868717629
88.238903628175
88.151541280916
88.0020134536185
87.8554509479597
87.6692296795807
87.4453543818893
87.3124585640951
87.2320293163722
87.1370010841513
87.0560323360155
86.9959591539434
86.9354675479841
86.858757273468
86.8514397342191
86.9105924535248
87.0164044846891
87.1123396249745
87.1966198569397
87.3059475651764
87.3764974747914
87.343383213135
87.3129939875222
87.2140956724328
86.9704674004984
86.6210185081198
85.9570833888591
84.0194792527271
79.6864238775739
74.1286628068895
71.4296621350578
73.4302799366491
77.5032510375523
80.8483459816592
82.9186673529242
84.0768656674244
84.5966564842822
84.7766251211991
85.0569116592876
85.3738574937468
85.5205237824589
85.5527220389939
85.5711133464621
85.5622022826911
85.5081207964578
85.4322275686154
85.3453174504401
85.2354497525994
85.1159318113612
85.0120265236972
84.9134339300713
84.8131977149182
84.6576675088365
84.4413454588913
84.2675388737504
84.0964737529556
83.8771411175539
83.6633524078174
83.4017362525326
83.11874258296
82.8915480385398
82.5869844644379
82.1963993309964
81.7896495137174
81.469557770106
81.1855951053754
80.905985179801
80.6713618734767
80.4294296028782
80.2464902033272
80.2485642007111
80.2645061279657
80.3002556888375
80.3393145891981
80.3801140697498
80.4654010352314
80.554360437444
80.6179534888271
80.7161690896946
80.7942577213183
80.8908073295111
80.9545283934376
80.9272639477107
80.9642008627264
81.0659798395166
81.0253492271276
81.0329584786998
81.0378903266711
80.8965755714158
80.8215482253707
80.8913406076361
80.8756482491734
80.8497805117234
80.7979829044983
80.7542685335868
80.7150821874987
80.6791306638509
80.6392844686067
80.6252015584826
80.5759777743171
80.5647109098951
80.5779006103275
80.5914596846514
80.5611949275016
80.555998014924
80.5723450668318
80.5661584425771
80.5451538244871
80.5952567831225
80.6097361993918
80.5514940707966
80.5033006407114
80.4519193982313
80.3193273221241
80.2930238156677
79.7884890025332
78.7353601007432
76.9550683061605
74.4789493849171
72.2070255915126
71.7587071729906
73.2013057432442
75.0746778302414
76.3221956082125
