1798
3999.43349933624
650.420452594757
1
128
4
96.8268614121922
97.1488211598996
97.2954105458363
97.2524729067624
97.2138501842105
97.1965947691501
97.1812879078462
97.2798114107125
97.3319775448628
97.1020686705347
96.9322728168696
97.0068526317372
96.9786830067979
96.9754273217581
97.0572979835583
97.089277005756
97.069712166657
97.0325090987949
97.0661476499616
97.1474835293626
97.1855994870833
97.1706942355383
97.1139808942722
97.2000638658513
97.2526990611935
97.1626823311153
96.9950079718209
96.8878764201279
96.9971351989232
97.1881038351167
97.2319394902982
97.1373560044892
97.0764991910314
97.0896481807528
97.0160125199127
96.9708528674024
97.0559835674966
97.0935416749212
97.0728775579063
97.057056145708
97.0546203144736
97.0676704782202
97.0636249914102
97.0629013733616
97.1255086364099
97.212464192624
97.1981304598195
97.094239840501
96.9796325511154
96.912629572901
96.7767438584931
96.7139820514555
96.8329832302623
97.0178373901121
97.1977638203451
97.2242223227104
97.1161560762757
97.0475980817957
97.088716391072
97.0060700826195
96.8346907009832
96.8642792394973
96.9892482853977
97.1329995927035
97.1659587945589
96.9823314450209
96.9422193354366
97.0598102132715
97.02697607844
97.0082020821397
97.040376664096
97.0207314285235
97.0694315479747
97.1656738956073
97.0879616384445
96.9193755778664
96.8424741182761
96.7588889189125
96.8664148820585
97.2079147775733
97.3687450016707
97.3730821146588
97.2774142557179
97.036093123529
96.8568274041962
96.8208481869091
96.9639832792257
97.1240000501211
97.1645074014748
97.1946263968393
97.178497233429
97.1052687969084
97.0633368873066
96.965947784441
96.8457760549788
96.8703975934921
96.8742359974969
96.9583538019159
97.2881405200617
97.334604676094
97.1646678260845
97.0756335984572
96.9304697182968
96.8348437058384
96.8642091592523
96.8839295167023
97.0003163412212
97.1399675011107
97.2920467694282
97.4364080075556
97.4073205785661
97.2812552798477
97.1808277636279
97.156266628653
97.1133883977099
97.0444524971505
97.0222243243326
97.0582268311385
97.0595196055568
97.090230705089
97.1313887086698
97.0509225539099
96.9645253782716
96.9922421603764
97.0432867957967
96.9927145890962
96.943958770917
96.9994257745383
97.0519549805963
97.0033624961765
96.8602307377594
96.7223702294707
96.7310915210567
96.7486686083946
96.8425576796757
97.0041087023633
97.1101875604422
97.1736307669985
97.0749032196783
97.0006652626129
96.9965903905476
96.9930251069674
97.0340015652823
97.1250504333105
97.2145229679707
97.242737019692
97.1339141013405
96.9898062014212
97.04466673861
97.1261124052218
97.0944813429841
97.0789017400538
97.0900475009369
96.958658962635
96.7714048916116
96.814173836749
97.0684444909776
97.3054962282049
97.3386090383341
97.18995879559
97.1500384189927
97.170207753569
97.0685408348331
97.0525150866655
97.0534858018062
96.9583553193929
96.9483444029716
97.1139741108571
97.2299715696462
97.1999092704929
97.1314667611013
97.0167708506025
96.7456691271268
96.5941112348275
96.753808058703
96.8791632678126
97.0717508677056
97.2187479209009
97.2663440569911
97.1708097964295
97.0156130463139
96.9658586086415
96.8231164333989
96.7575726829059
96.8006220326961
96.6441909750966
96.5998801933369
96.7918924870535
96.8597707359994
96.8785084429615
96.9537511140411
96.9983019538485
96.9197639360361
96.8434486737471
96.7578253494733
96.6199653487899
96.5292870470956
96.4291880473892
96.3146454682451
96.4333029801141
96.5981520906297
96.6059729338593
96.4526132340926
96.2686846699398
96.2049457721454
96.1684347577348
96.2109221918912
96.3231314934618
96.1945164430736
96.1381963425157
96.2488682513896
96.2928272681952
96.1904439646666
96.0841571646744
96.0393291641223
95.9630959453978
95.9092221369277
95.9227789385855
95.9360379173566
95.8070379710904
95.5698358138457
95.6229311733717
95.8190613114348
95.9159770034646
95.9016737668279
95.7164775311961
95.5103227374524
95.5120311368232
95.4856068627504
95.3799941864127
95.2974614017055
95.269853075894
95.3298606059712
95.342796955619
95.2536167402201
95.2180332138574
95.3314178772029
95.301375968964
95.1275558001906
95.0026842298848
94.9634126195872
95.0485792026331
95.0423472207338
94.8762133594928
94.757750323632
94.8588941751635
94.8464434399721
94.6333982493298
94.6432320873799
94.6416756753071
94.4189768173468
94.3610175221521
94.4491319750043
94.4526367093107
94.3889649577451
94.3516021509441
94.3297992818097
94.3997419647405
94.4313894196824
94.298887892564
94.140808320888
94.0643128484912
94.0577756263934
94.1132078800082
94.1091034840551
94.0080692756652
93.9320560442269
93.9140813299076
93.9167637821259
93.8433404225151
93.7174934014079
93.7112447115783
93.7287703145315
93.6596270540096
93.6001021437767
93.608124214638
93.5293788147598
93.4034036596823
93.3737762123641
93.3918867954677
93.34935051085
93.2486689040091
93.2349916312791
93.2278091700849
93.1328350739662
93.0787289916539
93.0674447970398
93.0074235959916
92.9324340392519
92.9712091248063
93.0080535094903
92.9355910080174
92.8404902254787
92.8718864666419
92.89326792444
92.7780680831329
92.6374589420543
92.5766527237199
92.5725033612948
92.5991735888178
92.5677425511041
92.5366168515017
92.6162851750514
92.565295206999
92.3968716519948
92.3635509723269
92.3830772323213
92.3666741268379
92.3736465831857
92.387983027528
92.314687413857
92.2171830221197
92.197151166206
92.1922117993288
92.1474466998105
92.108539556068
91.9935781908181
91.8746061672315
91.9130405540662
92.0261826560385
91.9778531932512
91.8927499009859
91.8953515979502
91.8866099547565
91.8358454685146
91.8305224717058
91.8367174068302
91.8077900472785
91.7467526078391
91.6624764808687
91.6035778304383
91.6181754776094
91.6736770103596
91.6264367068074
91.5255221903568
91.4901798246606
91.4935132142156
91.4764175766007
91.3985934433207
91.4414429171371
91.5289942485805
91.4562553481928
91.4061194862587
91.3933600376256
91.3850717262012
91.3485007014883
91.2321622625168
91.2278973170051
91.3069410062256
91.2720470782542
91.169353023049
91.181094678317
91.2451771918979
91.2118049047946
91.1249226681489
91.1109968432721
91.1204206908612
91.1298049211557
91.163847335969
91.1249777724737
91.0407027107276
91.0138071933524
90.9606653878888
90.8811844015351
90.8849393923186
90.8991674632724
90.9042035499054
90.8976059099407
90.8734481446616
90.9019031985757
90.9245151934176
90.8785922029516
90.8185908093234
90.8512850898265
90.8796324293876
90.8486898453306
90.8239317665149
90.8075489477279
90.8109741625043
90.8748346948133
90.9388172859083
90.8960466731011
90.7873918846941
90.7702083733664
90.7965328970815
90.7467571664898
90.6789556234767
90.7069119362882
90.7964510921263
90.8913037448564
90.9235212264087
90.8448526167823
90.7782264574283
90.7958534005843
90.8188811937535
90.8258543491961
90.797286061417
90.777084322783
90.8338432250252
90.8748791452665
90.8041975250627
90.7342614245289
90.7599021886821
90.8715561306034
90.8981767975955
90.8477522193123
90.8665265944357
90.8710659163995
90.8952769151987
90.941694623851
90.922230891266
90.9249334760242
90.9412511699578
91.0069081851932
91.0781042923301
91.002057962746
90.9390797869013
91.0040207703135
91.0313713276075
90.9814662133682
90.9226750321038
90.9580480877173
90.997931455771
91.0512107375432
91.1537073938688
91.1663107776838
91.1321932487545
91.1011233030836
91.0176124479999
90.9874641903168
91.0713351972699
91.1503704381848
91.1500150411773
91.1358685343317
91.163189453623
91.2215160381357
91.2713501401592
91.303514076695
91.2702216103808
91.2170027523778
91.242135751451
91.3303684192684
91.3057760403532
91.2507992246592
91.2956952994588
91.3524497882609
91.384799536493
91.4490248256899
91.4670469706981
91.4635624125669
91.5023626102975
91.4894052584846
91.4755824449439
91.5127548876324
91.5863719544264
91.6286532466709
91.5908339711844
91.5806773277435
91.561041728301
91.6275350252359
91.7114489271187
91.7564970424367
91.8218226938523
91.7780093586427
91.7133605956935
91.7488747078265
91.7381978407215
91.7060474549891
91.7906724713305
91.8779572383239
91.8438721794541
91.835921322921
91.898025020096
91.9591207427373
91.9586808783566
91.9579592096651
91.9888502486996
91.9715791602199
91.9684391112813
92.0195271291421
92.0306316426833
92.015700677723
91.9933733309785
92.0279324737057
92.0554161697085
92.0039154789302
91.9990869822442
92.09614814291
92.1568445158491
92.1675518170403
92.2157447836723
92.2234382722571
92.1436760345049
92.1928475300579
92.281956680464
92.2547281623358
92.2299011689255
92.2723837308451
92.2684434413602
92.262440303019
92.2986079315776
92.337570607318
92.3944286018379
92.4317365782957
92.4020962050154
92.333507898257
92.3368125293152
92.4393347049569
92.5660951428335
92.6380791199116
92.608212646437
92.5620712415498
92.5106745731471
92.5086700661275
92.5438495712983
92.5685055921915
92.5905123089751
92.6158407307339
92.6399914626218
92.6721089899291
92.7140866565043
92.6793758817876
92.5849337349435
92.6307909961319
92.7299546796419
92.7347309711537
92.7142267765905
92.7387830014965
92.7870398254806
92.8358554456882
92.8066320135275
92.7222920383375
92.7068449817356
92.8340055267546
92.8882779776025
92.8098164916037
92.7806577901742
92.8245737480837
92.8323448493061
92.8425894884856
92.8789832331233
92.8911762017748
92.8781264943807
92.8164915297896
92.7526714346226
92.7513456695197
92.707301727594
92.6631219971633
92.6530393316723
92.6062276486967
92.6091388936958
92.6894049262577
92.6887622282827
92.6215940569134
92.5315018429294
92.4734010081939
92.4841141052293
92.4795888922629
92.4220919951286
92.434429660283
92.4927812327891
92.4849424797061
92.4569948387667
92.4603039521364
92.4972012467251
92.5325452801653
92.4820259902004
92.4314639911025
92.4128521174901
92.3848780825832
92.3266966175672
92.2924330719655
92.2968776631047
92.3346897454427
92.3498921807969
92.2983927639828
92.2784493959186
92.2981800969967
92.2903104881447
92.2966271692772
92.3383770410617
92.4920554748344
92.6160204269915
92.6063278085973
92.5970125858384
92.6194117485253
92.6589091659058
92.7024673216203
92.69558695475
92.6764199501589
92.7077868787959
92.8155208972074
92.8642995077205
92.8174970846747
92.7850650973812
92.8257587864343
92.8866000661505
92.9220515072808
92.9049381905007
92.8916927106999
92.9412917169382
93.0165449406181
93.0203121709243
93.0128996158145
93.0824409209054
93.1102322770429
93.0697865613634
93.0710949072745
93.0941358936176
93.0963965205385
93.0838246963521
93.1236285603229
93.170895331803
93.1876039505718
93.2050148305317
93.2055412957543
93.1950194810501
93.2652863537111
93.3581958125782
93.394402455794
93.4372856038738
93.5063910113135
93.56949492091
93.633512352009
93.6621185210929
93.6748501118122
93.7093563851359
93.7456307407679
93.7382307290994
93.7260126921947
93.7303656057545
93.7430102640365
93.7801347794969
93.8458300008196
93.8761948140032
93.890074341423
93.9037678453895
93.939327567021
93.9966718916778
94.0093885033272
93.9508740494166
93.8942015990378
93.9120619740637
93.9755572995237
94.0404135233468
94.1067894348902
94.1340379059311
94.1499050295446
94.1704495121521
94.1603225184342
94.1353260962387
94.1828551284855
94.2258763729739
94.2055776283892
94.1734676210835
94.1658868516858
94.1824362603687
94.1878660603602
94.2111843710492
94.2818233663589
94.2730368059088
94.2148330063469
94.2371667834382
94.2836146259169
94.2538643956838
94.248953425268
94.2913257282563
94.3304134640951
94.3377565588574
94.335017824528
94.3410485985249
94.3113975420221
94.301027004475
94.3379452213875
94.3445388052131
94.3134393383694
94.3251694242193
94.3472820715197
94.3051031701809
94.2749682704003
94.2926595986396
94.3179585785547
94.3482398458152
94.3982019058226
94.3837585275795
94.3512257910944
94.3610555798433
94.3931368399942
94.4068069741639
94.3632025001224
94.3123157245322
94.3317879337428
94.3938712403877
94.428305768189
94.4119030361808
94.3915596011262
94.3833150733856
94.3480913993776
94.332160407033
94.3893577522102
94.3889422957746
94.3348635497907
94.3511746555086
94.3621426370968
94.3260783540716
94.3081183067128
94.2815144588762
94.2945507777375
94.329228598294
94.3208420885872
94.3179849769495
94.3438220981681
94.3340768526209
94.2853086170882
94.2733185244395
94.2716692573894
94.2630854637724
94.2294313862693
94.1653611444759
94.1565227379974
94.154325813332
94.1376246768742
94.1134838842724
94.0795866658408
94.0761117858775
94.1195102925615
94.1274807938736
94.082710275172
94.0364880824802
94.0656798158137
94.1082083873556
94.0806867374527
94.0536463309819
94.070141132029
94.0990699366255
94.1040716860334
94.1229078006329
94.1684860777332
94.1871061152708
94.2214009656505
94.247357175393
94.2157135321252
94.2033126864091
94.2065392855287
94.1783028683039
94.1903930247188
94.2297210622668
94.2106410913256
94.2060868211444
94.2220440551393
94.2322622237729
94.2709326786339
94.2531617519711
94.2508995390802
94.3204264349796
94.3524885685058
94.3855354657821
94.4465456104454
94.4091969962088
94.3951652237115
94.3939966190794
94.327466651808
94.3571961921168
94.4301564050502
94.3779270457691
94.3248129866734
94.3907148527927
94.4898125609644
94.5004951306063
94.4533334507901
94.3961815594098
94.3566452977018
94.3561451879937
94.3677957218462
94.4219791629965
94.5092211537473
94.5422851136413
94.5348751112561
94.5051761496087
94.4965447196276
94.4737945459634
94.4424295259023
94.4511261625932
94.4058328218613
94.3897533341296
94.4658505159857
94.5040470213179
94.5203710105704
94.5189967978482
94.4891404187893
94.4995689145581
94.4758136817348
94.412915752255
94.4639584680401
94.5204779219589
94.5052790519618
94.4710343529254
94.48216975076
94.5560275379856
94.5948450000584
94.5482420447738
94.5513684202143
94.5545946654227
94.5309932723834
94.5280999557526
94.4928631069711
94.4403107218251
94.4590667594471
94.5379948231683
94.5624772928292
94.543293002083
94.5912142162031
94.5605408226585
94.5126006243195
94.6127394632019
94.6322428907686
94.5532485257568
94.5893532681659
94.6314941855288
94.6030376519506
94.521788374127
94.5115451824021
94.5942260881063
94.6379181935118
94.5746415707366
94.577261879374
94.6759162776307
94.6714753463382
94.5709308387195
94.5370532695487
94.5960582802532
94.5886180344706
94.5808052455913
94.6649652860536
94.6674697974024
94.6759472423684
94.6868918875989
94.6983535526149
94.7410294636893
94.6886854999383
94.7256379131625
94.8237475845605
94.8382447153064
94.8000323206017
94.6817982989989
94.6436517084934
94.7110233798917
94.756843457889
94.6968408334803
94.7209507073591
94.8399565571829
94.8357470976832
94.768830644666
94.7750493285821
94.8115797713403
94.8199330713654
94.7632929510253
94.6986441958746
94.737705518806
94.7881625739209
94.7971200795051
94.8089955479088
94.7980366232634
94.8218789376177
94.895368179324
94.9400799499614
94.9000821275772
94.7734715505902
94.6870794158266
94.7022505665561
94.7498958199392
94.7602658046133
94.7721901554583
94.8583539011826
94.9210098165034
94.9105587452134
94.9199531863786
95.0521195075709
95.1184664756324
94.9982302208534
95.0421993729248
95.1807966834178
95.2036189295543
95.2532421607239
95.2608514789002
95.1131591633385
94.9037258094949
94.8173654602335
94.829657434931
94.8416535248508
94.9220912438772
94.9949582640401
95.0228947403301
95.1015480921669
95.1310668101347
95.1197898257483
95.0953838324966
95.0279332067273
94.9269650386055
94.8317459648524
94.7976823287963
94.8287033203444
94.886824629423
94.9496835469236
95.0250696049301
95.0379113596613
95.0087442384931
95.0794186614248
95.1509845267427
95.1482071600359
95.1250181544978
95.1283503373937
95.0802675801006
95.1014839774081
95.2051554981732
95.2495794127452
95.230956721907
95.1958926636143
95.2330383340283
95.3098737252757
95.3535804605664
95.3591313640552
95.4087883551207
95.4450400552377
95.4679277680092
95.5812797514818
95.7090809604692
95.6962363375815
95.7455579967912
95.918797053338
95.9994209863002
96.0276474977628
96.0486804366135
96.0314757987752
96.0209997958626
96.0616456540502
96.2033246566624
96.2453599037962
96.2774004743087
96.3307163331963
96.3484158445338
96.3583147446373
96.2989251424838
96.3427499614198
96.5722670439593
96.5738092254063
96.4936345935592
96.504812510052
96.6255925309944
96.6877324598539
96.6729935801964
96.7845131420003
97.0955898761621
97.2310739192519
96.9956718931221
96.6823807899359
96.6367279422059
96.8026912242076
97.0189715265939
97.0041626276465
97.0465006026391
97.2743120194023
97.4189135846685
97.3789084051615
97.3046966299964
97.4573624755708
97.5558157942306
97.5114562457355
97.3693471446553
97.5190127553861
97.6921313426028
97.4381154675542
97.4275687390411
97.6757328351351
97.7437400175352
97.7140723403177
97.623615486189
97.7594181083015
98.0622416634095
98.2878002448088
98.2153884548929
97.9964783753278
98.1820980388697
98.1743404893824
97.9492040206308
98.2025291299526
98.4540192684627
98.8231974857006
99.2493040696848
98.8505304405796
98.4464283618318
98.5952525293004
98.6129926169552
98.2842008225859
98.0437588585769
97.8865407152481
97.7407901819327
97.6355119715758
97.5373592972248
97.4421482584886
97.5707076426065
97.5002552499016
97.2346007144826
97.1891541954911
97.0303055874683
96.7720460649242
96.7264207398731
96.6071918561824
96.4276134069536
96.5267227200464
96.5512520667548
96.3590286063743
96.4088786792025
96.6342263914732
96.6501104120544
96.587741085982
96.5616951598725
96.4948555131977
96.5403106738398
96.6143149802525
96.5808908264523
96.6002441899652
96.6086182439233
96.507051092779
96.4825843283015
96.4900057415819
96.3471942502168
96.3182802662485
96.4649319202886
96.4687396151842
96.4397507619056
96.5314278164717
96.7026040127005
96.6237850268966
96.4532727341988
96.3857846033614
96.4721568374318
96.7572675064252
96.7832022684504
96.6502143851922
96.6543176155067
96.5037695408976
96.5802279854871
96.8233793678193
97.0644555231304
97.1660109417557
97.1929180821588
97.3090307635434
97.3875210885047
97.5044998317861
97.6404866202076
97.5990035900308
97.491721346811
97.6554440176638
97.9288682947137
98.3843895005274
98.3993672927932
97.88010975471
97.9761464316544
98.1067526074422
97.8880647373474
97.904571012048
98.2145335851234
98.5137051062747
98.4799041940753
98.0874628167066
97.9757152085499
98.1476645160114
98.239788644304
98.1716389217702
98.0141446988297
97.7884619501215
97.5906148386301
97.3933817890686
97.3647012584073
97.3595242440668
97.3828576192176
97.4352603092647
97.456695421182
97.4413251089588
97.5437260810191
97.6530700634782
97.6200215107121
97.6743686834495
97.7870236309725
97.8158191265492
97.812847542875
97.7772625838676
97.8052792313355
97.6682544754136
97.6607157147908
97.6104705947705
97.5703412000388
97.4278501776345
97.3284220859851
97.1924258850275
97.0550174301772
96.8229906782783
96.6989645057276
96.7049387717927
96.7169731804358
96.6987979724955
96.5883568442725
96.4650898077785
96.4489852771315
96.2906656032764
96.0984063305034
96.0617460588296
96.0505686732901
95.906423029771
95.7780125711642
95.675907145125
95.6148488061407
95.5896046000034
95.5763563110742
95.6302007470422
95.6089220946597
95.5902122426349
95.5941178676625
95.5053902028987
95.4166696042795
95.3481588881122
95.3622442985127
95.3575172002249
95.3647992939244
95.3391657408666
95.251481509415
95.2218772372206
95.2250755998361
95.2677759047511
95.2820981974445
95.2652776429327
95.2904829288449
95.2059891952778
95.1106560844834
95.1684887261658
95.2518353714808
95.2103736809231
95.1456621286497
95.217340280121
95.2752706041442
95.2261126833741
95.1049951167802
94.9794455440756
95.0793331383565
95.2445864491257
95.2186978036002
95.0783795138752
95.0582370523966
95.0956684534223
95.0603274092198
95.0261717235827
95.0703297093118
95.0602684244558
94.9524901098138
94.8964817621398
94.92526853068
94.9799468354231
94.9496095132757
94.9060285428349
94.899743734643
94.8648997821395
94.8568992894708
94.8489322157851
94.8263987289526
94.8675763203955
94.8587494445378
94.8972557392287
94.9044009954686
94.8501847465742
94.8322159210776
94.7916763579902
94.8112298139165
94.7888261166885
94.6979528443175
94.6494859405641
94.6717790255437
94.7025665252749
94.6983077919067
94.631856404279
94.5853667358598
94.5530171329148
94.5345858785617
94.4786317411531
94.3783589070417
94.4663081803765
94.5570070423838
94.5167092987437
94.4533054788053
94.4177649950293
94.3696544149015
94.3011714036374
94.2593887995755
94.1978684953364
94.0932115556082
94.0383567317447
94.1977003950261
94.1918552948475
94.1481787182711
94.0089068447451
93.8591930104381
93.8414873594702
93.7560959290578
93.5718663850595
93.4761615926356
93.2816215448258
93.0022824948683
92.8934822171772
92.8175399837949
92.6284910530668
92.4089441621497
92.1613837416737
91.8796527286644
91.7034195915365
91.5046533732185
91.1455760265867
91.3033411556173
91.4257762333554
91.3699184183675
91.3259731841376
91.168529166535
91.0252446557505
90.9662732642403
90.8155881074589
90.6598342073282
90.943704886146
91.1730613737329
91.1694127197837
91.0147494093113
90.7918785971841
90.4822143268849
90.3192069251112
90.2117289458769
89.8228379695866
89.8487336669912
89.941907240015
89.7660908447401
89.8030621863488
89.4640559604721
89.1403271213667
88.9346169912476
88.5811965305815
88.2423716304134
88.4891339189527
88.4276059362988
88.1362907698132
87.7195017069961
87.3286719531883
87.2752484355275
86.994183182328
86.7576322392286
86.8229530729265
86.6846632938208
86.3106682119887
86.1083453813976
86.0626395735285
85.894237052954
85.5956371507867
84.9783754802296
84.9833699614737
85.936751718861
85.8481698195569
85.521285998622
85.6976238716379
85.8144653701131
85.6650935648955
85.4545712055227
85.1557117052121
84.9498611181434
85.4433622680107
85.7005566768053
85.4830483013056
85.2289765992578
85.1660566164848
85.0594188396643
85.0388760736426
85.2526558485072
85.1315047266262
84.9036624409949
85.196659409314
85.4832172074909
85.3926146297988
85.2969181463789
85.3025116357294
85.3867043878988
85.4139929834692
85.4319440644145
85.4581562755209
85.4836089612699
85.4790259892028
85.4812449287812
85.4781423635706
85.4743870016507
85.454309774466
85.4549751056247
85.4105465668557
85.342467312468
85.3034868341852
85.2722389657815
85.0995550582429
84.9989622356386
85.4387302519544
85.5240593706852
85.2550517410215
85.2966598578574
85.472209265906
85.4108955537451
85.4396725152292
85.1243610616788
84.4843729691258
85.4667073355738
86.2552934008747
86.3307214697382
86.378041656493
86.2524011374422
86.3070590206238
86.2812659107991
86.1163602267349
86.0902159095954
86.0612295925507
86.6314530005471
87.2040801486939
87.0363935548685
86.7730840970628
86.9348637846252
86.8848887291524
86.6942962990914
86.5839048398384
86.520622748055
86.3026908665416
86.4372359893126
86.6016879471703
86.420870536335
86.3623962078152
86.1329952639685
85.8613995299048
85.5222989169131
85.0601357405551
85.4710893103941
85.7815342350249
85.456893697249
84.9871790680707
84.5708761813368
84.3952042133361
84.3919775572902
84.097271423378
83.6277300360553
83.4714089298918
83.4830521935018
83.3664935742338
83.0770557951347
82.7311605322477
82.4768311415986
82.1699872020762
81.8913932705012
81.6876360605637
81.7001242121459
81.9476242488239
81.7628905639092
81.333564384283
81.0773636258684
81.1468492610234
80.9288452204397
80.3436091993558
80.0732937383244
80.7320741687253
80.9172704872302
80.7055981027014
80.4943624256807
80.3764281077348
80.4930424332914
80.4875983739844
80.4188708644965
80.3647148520108
80.1538285262403
80.0354194117727
80.4552408345309
80.5007899134967
80.2723288696323
80.1789645573943
80.1467242871462
79.9289605469342
79.7466334632249
79.5568204727831
79.1644411149886
79.1016360542422
79.1084595477289
78.8147749294681
78.436374197205
78.0668815955021
77.787460277972
77.3999988235046
77.0389918957022
76.8306107985024
76.4982981320478
76.1034910154506
75.9841062637796
75.8214845822565
75.8326143393942
75.8961489562249
75.7375845832113
75.5187300031624
75.5627781018828
75.6904843534042
75.6198898140559
75.5357138591629
75.4981558397676
75.481168136675
75.4411802629793
75.5807226112929
75.7561039549229
75.7360266285709
75.7877369017024
75.8278528961346
75.750519020782
75.859603242176
76.1515880182008
76.3052521392625
76.3567635508872
76.4049896721711
76.5130345499688
76.6208992377075
76.736075442841
76.8836825071382
77.019605109614
77.1131692065065
77.1102665836668
77.1418496066945
77.3859051986828
77.5853207799449
77.6790526486831
77.6980995706725
77.751619512639
77.839990575738
77.9292272270675
77.997176586835
78.0591304050139
78.1186312620827
78.2076633201677
78.3350270203821
78.4243267889481
78.4723559407502
78.6098863705641
78.7526339997711
78.8346072132461
78.9311377587752
79.0638399533858
79.1917486822708
79.3077943576864
79.4194041427779
79.5495338123145
79.6917066788405
79.8352753592318
79.9577633217321
80.0756115000737
80.2020237710806
80.3657839379589
80.5147063790545
80.6321506626448
80.741053019945
80.8818503484123
81.0147372586393
81.1183199602087
81.2226037463553
81.3434852550471
81.4514215017635
81.5631528429315
81.669604569223
81.7701952839796
81.8364414714532
81.912156448261
82.0086924288925
82.0933631979757
82.1592338041154
82.22361638993
82.2889664801878
82.3531198950381
82.3979046601969
82.4617456943166
82.5259771908977
82.5728183443321
82.6260429901091
82.6865073518846
82.7241779233314
82.7587751076004
82.7992546738504
82.8446729614325
82.8731582029164
82.8940348889318
82.9032318124849
82.8834857542068
82.8648668132658
82.8629369569722
82.8606775338052
82.8564984440841
82.8102729556945
82.7699559218256
82.7274435983927
82.6761951778138
82.5925154862743
82.4805946042051
82.36619782003
82.2533529927051
82.1221227071854
81.9807883975214
81.8062414083454
81.6326068461817
81.4553424289512
81.2556923279506
81.0195261104379
80.800495180915
80.5712639038015
80.3579481923239
80.1825070947814
80.0608695293051
79.9538560477621
79.9120609093613
79.9588112872787
80.0573321075954
80.1962584424818
80.3652110467076
80.5328677537006
80.6631957196428
80.7331626744984
80.7872148365413
80.8114167059558
80.7863332718254
80.7227629600905
80.6385397966874
80.5458927121268
80.4348563472969
80.2723376541135
80.0805615437545
79.8496751023351
79.623292055365
79.3728017573983
79.1035361924023
78.8204525576095
78.5307229684799
78.236123478276
77.9209636472822
77.6065300995414
77.344583129026
77.0575398167334
76.7398161771105
76.4558435635147
76.223832901525
75.9788375467693
75.7518995008298
75.5442411163727
75.3741988689501
75.2260404769731
75.0850453721415
74.9444333911675
74.8559902451481
74.7841497712694
74.7701255293126
74.8272092597903
74.9586522056372
75.1876343451947
75.5199075152297
75.8783425914794
76.2156947914911
76.5080710362553
76.7821156613492
76.9877306811433
77.1443667835813
77.2871971888763
77.439515590074
77.5637548955617
77.6792770472536
77.7876275988231
77.8859170653623
77.958785669889
78.0102940391472
78.0586550734812
78.1130730038005
78.0908344333317
78.0507866995504
78.0056514517366
77.9484682223926
77.84593369601
77.7203992728451
77.5997361765016
77.5189521062035
77.5633812812874
77.7495745533717
77.966885826658
78.1496504551604
78.3078671527271
78.4020760266681
78.3716235875441
78.3676272894371
78.4186886656732
78.5004915862218
78.5572968094403
78.5942432313659
78.6172232022696
78.6419419754947
78.6451257211816
78.6210779095257
78.5767584454603
78.571542437516
78.5961180654462
78.6533309220985
78.7230671798762
78.7708670501556
78.806056740204
78.8553955300083
78.9449576460928
79.0503442519536
79.0952693197246
79.0631519064941
78.90615204518
78.7071216464378
78.6907221036805
78.933336000005
79.2606022343446
79.5488644023374
79.7641634212409
79.9778073802707
80.1736512358951
80.3346132525531
80.4732874109675
80.6177578900133
80.7750448173893
80.950844433331
81.1037928245363
81.2122853602115
81.3351935899467
81.5062978938885
81.6533045364001
81.7747923496444
81.8853729559938
82.0060925863512
82.1009989650208
82.2002440608532
82.3269268437906
82.4386218452158
82.5339586063302
82.648169296999
82.7395704157365
82.8464463403231
82.9654037782396
83.0382612421274
83.1004152275609
83.1973123282623
83.2938409815311
83.3942890776356
83.479574657363
83.5505247357507
83.6191751667517
83.6797784156956
83.766379060713
83.868032630936
83.9155496011988
83.963923472672
84.0601646573936
84.1409203887889
84.1854495554715
84.2592361749778
84.3251280201533
84.393502005301
84.4633902627885
84.5163003825083
84.5296030971074
84.5448126039595
84.5539239634575
84.5169384649773
84.4171857613129
84.2728608276878
84.1144573379873
83.9516857760838
83.6873131768158
83.3570182838358
83.1023086628402
82.9747096469415
82.9203558586317
82.9183075952755
82.9168317913986
82.9153192430659
82.9136119759342
82.9871019021402
83.1248343682415
83.2546853133926
83.3479243250582
83.3906907690394
83.2330277304325
82.7890222892211
82.2568349871652
81.8757006547048
81.5130745046795
81.0196773500477
80.3978508061985
79.7257193329695
78.9717273454876
78.1181185155662
77.2377623351775
76.5358479786775
76.2838371061982
76.7505648946922
77.8027007334987
79.0039824620981
80.0475865017968
80.8956069095992
81.5129650738839
81.9322868337528
82.2261726492426
82.4609814390203
82.6138369072831
82.7620205796825
82.9011144006831
83.0301496108196
83.1334389435783
83.2197700493886
83.2957343616177
83.399114270627
83.4348245995244
83.4641005562741
83.4546721021359
83.4079145846703
83.4071841747217
83.4124094682003
83.3990912030517
83.403338460925
83.3834802984861
83.3927439443247
83.4118685428607
83.445210144459
83.493421432536
83.5708979883133
83.6254111327243
83.6767739918956
83.6981275763134
83.7688367798756
83.8764084435594
83.9377613174882
83.9684908183086
84.0236812504351
84.091413683594
84.1557421478708
84.2206284777887
84.3244043174701
84.402607452055
84.467330760539
84.5421566795968
84.654897414424
84.8105215712484
84.9396619052074
85.029041651846
85.108325754684
85.2269984840489
85.3642554786503
85.4549115163898
85.5222985696284
85.6357749257545
85.7437399746852
85.7440692553491
85.713317567676
85.6881025346295
85.5896842365873
85.3217552596731
84.9793292393672
84.4972705086083
83.8655948584273
83.126190695014
82.2698558220361
81.3455032381119
80.3896804086441
79.4634917684253
78.8917720624785
78.6855008975062
78.7231298466511
78.7639816141487
78.731794561817
78.5353442873702
78.1777713511076
77.8252028194581
77.5797055119471
77.3228114206721
77.0647173209322
76.8688708506901
76.6921569043943
76.4542372700468
76.286952479375
76.1683007545818
76.0428668887932
75.891004358357
76.4614077385395
76.7707287702329
76.7605159415367
76.9454096695673
76.8749149895283
76.6189348029088
76.6176251402512
76.7158882935608
76.7968331962733
76.7370318093165
