1798
3999.43349933624
650.420452594757
1
128
4
98.87371292201
99.2166802701553
99.3895312533139
99.297515201124
99.1876951351249
99.0729182027054
99.0014277492108
98.9701713913677
98.9330241585786
99.0971506667016
99.2503025231169
99.0896770763839
99.0980933229865
99.2637352577144
99.2804516029543
99.1250011926213
98.9256924539976
99.0167785430712
99.2598831112786
99.2529162093823
99.1101052992676
99.1311665469096
99.0917008952205
99.0156594043198
99.0652937735205
99.132159810042
99.1154399408568
99.0167585290296
98.9322063280035
98.9503567563314
99.0085844900072
99.0525517079153
99.0936176472134
99.1113802568257
99.0330935562584
99.0602284399942
99.1515449284549
99.1573180686916
99.1757027713788
99.1746210327133
99.151291087797
99.1357812660066
99.076768908466
99.0710732434324
99.1965642541287
99.2343141328049
99.1545839032443
99.1562356315749
99.175575578424
99.0610194402503
98.8797510170174
98.8375013905979
98.9971209631544
99.1698031568855
99.1130346063415
99.0488268306211
99.0755160606886
99.1164726582157
99.0451461369405
98.9558528299795
99.001887626881
99.1494721010445
99.2002899380245
99.1731571114682
99.141716068843
99.0671422461531
99.0456914872983
99.0408620218589
98.9383505067731
99.0244775859886
99.1801009084832
99.2200299355731
99.2403793428683
99.2316853726677
99.1361242993562
98.9514855974296
98.765710301611
98.8533896884731
99.1808642863521
99.3338937426934
99.3514514865778
99.2640240636056
99.089595664539
99.0170651284257
98.9203397451816
98.7837937753307
98.7800930292156
98.9909281106634
99.236371730736
99.3336972225766
99.2559097154327
99.1256696871721
99.0141425835734
98.9491500601129
98.9097537592623
98.9409679452767
99.0634672678161
99.1288042764769
99.1838897705311
99.282239289739
99.2613906194597
99.1037524381333
98.9154255402531
98.9012790330465
99.0065626189959
99.1087060783905
99.2207711984656
99.1810914879528
99.098841223102
99.1651607618839
99.2583449199436
99.2651860525033
99.1679876127041
99.0531620683489
99.02643998366
99.0409732863499
99.0305687201793
99.1180493220577
99.2054063591313
99.1783389142115
99.1371914812356
99.097936509422
99.0926503272064
99.1284165157683
99.0913978804853
98.9979145446259
98.9699687147413
99.0752430450135
99.1563349670848
99.0785090079749
98.9757924801352
98.9097692931193
98.8054715420327
98.7854150113343
98.9363193822509
99.0606344112282
98.9844440218084
99.0314325402439
99.2028578946642
99.2186181175337
99.0644408814891
98.9998930065284
99.1217610031206
99.2665603206496
99.1704052339217
99.0528863411384
99.0656023870519
99.1334045046941
99.2263754247073
99.1942886958831
99.140929716461
99.1778345862185
99.1435951426455
99.1133940791566
99.1374852872721
99.2116869281933
99.2743609236256
99.2577704923081
99.1623349725798
99.1358680075661
99.1148726624312
99.076658487442
99.0486013595132
98.9699375899569
98.9572651911884
99.0436171050363
99.1614374067945
99.3470507868622
99.2792128847864
99.1572056787474
99.0627228964538
98.9723404283063
98.9563737691183
98.8905980951604
98.9142960165215
99.1500194314271
99.3120579066245
99.2545465743717
99.1480547487415
99.2008156404668
99.1747817513985
99.1198935323556
99.1556914247233
99.1242271367133
99.0002321524813
98.8815533084457
98.8408327793588
98.8663688012376
98.9561724459417
99.1954061621994
99.298007320127
99.1882290178537
99.047789784945
99.0301240024007
98.9696503658803
98.8526438734336
98.7797388006305
98.7294638018657
98.7682001458876
98.8828345103404
98.8796479743454
98.8316751484729
98.7909735449166
98.7170580845808
98.6690081757012
98.6993994347261
98.725288462225
98.6464857138541
98.6216817353229
98.745299396037
98.763851810084
98.7683256810838
98.7021177961756
98.5744741262472
98.5295423335784
98.5490266335419
98.5346103430956
98.5780312159832
98.6217965676166
98.5390627884925
98.4502209868562
98.5701058340966
98.717805343409
98.6531748183452
98.4989116741547
98.505529442939
98.5309314431018
98.3976984768454
98.325669255823
98.2402552768073
98.0561056221816
98.1300126146762
98.3355040728896
98.3617886878435
98.4110132173066
98.5116627544764
98.3974787330809
98.218192580951
98.1714269517852
98.0973755025174
98.0101000491047
98.0901632615434
98.054088812631
97.9621272025654
98.0348965496154
98.1279557707435
98.1259638633122
98.0623351642851
98.0002941969142
97.9605501243503
97.946848699918
97.9773392962755
97.9296056232637
97.8999233926513
97.9498193581804
97.8734880711416
97.7978489045461
97.8407919190135
97.7883832130511
97.7505772483941
97.7191348393121
97.6747490499405
97.7291433765434
97.7556753259491
97.6584671903407
97.6299106280526
97.7243635023416
97.7897892614656
97.7424915540628
97.6234891375921
97.5201593897815
97.5455076666866
97.52275460509
97.4029306984766
97.3619789360379
97.4328399926546
97.5054213553314
97.4824533542246
97.4135098140244
97.3588547620894
97.3562380938052
97.4240966843854
97.4169568019086
97.3189005823623
97.2575826552056
97.3026790112547
97.2971706833176
97.2477405231512
97.1926641912796
97.1583281892631
97.1536772257398
97.1446886367835
97.1393691384274
97.1526507738463
97.1273397412991
97.1048259949559
97.1016645136152
97.0279378935839
96.9413268529477
96.9619374865844
97.0275167055171
97.1637157973543
97.1947055696831
97.0440662141308
96.9732860022401
97.0298202340334
96.9698748314119
96.8579512372574
96.8738617557281
96.8633410347421
96.8039513016052
96.8494346256651
96.90318745212
96.8724841546111
96.7410136077712
96.667601719871
96.7450744753339
96.8133988540862
96.7375096600034
96.6970738805023
96.722200325353
96.6920598731667
96.6777870994036
96.7032167088279
96.6731315178292
96.6565684563179
96.6446406362262
96.6422978142194
96.643827273953
96.6521366660692
96.6478050401879
96.5978573174643
96.5287548583737
96.5216673476268
96.5772472595275
96.5906941571106
96.4949053304963
96.5188266948273
96.6272839922726
96.5804186777338
96.4803183992478
96.4035159177766
96.3179666745265
96.3334864070154
96.4553733785599
96.5264791460279
96.4891398194712
96.5045026608819
96.5127911428524
96.4377325134452
96.4260187910532
96.4445993404248
96.4573624925292
96.4895414733845
96.3956412366124
96.333333680273
96.3082608649455
96.2142137383075
96.1889011358943
96.2832771038883
96.3252778180795
96.3412350599384
96.4368524712198
96.4773354810931
96.400640198304
96.3353144259922
96.3134693586886
96.3035931962254
96.2570889260018
96.2448680666156
96.3164587588206
96.3309322970431
96.2725715612993
96.270091265118
96.2517599739747
96.2263831637556
96.2362602285129
96.2592110396355
96.273863204821
96.3107799196209
96.2978190422744
96.2048259589725
96.1913250705212
96.3156950709755
96.3527850396508
96.2923486197534
96.2331722379437
96.1639934892824
96.1420152998314
96.2023189070108
96.2225873508949
96.2521025614404
96.2804904219616
96.2322727817449
96.1816050965443
96.2044682594697
96.2465414166633
96.2172021483747
96.2005871123513
96.2507163141973
96.2812694644332
96.2914642817888
96.2873692981877
96.3077749538828
96.2898262989438
96.3116372023146
96.2988604399502
96.277015638164
96.307631959596
96.2727874401577
96.2342146191686
96.2567783479115
96.2942232043132
96.3345243176168
96.3656044733017
96.3722250361081
96.3709205211057
96.3999813166892
96.3457207336037
96.2729787879128
96.3059342720225
96.3310881322836
96.2851026089933
96.2890081419587
96.3134793651217
96.3158116047536
96.3496587367265
96.3803192930967
96.3534990700662
96.2758088363783
96.2365237464961
96.3727710891257
96.4283728558102
96.4246346689787
96.4612546086153
96.3875359699148
96.3598400554894
96.4281360895318
96.409267978697
96.3929668985871
96.4518695944631
96.511339881878
96.4733037199036
96.4419781510084
96.4976682375008
96.5498496636941
96.5439172883262
96.5059053300894
96.4314251804587
96.4231281140572
96.5029322755912
96.5598919299526
96.5409070704256
96.5670806458442
96.6530280786663
96.6749154123711
96.637969496482
96.6231032593989
96.5522233183685
96.556743294772
96.6329966014049
96.6310840481451
96.6428775674282
96.6369301748084
96.5777454116273
96.5973558113911
96.6876473590947
96.7928009970432
96.7333971402659
96.6085199797546
96.6538373504276
96.7151149808643
96.689016540312
96.678503373055
96.7143058728077
96.7994323225256
96.7811969277327
96.7028775433199
96.7215462881884
96.757075927792
96.7567166616905
96.7548941057817
96.7618290641585
96.7970090266443
96.7975934488833
96.7464260456119
96.7732318171287
96.8683131428559
96.8708142683507
96.878963230724
96.9188442539197
96.9098181944793
96.8484948102732
96.8094946395488
96.8277506749405
96.8618725345588
96.8836824226411
96.868973360853
96.8469526770005
96.9495615494722
97.0426716699312
97.006694502803
96.9547761271359
96.9349820814392
96.9387011564757
96.9618234086022
96.9121821682188
96.8984366127603
96.9658668983018
97.0064068598326
97.0256469717065
97.0398447438618
97.0247402305248
97.0290074467144
97.0553240535802
97.1002818593057
97.1217875323576
97.1125391755806
97.0794321307991
97.0756897688187
97.0753008570793
97.0671302746809
97.109885521553
97.1368447581854
97.0806939403644
97.1004997610624
97.1673469938616
97.1896178882122
97.2272161394766
97.2308065583672
97.141993016328
97.0762318816626
97.1083675454793
97.172698786101
97.1601893471036
97.1362517410621
97.1875257754606
97.2227680650654
97.1925193570974
97.2013731835307
97.2054599224905
97.1886170476503
97.183598486703
97.1568619814915
97.12435208624
97.0703393315481
97.0819221726943
97.206865043062
97.2237143418566
97.1661066723216
97.1517448410645
97.182121078108
97.1582484499821
97.1028336085142
97.0823497829102
97.0693103640205
97.016352356164
96.9542390626159
96.9546831500644
97.0302315379035
97.0385924353936
97.0018982229436
97.0186230504799
97.0293450191159
97.0112912147665
96.9996447288489
96.9585998272509
96.9614352070311
96.9998906593307
96.9867109156178
96.9538311921138
96.9763155123426
96.9522115429095
96.8986576347661
96.9118159713395
96.9452383858079
96.9375607792414
96.9439029932312
96.9441281949135
96.9403919286616
96.9210471899663
96.8953164231436
96.9359618805009
97.0447133481645
97.116425333861
97.1030071434936
97.0518046368811
97.0611413807123
97.1167469351732
97.1410043595803
97.1492356508856
97.1414199294423
97.1391571874036
97.1666082404053
97.1934102743837
97.2168186097033
97.2153554863403
97.2101239285132
97.2441324558545
97.2782058862577
97.2521034509351
97.1917360330397
97.1636803655479
97.2210192996111
97.2405112649586
97.2501581450732
97.2871349727816
97.282825126243
97.2657122928503
97.2230887475639
97.2297911802351
97.288699439842
97.2997824728718
97.3078889017943
97.364046601998
97.4038497998212
97.391175952977
97.4069684533447
97.4012672082719
97.4166073348159
97.4509906625329
97.4048204637886
97.4300981736893
97.5608515511347
97.5852574992607
97.5454621754572
97.5407012260517
97.5452304904675
97.5635795191715
97.6186483831866
97.6638850696157
97.6384937328608
97.5827652149174
97.6052595335613
97.6439759794364
97.6206949779563
97.5922986602759
97.6253309644804
97.677478062017
97.7063823525453
97.7268121967462
97.733105449902
97.7156633402224
97.7102818246974
97.7335805805292
97.7246836932731
97.7214115024558
97.7960964031089
97.8251382013581
97.7878910249242
97.7840669822189
97.8068024154454
97.8145147785287
97.8156413862301
97.7858409806724
97.7518903447466
97.7631865044679
97.8001161051164
97.8292429497341
97.8523033171098
97.8627683867712
97.8433488352783
97.8195283814709
97.8448291313961
97.8449635739371
97.8518359527653
97.908597853791
97.8646204544484
97.7945109649947
97.8169471382563
97.8415780834321
97.859771393191
97.8988259781695
97.9008883121404
97.8714149390811
97.8809268078505
97.8945912799149
97.8664456403753
97.8607566751789
97.8907270511816
97.8884882905283
97.8837434317533
97.8936565883427
97.8917808244934
97.921651880164
97.9312386700741
97.8774095234519
97.8525245065752
97.8890576649307
97.9054307737318
97.9022930023596
97.9355542096786
97.95921619752
97.9255592506499
97.8920038156105
97.8879606467174
97.8619348210107
97.8766036516564
97.917038235325
97.8947721163417
97.8549648779922
97.8456252408835
97.8470245675687
97.8603416582332
97.8763349618451
97.8754991701356
97.8788091010743
97.8563375462706
97.8440410325526
97.8724971777501
97.8885616302911
97.8919520020398
97.8681846906817
97.8472061226988
97.84058119204
97.8494432080321
97.8338727014014
97.8180761441403
97.8243939572878
97.7826184748335
97.719100357436
97.7454096884314
97.8443211156699
97.8576186417882
97.7978377966348
97.7938919856116
97.775737343058
97.7465170205576
97.7594184098977
97.7702186615525
97.7506365949406
97.7533956072228
97.7519108245237
97.7390112581134
97.7423382546575
97.7696935846922
97.8114942731216
97.8300810573784
97.838190589609
97.8464828423956
97.8560853726411
97.8661371045532
97.8785376002874
97.881682893314
97.8445998938895
97.8275341875713
97.8374923497344
97.8054697107085
97.8018756339538
97.8551408071304
97.866425409561
97.8155690341207
97.8200667000313
97.8967451014572
97.9038515502172
97.8676362959001
97.8653907844059
97.89084092021
97.9632417148996
98.0095393111927
97.9229648908969
97.8682624156051
97.9078392814073
97.9160892970538
97.8964874274822
97.8722946381637
97.8125150731317
97.7928993418526
97.8243318606018
97.8544580577494
97.8546919088628
97.8706565710915
97.950596042534
98.0368462731169
98.0181743240888
97.9808268346033
97.9792613863827
97.9726952079168
97.8942523634746
97.8380176553576
97.9183477091618
98.0077318941584
97.9665113410345
97.8841136927899
97.9060885313996
97.9466482244066
97.924518645233
97.9227912047882
97.9302059178446
97.902843593968
97.9478799974702
98.0339951001088
98.0539030890654
98.050174188584
98.0311183180357
97.9725979045992
97.9238617576194
97.9269389372753
97.9586691024947
97.9758952159979
98.0163810689578
97.9983478431129
97.9363273829781
97.9251684819
97.9051880328168
97.8765559777749
97.9709981720372
98.0818268909298
98.0862824619305
98.073620075186
98.0693533657046
98.0188181896419
97.9941845224653
97.9993170020824
97.9548387084244
97.9486100385426
97.9610906765231
97.9702536438913
97.971516335736
97.9920135484734
98.0165492912443
97.9733042976594
97.9530640450895
98.0326719830242
98.0858769654498
98.0829288439116
98.0342164603396
97.956431881184
97.9229797082003
97.955225315078
97.9784956493272
98.0056438183434
98.0237003259434
97.989151714772
98.0341572544943
98.1057383555183
98.0667015873566
98.012311380156
98.0079342332719
98.035863192327
98.0589147282384
98.0637242891683
98.028685647045
98.0517685166687
98.0358847170392
97.9954568936838
98.083502860757
98.0966863443956
98.0235445074898
97.9771015730959
98.0206227280083
98.108198649
98.1149531543154
98.0787063250107
98.1091375028876
98.2136407875045
98.2081036464712
98.0750049793183
98.0546228525653
98.1107314233819
98.1119967671847
98.1280770949884
98.1636620398836
98.1426426005928
98.1399980271065
98.1675657214745
98.1366876564585
98.0976232401462
98.1182124040869
98.090371366408
98.0491000305191
98.083663229039
98.0765645861757
98.061013029692
98.0741685238826
98.1586423055861
98.2906795560587
98.3416107168894
98.390225803678
98.4210609307918
98.3273568197669
98.2280069770096
98.2919239982977
98.4308540252026
98.3851930132492
98.2362958926541
98.1435720589492
98.1031981002397
98.0501988305283
98.0888734599417
98.1822644575011
98.190337720323
98.2099667720485
98.2101023496218
98.212245922977
98.2899432451095
98.2488026774008
98.1716696404243
98.1687700226988
98.1142799894808
98.1089882768624
98.137138692922
98.1452231483993
98.2116287364788
98.2294739106321
98.1936444341241
98.2205106986096
98.2413853687838
98.230986043696
98.2788492651285
98.252094482837
98.1955276943414
98.2410063650439
98.2923181985134
98.2803703782734
98.2659626748816
98.3006248069761
98.2664913879597
98.223046385553
98.3124848581602
98.4342111052532
98.470825013617
98.5126455462153
98.5700422493947
98.6601155313466
98.6514011158444
98.643370602311
98.6494158609341
98.5894805772202
98.5785927564013
98.7061937957871
98.9009703103404
98.9014946448556
98.8168596594967
98.8088387151556
98.8432635906558
98.7384431148676
98.6310916558536
98.7126420679407
98.7873232364123
98.7197661492573
98.7413273505178
98.9235322797401
98.9348247729504
98.8572878382627
98.9938455415496
99.1015013521571
99.0794773631969
99.1772401000313
99.0896919105072
98.9282276553385
98.9883212411325
99.0775674662311
99.2251091154676
99.2919089260357
99.3093965218645
99.3016835512467
99.132357803274
99.0937786589701
99.3275676155058
99.4613808523032
99.2650832985626
99.0954072987728
99.013287114574
99.1206852439841
99.2490201214734
99.3686847172662
99.6321070010465
99.6176632325206
99.4222347473053
99.4360700347832
99.3258438891129
99.1722129755442
99.5565773914025
99.7463380114848
99.3772214173293
99.1180440078533
99.2529542580621
99.6899735631866
100.117637438268
99.9788682970089
99.6848470137378
99.7783552610318
99.9559029356898
99.9295244724224
99.8928862088994
100.085793008185
100.486397772866
100.434154803668
100.089373652173
100.168322835194
100.170675291104
99.9391576126472
99.7867734791121
99.586206708808
99.3425518103043
99.2948208521518
99.4747744575071
99.4676352595032
99.1100637032139
99.0376983164074
99.2239895750353
99.1744640142896
99.1148924351948
99.1388092276031
99.1653402085249
99.1659566796304
98.9970172880176
98.8508130417708
98.7945356245575
98.7762698207169
98.8386535964152
98.8672803414236
98.8865603279567
98.9520766504597
98.9310063711161
98.872332175676
98.8583957571829
98.7622700179724
98.700470314616
98.809476685102
98.8565052055226
98.7230625337696
98.5977051465774
98.6134606254056
98.8001967788021
98.8687676166015
98.7543845187419
98.8548797647887
98.9758025405018
98.875147281922
98.8416976309828
98.9545831188277
99.0539399579789
98.9662557156569
99.0155080277133
99.2188184299676
99.095545106056
98.9136278063984
99.0232340485166
99.1066436098899
99.0920230916341
99.0060413389572
98.9341956932123
98.9751937764006
99.0292312149229
99.183754806495
99.494642797508
99.4398978816202
99.1676819634085
99.2757823494331
99.7214610194594
100.109065243056
100.202650095464
100.127181529211
99.9438745194068
99.6145050181536
99.5276704995807
99.7526862527229
99.7335577595234
99.6748026749797
99.7762082922159
99.9133196991057
99.7685533174267
99.6844885088626
100.008126289953
100.035664282608
99.8120850634284
99.5751750536379
99.3448271364766
99.3898936884473
99.233782098957
99.2601368198921
99.4415080017685
99.4466112207572
99.471281580918
99.4517337922227
99.2957345522532
99.2389828953305
99.3915088721572
99.5224720091017
99.489001560882
99.4174560373508
99.2329226765829
99.2398154943112
99.3834299586699
99.4876440617571
99.6363028128461
99.6250226642215
99.512081075806
99.5122312766361
99.4872961784613
99.557300252708
99.3201546269923
98.9858091461275
98.9843960819442
98.9777248932116
98.8559355161656
98.8779259158551
99.0385821423207
99.0481423490665
98.8644304183147
98.8016317777247
98.7697429626624
98.6167490485103
98.4618417704133
98.4395498764825
98.5707568644177
98.6283193384724
98.6587720913804
98.6167746103733
98.6014405452078
98.5724931054342
98.4073091842051
98.3734983750395
98.4543692000065
98.4406026210901
98.3582796910623
98.2672480346303
98.3552644618993
98.4473528185217
98.3163060692032
98.2460369678587
98.28416958267
98.31271509914
98.2901622326193
98.20871021298
98.2039987639997
98.313976501169
98.3637881084316
98.2684336621362
98.0979897432309
98.1387475130115
98.2575890273442
98.2311860520283
98.2268162219144
98.2475989368071
98.2751635349007
98.2961271669109
98.2505619024888
98.1543339194027
98.0980316346203
98.0561965346078
98.060813183359
98.1604218153382
98.218464936192
98.1097289633744
98.0548183900166
98.0857407670419
98.1337835328501
98.1696017842633
98.1454292890848
98.0797308774161
98.0298004046461
97.9754978730184
97.9283269982477
97.9070297119519
98.0633829741875
98.1569384111569
98.1467971364751
98.0801202026679
97.9942336485333
97.9132726084208
97.8564663189654
97.8805927868428
97.9706887834358
97.9470985529558
97.9593187358532
97.9984750169636
97.9993509496962
98.0329721097786
98.0002245007229
97.9348778840744
97.886505003685
97.8815592524071
97.9083593614277
97.940538517386
97.9277706930873
97.8086225611565
97.7347334602254
97.7579715694749
97.7882399788572
97.788494951873
97.7619744458753
97.7625537177865
97.8331912927885
97.8441512201933
97.8018469448535
97.7690513706669
97.7463405849917
97.6929647867256
97.6841227854287
97.6827421987187
97.6036932614201
97.548075563429
97.6053729806556
97.7132489527485
97.6265155112044
97.5941318416534
97.5054612149261
97.3812206850019
97.4193800813523
97.4242428872125
97.3247674861522
97.2883712626437
97.1787618579302
97.064422616126
97.0510147786038
97.0156814879633
96.9473707252716
96.7597255521141
96.5565510548979
96.4197615364433
96.3685226505634
96.2344020121866
96.018337843265
96.2734818092174
96.36742844896
96.3004197409932
96.2422297631407
96.0908709406061
96.0158306674118
95.9788047945294
95.8195690368228
95.7666721282684
96.1141716594213
96.2955138538929
96.2571653812682
96.0691540251344
95.8795689526778
95.7297824336431
95.7198809002098
95.6648514040064
95.4061784799979
95.6162221277686
95.6657452319288
95.5918333624872
95.6916129438544
95.348426764245
95.0773964603229
94.9151705926467
94.7233005758184
94.7367744746101
95.1539039277644
94.9780536705958
94.7356623925422
94.4313546187839
94.2467882897152
94.3097769162805
94.1247143426992
94.0861399618548
94.1977786573402
94.0239841857962
93.7728144497633
93.7713038390055
93.7795226285971
93.5570099134973
93.258207898621
92.84853414826
93.3259009403941
94.0074370666546
93.6106674671156
93.3472724481167
93.6621101411852
93.7224722099569
93.4959010208915
93.2697943905886
93.0557431404986
93.1044703462546
93.669841155025
93.6840773522561
93.4021392006646
93.2189102798561
93.2418622346855
93.2234058623128
93.2791211878847
93.4160189802209
93.2392019861968
93.1006765273627
93.4308680748028
93.5707423870149
93.3850276379084
93.3140120201553
93.3445615337713
93.4245366861992
93.4358504249193
93.4652101293319
93.4581673822624
93.4615703512279
93.4442513729248
93.4119582252242
93.4339177266618
93.4782877899686
93.4496648357077
93.415628790897
93.3890985360627
93.3635840733248
93.3296870371282
93.3118150926564
93.1381658553194
93.1059438097153
93.5341780963585
93.4914072065944
93.2159112488819
93.3613150838166
93.474351068584
93.286549784647
93.1667424578917
92.8165524898489
92.5632848903118
93.6623918588479
93.9546000233669
93.7725623744454
93.7282009268951
93.5915350038457
93.6066767941295
93.4952588312582
93.4028497756975
93.4633519685325
93.5540234621172
94.1276011484263
94.3675384188915
94.040509753431
93.8251899036708
94.0007464274081
93.9199006606199
93.7345411799107
93.6669942147049
93.7099364004402
93.6041846516469
93.7805535402021
93.8529987280694
93.7336606373256
93.7718099835408
93.5671591326822
93.3453969889616
93.1054666587772
92.9926989748147
93.6436288808844
93.6985741798084
93.2524292330536
92.9302656967028
92.794135440969
92.8175785209835
92.8262581666516
92.5346018865996
92.2918096506462
92.4142559314508
92.4362253451193
92.3173633488607
92.0962836050579
91.8964899507253
91.7757463670959
91.5654798266206
91.4420501840002
91.4262669316218
91.6448650916005
91.7635776483394
91.4265252764428
91.1259994509734
91.1013128920598
91.1909927713462
90.90935601739
90.5658730022042
90.7436999944442
91.3609081518276
91.2031590463071
90.9354206098332
90.7477366016201
90.7165254067714
90.9031695115046
90.853410240857
90.7472089000376
90.6991978898844
90.534216045491
90.609565549074
91.0354711109848
90.8954975507246
90.6855436625713
90.7069113407443
90.739214049091
90.5568306604263
90.4640698053497
90.3604820203457
90.1645882332063
90.4061960027253
90.4383720834799
90.1514128349691
89.9064221811334
89.7546382900971
89.6363705513353
89.4426907654268
89.3196694777801
89.2655066866288
89.0189414790889
88.7766578233852
88.7725343873202
88.6938506534155
88.8300305727799
88.8201847683652
88.5967770822005
88.5042011360671
88.6718600648992
88.7382307633863
88.6396842368241
88.5989115422247
88.5600178885552
88.5317166595948
88.4945453897539
88.6641146099447
88.7669542512934
88.6691861412594
88.6788358493443
88.6875606064066
88.6267006206916
88.7875361654455
88.9838573135282
88.9661054405548
88.93462188241
88.9848848223281
89.0599197648249
89.1082020540096
89.168350345082
89.2255061880454
89.2804443410005
89.320182025869
89.3077970449782
89.3476200348973
89.5074346882329
89.6004282561677
89.6228692185909
89.62243997694
89.6588960583826
89.6875524089735
89.7278572781497
89.7715703918223
89.7835207652273
89.7885985158613
89.8447718466692
89.9246069086827
89.9665273428724
89.9901494499015
90.0403699930674
90.083292697026
90.1221690024471
90.1846503970297
90.2204652101681
90.2584861181347
90.3219876747529
90.3895346744603
90.4486189146682
90.5131241454922
90.5814662994618
90.6347126152316
90.6839477644674
90.7428702813544
90.7981448600756
90.8611003023345
90.9263236240709
90.9806005724699
91.0346239950148
91.0874282332089
91.13596059792
91.1798045193422
91.228833120287
91.2724224889343
91.3163699714213
91.3762999344312
91.4313081527573
91.4598565641309
91.4902283270346
91.5377303166525
91.5696773126362
91.6042577714421
91.6395721344665
91.6559593480648
91.7098361661463
91.7470470113396
91.7532502493334
91.7754893809072
91.7986962350397
91.8105777582341
91.8450496163794
91.8700518584682
91.8784368427164
91.9001651999511
91.9241891102178
91.9335738607246
91.9267134323249
91.9155634433509
91.9365347349287
91.938054382844
91.9377651450886
91.9578777993323
91.9621711227801
91.9357558479864
91.9164326467155
91.918445842229
91.8958402079249
91.8709053487771
91.8304031752863
91.8001001312501
91.7538222937835
91.6871385993404
91.6400159898945
91.5795745861051
91.4945095452339
91.3933628639821
91.3068297095755
91.2357116338177
91.1786316289962
91.0807875345272
90.966020055272
90.8879977692403
90.8334906315863
90.7866078523632
90.7667223534753
90.7751483328147
90.809680550633
90.8619116179463
90.9408099005957
91.0090676637357
91.0717063229892
91.1406837810993
91.1821471518429
91.1879207974509
91.2038132445471
91.1910690587121
91.1565158854348
91.1052992255297
91.0585161421737
91.0080979749807
90.9388996215063
90.8611958605558
90.7745060307621
90.6751411704548
90.5617001894467
90.4346692114848
90.3142930831285
90.1998268545927
90.067904022535
89.9179931391523
89.788397119366
89.6707404742106
89.5267095748462
89.3971165687034
89.3113882929348
89.2191387128806
89.1264136073781
89.0311905154027
88.9525453397065
88.8808802493035
88.8434684972356
88.8035389071664
88.7640932567513
88.7219017129335
88.7113468505608
88.7375592245695
88.7992078156937
88.894501023812
89.0333932467967
89.1887030245795
89.305816108226
89.4030841453142
89.4898570914027
89.5697052365448
89.6308426426558
89.6867910937611
89.7400629653215
89.7527025887747
89.7904229149887
89.820636637821
89.8292856721159
89.8518121252296
89.8633987504916
89.875252975315
89.8803063897722
89.8676408610109
89.8123228869558
89.7513639464473
89.7416549238049
89.6975035793996
89.6125798072064
89.5373863694447
89.4811949940293
89.4653412230647
89.5412325782369
89.6481111314364
89.7090331901282
89.7339184261406
89.7778484719968
89.7886439015593
89.7753053260053
89.7824449112804
89.8074859042083
89.8216090039887
89.8308790631281
89.8260219218825
89.8193913439068
89.8374354779821
89.832678557595
89.8189386109551
89.8199650337839
89.8150014236505
89.8153245831536
89.8373852390737
89.8729557154906
89.9082257656041
89.9208529929982
89.9253571849837
89.956366926046
89.9899488370212
90.0088093477507
89.9733168917864
89.9109137454681
89.9005004449908
89.9874294542414
90.1176186080426
90.2329996496796
90.3086837688546
90.3787349285359
90.4701023224124
90.5524445427883
90.6468747806508
90.7349388020792
90.8007921196179
90.8479862783458
90.8820138610828
90.941859856311
91.0250271052151
91.1188174585915
91.1680712131305
91.2223264225528
91.2985713379874
91.3393413660892
91.3812544627399
91.4661860562141
91.5267478272849
91.5663184857793
91.5855479381073
91.6272135119548
91.6675991078055
91.7148538546906
91.7676331793147
91.8371925713668
91.8841721372104
91.9275276534753
91.9674288431224
91.9890153493138
92.0104620560118
92.0838269775331
92.1343789922581
92.1635433631397
92.2066686769005
92.2503721715373
92.2793186117028
92.3158112997778
92.3420752977948
92.3518876129529
92.3854924889753
92.4640669536587
92.4960652648145
92.4925913391349
92.5045490761945
92.5370754025377
92.5567659862925
92.551192510437
92.5452456687991
92.5573207624981
92.5193705972707
92.4916075886925
92.4648702566147
92.3330506683952
92.171647469174
92.0231699955166
91.8548374678976
91.7363006023316
91.7016138601389
91.7254098602517
91.7550039025472
91.7529199127037
91.7518863344284
91.7829957456521
91.8285738200532
91.9012402621509
91.963673300512
91.9947109397802
91.9491340631469
91.7464491317535
91.4398023475399
91.2612208720078
91.161241121516
90.9459929937798
90.6211996884271
90.3089048763067
89.9304601660908
89.484310261206
89.0778757872835
88.731358053467
88.5536191256366
88.7158393827098
89.1597283834893
89.7225100526848
90.2513066978328
90.6561053296145
90.9613727455746
91.1683895043755
91.2815900556872
91.3908464710325
91.506777126831
91.5794255331663
91.6170619968338
91.6777565257886
91.7126845919478
91.7467610439789
91.8200046741939
91.8640534801293
91.847901147789
91.8328834887846
91.8370933658528
91.8542436970996
91.8357316690287
91.839299866362
91.8386039506776
91.8349589183713
91.8015144637854
91.7322568199846
91.6871961829383
91.7118398765735
91.7685714252225
91.7569533361398
91.8115144989943
91.8586724002477
91.8281726425928
91.8203664581157
91.8505077035211
91.8764480844175
91.924169352667
91.9697360751262
91.9907819803168
91.9968023466531
92.0039858116105
92.0565789272616
92.0955102940628
92.1209460828585
92.1568413111536
92.2617306678262
92.2875486917015
92.2940567269038
92.359457930149
92.4268954085131
92.4652739680639
92.476782366669
92.5241321861801
92.5774837753618
92.6204494019947
92.6747194190533
92.6803502154958
92.6733271792684
92.6893085034967
92.6883415202599
92.5752528064869
92.3781108515417
92.1068605583861
91.8124052575146
91.5029699283256
91.1322581205229
90.6415041233317
90.1442018937155
89.6978076732394
89.3530174825832
89.1509328535579
89.1399789533803
89.2275807865695
89.2700791703637
89.1159059564701
88.9359633324181
88.7890121428617
88.6412973120703
88.5197673634733
88.4317253306244
88.3069345221012
88.1912883821248
88.0692868001974
87.9708833518242
87.9151211123049
87.8650521344497
87.6925882696595
88.0694604888695
88.2376514148348
88.2020276235237
88.2988306628824
88.324859960347
88.2076971783021
88.142763019646
88.1839268397895
88.1671583845162
88.144769891958
