1798
3999.43349933624
650.420452594757
1
128
4
96.3195358959207
96.4068265863569
96.346950114409
96.235115779456
96.2708588076247
96.3500914612402
96.375618253211
96.4354621045801
96.4546508130583
96.4643686242212
96.4497650545149
96.4450164976528
96.4204643990356
96.3642897843332
96.2958218185633
96.3103767531369
96.3423211543905
96.2811650728772
96.2700236927072
96.4302315606177
96.4295797093081
96.2454057438202
96.235982457332
96.3599773996432
96.3583282032988
96.3485738628893
96.3790258523665
96.4730438493611
96.4787739800396
96.4112841104803
96.3323647979711
96.2445356508426
96.2747622299165
96.4135114539522
96.447447729433
96.4752406109683
96.389245562648
96.2364759706022
96.2656255192882
96.3936592070256
96.4704925808238
96.5009491575255
96.4500253924332
96.3526794683305
96.3674551992867
96.4282191036679
96.4060783956825
96.4051028294952
96.4196560731746
96.4262329507216
96.4324484213049
96.5240587862552
96.4998020654
96.2414021296107
96.1235333953462
96.1995781770252
96.308792755177
96.455962678271
96.4841810240419
96.4514526340124
96.4069575928733
96.3671426387236
96.3378835306806
96.3415564831021
96.2741757500961
96.4087536695513
96.5203302373862
96.4734458611415
96.4447055183517
96.4343802624856
96.3739887177636
96.4247493959361
96.4702773583039
96.4756605502919
96.5118703955094
96.6012056786386
96.5527834481283
96.472273489013
96.2942990583243
96.2864447688019
96.3460141154664
96.3892952640645
96.4439163305689
96.488260505099
96.5686002159151
96.6525326264555
96.5121605754868
96.3507930935292
96.2625872242133
96.3360568013955
96.4305286690137
96.4680690909191
96.4540072268727
96.5043766358913
96.5394330694619
96.5978954872874
96.4901424664583
96.4546004274229
96.5016249026022
96.4373703305327
96.4229347373288
96.3937224460785
96.4219767737844
96.4038494824685
96.3975827823344
96.4768243808624
96.2536303787806
96.140525400213
96.3088618695084
96.3641427941032
96.37249162905
96.4860893084026
96.4699685675114
96.4298594326307
96.4571788208433
96.4693229576305
96.3981646035262
96.3570209399333
96.3873204930492
96.4308857232857
96.4418972503822
96.4876264844712
96.5607169645322
96.5846968155844
96.5136280941422
96.5157182850249
96.5398612341076
96.5627727333335
96.5571225903346
96.5564390328392
96.5882551631624
96.6293419601629
96.5774940557157
96.4428442028235
96.3261981401113
96.3524046494462
96.3311181274926
96.3234523153356
96.2125496056101
96.2442282135042
96.3004651683545
96.3449140339297
96.4355765020381
96.3916673996619
96.2762309739238
96.4137463282274
96.5193912734864
96.4544571948441
96.4968462440071
96.5923030760006
96.5184868470852
96.4598474561347
96.5532844768963
96.636884946187
96.4950568827765
96.312042312534
96.3129884013461
96.434644273694
96.4549039797982
96.4556774471323
96.5414165275284
96.5858091896677
96.4804440127415
96.5232263531532
96.6344418501823
96.6062130365307
96.4754904472473
96.3714732475261
96.377618694469
96.58795735903
96.6942325154523
96.6563100667468
96.6230413535634
96.6293916179643
96.4702669458863
96.3532842575597
96.2474698188006
96.1672524522812
96.1134444401092
96.1909650438868
96.3613248859597
96.4749034536329
96.4669003153196
96.4901622416086
96.4266240285764
96.4168633607501
96.4540320242565
96.4065819507427
96.219122960563
96.068252303079
96.0109147962487
96.0243625303312
96.040776567953
96.1948995038273
96.1832477478971
96.130552471535
96.2078476777351
96.1831040613001
96.0354822005603
95.9476090223585
95.8483312471327
95.8581156146376
95.9465330747953
96.0824510028656
96.0541728621483
95.8872311870417
95.8797022129346
95.9361702862863
95.9084392042559
95.740620731385
95.547993614897
95.4603958073942
95.4646350867649
95.4979703948607
95.5264826733381
95.4317015190698
95.3327685790376
95.3891944606328
95.4327829325683
95.4991015858543
95.3976091828573
95.2756823062054
95.2335166802034
95.1820129681474
95.1845913264153
95.1750966728785
95.1485274432518
95.1882731867572
95.1838168914053
95.1473839370358
95.0205091243846
95.0504894894728
94.9359188947259
94.7643198703888
94.7775895386932
94.847029702288
94.8624270951106
94.8418394465292
94.7364538261488
94.6072954709309
94.636126970524
94.6852890343416
94.5483587617223
94.3888071696579
94.42824278298
94.5419696184792
94.6199808392151
94.5980314867991
94.5018417854125
94.3980842989796
94.2632035707467
94.2649718107562
94.3007471550455
94.1828944172975
94.1070990872175
94.0948392510661
94.0557964897252
94.1510312946887
94.1890025575798
94.1343295063945
94.092932049171
94.1049498219836
94.1352408180043
94.0455294731295
93.8961863620386
93.8446916216485
93.8738409059757
93.9377941958016
93.8913788037796
93.7634167297112
93.7086687585544
93.7275119525096
93.7089268369451
93.5948763977043
93.6308696478008
93.7704761765976
93.6646058512656
93.5714044903641
93.5039519961634
93.3925433310096
93.3213493825555
93.3848989329464
93.4617660354994
93.4455162570936
93.4869644260059
93.4950782974317
93.209246489208
93.2048236439945
93.3385114175148
93.37964359251
93.3741972583775
93.3116187860188
93.2179953775369
93.2526483047645
93.2882902713777
93.2372222612515
93.1711080829896
93.1697609518388
93.01128089578
92.8834538544316
92.9144583990036
92.9051801201149
92.8325122887578
92.8631700801291
92.916906736508
92.892598975875
92.8308520187512
92.8840487380921
92.8328346184351
92.7410062966839
92.7321168277435
92.7469507451622
92.7538783238913
92.7163833074891
92.702694701783
92.6511748948468
92.6725545231628
92.7201911049686
92.5957894517709
92.5679615067481
92.625531574537
92.6623912988205
92.5835131154197
92.5053940153209
92.5531901156675
92.586609327881
92.5695585589463
92.5412949914083
92.5237573589092
92.5339872765407
92.4888591385853
92.471301278167
92.4708771045068
92.4840689576061
92.4926229549594
92.4161564217319
92.3746265369596
92.3936190356096
92.3678481593847
92.3572217650482
92.3104184188251
92.3424039263785
92.4209242225944
92.4202360511191
92.2698380009274
92.2464881510772
92.2315252265887
92.2915691197106
92.3514983800186
92.2811184220087
92.2770489040186
92.3038138310401
92.3131521234954
92.3131615142658
92.2859733682204
92.3222121250812
92.3063162573202
92.3064169343484
92.3248256683566
92.3722209618939
92.3798555513324
92.361550270374
92.3594216139797
92.424821280508
92.3970798086674
92.3765905718502
92.3280239430031
92.2512132132949
92.2058286409542
92.2854100710324
92.3162759124403
92.3564023172074
92.3816203273072
92.3580939361066
92.3316575241773
92.3938939951158
92.4263663975846
92.3895105958897
92.3690510061778
92.4504944304842
92.4000800300357
92.3912988287979
92.3816619812534
92.3314083014344
92.2886042963445
92.3361230270394
92.3326131382163
92.3202873628871
92.3331816020503
92.3342381118656
92.3763143697979
92.4460392302744
92.3942078125833
92.3554796621087
92.3799718020987
92.4152995213439
92.3452609440512
92.3155641614518
92.3633520799751
92.4264893522311
92.5128439806672
92.5390199908456
92.3857339086677
92.2935481067054
92.3511722231175
92.4330378865295
92.4738851491078
92.5397765351157
92.5568880477198
92.4849846093452
92.4564098978548
92.4670681344128
92.4598725379894
92.4774008606328
92.4978161503725
92.5068739888746
92.5276881475045
92.5506731343933
92.4404837782209
92.4022891173287
92.4947443974088
92.5566311222862
92.5556804563167
92.5761033116159
92.6229049095524
92.6096496087572
92.470864194674
92.5771510837102
92.7079193202595
92.6402936715876
92.5572879281723
92.5381698903037
92.6168833243045
92.6569405547088
92.6302894818821
92.6988046919218
92.7422587905561
92.6483389932195
92.6567452251127
92.762306408689
92.7939355734978
92.8563368747221
92.8755471605371
92.7731265686328
92.6930177547818
92.8162231428417
92.9014001377825
92.9630431313594
92.9721245479007
92.9392281342921
92.9094133196937
92.9297250654717
92.9277195560032
92.9860626712736
92.9770782848305
92.9567707661875
93.0019324358928
93.0263339226797
93.0602659437513
93.0864563752271
93.0408434519093
93.1548063631696
93.2151641617375
93.1187074345125
93.0820738247828
93.1724566791748
93.1768065630989
93.2207297137203
93.2467745781757
93.2409828470748
93.3207157382292
93.3566672270849
93.2614674794659
93.2628724451261
93.3287118367908
93.3744620203306
93.3781132291007
93.3015625015615
93.2857886340181
93.3527995211738
93.3843740726254
93.3938701708421
93.4188397242451
93.4928712296538
93.4283975280635
93.3696440604576
93.4390798316965
93.4887989979001
93.4891398301042
93.5045325008076
93.5250886494816
93.5861701953577
93.6034087805308
93.6104034974438
93.6649511638631
93.6304686192979
93.5137147054925
93.4963543290563
93.5300023368546
93.6278087208399
93.678781856831
93.6698080824923
93.6754868726452
93.7336155192668
93.684403215274
93.6293624029686
93.7146378202082
93.7963342098723
93.7677475758386
93.7165099581318
93.7351366835552
93.7383073932956
93.7192099980938
93.8635806696836
93.976810623659
93.9320861588792
93.7887958415092
93.7967998326052
93.8685528367336
93.8476308967957
93.8116990239928
93.8333351130374
93.8777392920302
93.9541045424188
93.9565414506746
94.0171532416809
94.0073169152452
93.9968441429804
94.0472538490338
94.1136734007668
94.0678014728098
94.0146416379886
93.9974137924472
94.0523789676129
94.055590388155
94.0116180928696
94.0598465042232
94.0650936267379
93.9881975544106
94.004971795644
94.104658127084
94.1410304572285
94.0459342912641
94.0553868218975
94.1315169147151
94.1317211573098
94.0706191021318
94.070286151794
94.119590635955
94.1477542540652
94.0793798811624
94.0468565183502
94.0312895995545
93.9990783183182
93.9931251662966
94.0524321943728
94.0415617845421
94.0037623067333
94.0629981285346
94.0740527407309
94.0308363330868
94.0782160426222
94.1323613626461
94.1901942693161
94.2048037512084
94.2447129717637
94.2129297063646
94.1628465245645
94.1476023378161
94.1659208069049
94.1479608409184
94.146916664292
94.1495526561739
94.2095581578869
94.2854173098285
94.2962810034826
94.2623951052796
94.1868804295298
94.1714375900729
94.2521802775811
94.3869206486025
94.433519343181
94.5170433807511
94.5590332065556
94.5229457456076
94.5251199778965
94.5112039605484
94.5681016986213
94.5540814073941
94.4742576604203
94.5186192985867
94.5519933366972
94.5931829237653
94.6722128790455
94.6985129630595
94.6745994145422
94.6263981351278
94.5886300211332
94.5934351364142
94.6158762358139
94.6116413927056
94.6162816430557
94.6572761397514
94.7061571543819
94.7827718620191
94.8191269361468
94.7720705338879
94.7264014722157
94.7389231245484
94.7851595508871
94.8182964139998
94.8213812111411
94.8360413443006
94.8765094230953
94.8377353526678
94.8285080993759
94.8613340202798
94.8646290405327
94.9067448781225
94.9530438193123
94.9400163013917
94.9139459003434
94.970042107403
95.0759368631529
95.107796177439
95.1611019143346
95.1414044347086
95.0935847716065
95.1126435748616
95.1348194971903
95.1037302287109
95.1208270001652
95.1426091747364
95.1088178928054
95.0860711057847
95.1550641333754
95.1546634190336
95.128559873492
95.1717106283356
95.2149370518498
95.2179436095362
95.143180116383
95.1217053787272
95.1740998186624
95.1728041229229
95.2069451935451
95.2450212405342
95.2119756958847
95.2524855312695
95.3020317500903
95.2868758123616
95.2222725562657
95.1552885310351
95.1167583951462
95.1224153764721
95.1839996245328
95.2394404742601
95.2443739057516
95.2388559265316
95.2515003643575
95.2484156809872
95.216100478592
95.176044786149
95.230696170221
95.2593056842143
95.2712524743095
95.3376807319132
95.32207220717
95.2866337767261
95.2701997177195
95.2437468202886
95.3507294836479
95.4725570107234
95.4103452529999
95.3153183159166
95.2592704385065
95.1837755714926
95.2268013050207
95.2754525971095
95.2573086397025
95.2502077373943
95.2615176984405
95.2966471524848
95.3899215004764
95.4542646204055
95.4695663070092
95.4603547940908
95.4799350617984
95.5472254188365
95.5805885903797
95.5728864540602
95.5752265650387
95.5828254774635
95.6222681135243
95.6450252435592
95.6331888385365
95.6470216827358
95.6730898766735
95.6982027851447
95.7024106219382
95.7275780663967
95.7904832268059
95.753531225547
95.7353277636995
95.7611623750066
95.7339600491406
95.752253733458
95.8405349158285
95.8614075970861
95.8706690074338
95.8790976968998
95.8501941046725
95.8718471319091
95.9102685398402
95.8988272785829
95.8756330642981
95.8381800715038
95.8353397771693
95.8333335725168
95.7710021620722
95.7679348777617
95.7967950620576
95.7970175696735
95.8573344215528
95.9083617438869
95.8750753509152
95.8226122504822
95.8218472338852
95.826690997623
95.8750120187445
95.8956273583016
95.9026913120434
95.9336000311758
95.9796938931372
95.9629386739127
95.9900599589035
96.0299888941915
96.0742299588479
96.0814233628804
96.0659211239194
96.0506472932444
96.0605568603094
96.1337570827316
96.206479285442
96.1927584147772
96.1742667450832
96.2090538186772
96.2300650286944
96.2389718850422
96.2614272315261
96.2502199111319
96.2619983221787
96.2536484998975
96.2787675009346
96.3565380650268
96.3306593961152
96.3426630482767
96.4390493849902
96.4124425065596
96.3446281134116
96.382956142774
96.4380289800441
96.4714736938869
96.4370068773127
96.4143614146738
96.4446665724931
96.4771891089375
96.515018177366
96.5640477795605
96.5639949522956
96.5698160424549
96.625431109433
96.6159934188415
96.5169393265595
96.5618080220816
96.5957088460351
96.493843879932
96.483519293555
96.5696555028537
96.6515632935685
96.7139655322871
96.6884899394594
96.6824809353619
96.7739231855868
96.7750592988236
96.7015712162157
96.6711916756818
96.7454585416029
96.6647338418802
96.6314976849211
96.7603358449372
96.7465547621873
96.6570052142839
96.6659488728979
96.6807070518008
96.6730043120706
96.6724807966373
96.7280198985223
96.8372750126825
96.9052801481914
96.7998424403327
96.7351622698009
96.7786884062646
96.7660634718719
96.7661427612592
96.7281134699742
96.7803783765968
96.7791474916728
96.6594236642189
96.5732353872864
96.597452359135
96.6746412981592
96.6461463588638
96.5917587855073
96.5260350557321
96.6087020471454
96.7067868118531
96.6626757687651
96.6415041447201
96.661171930308
96.7026327709838
96.7009528636676
96.6772381402941
96.6291653199155
96.576763015618
96.5206342846171
96.5940041506939
96.6934719757062
96.7063623254889
96.650483972242
96.5718967126201
96.5616556612692
96.5865404144332
96.6329921704418
96.6684973038497
96.6749919805328
96.6994882337929
96.6649254122586
96.554467322711
96.553011097156
96.6237796885481
96.5748776869586
96.5162053442283
96.4481913470833
96.368544918083
96.401946782136
96.4421118215575
96.413897517679
96.4486962006149
96.4601151460224
96.4949276301598
96.5624748531648
96.423167450545
96.3750013541341
96.3911269831389
96.286548438478
96.1940241893436
96.0782843039365
95.9321735367073
95.7629049427305
95.6095208088038
95.4868054014151
95.5556891256918
95.7334256391475
95.8261597675633
95.9251280320429
96.0575994077948
96.2079271735029
96.3310303222377
96.4664476369183
96.5462535603381
96.6375762888091
96.7466383991597
96.7365050136986
96.7213243695717
96.8248029480699
96.8733942037616
96.9339338876967
97.0107057399794
96.9998168691768
96.9589410135111
96.92569385323
96.8260067956043
96.7303116487653
96.6968925464925
96.7142116903048
96.7394225266516
96.770090824606
96.7680409992075
96.8129290861773
96.8777984850002
96.8680033319565
96.835195540518
96.7898786899107
96.8194161105019
96.8682688455075
96.8041551459628
96.732774028627
96.6453193228998
96.5784351697966
96.5286822919809
96.5383714045873
96.6329149191769
96.7667371728783
96.7564381522582
96.6575223189374
96.6426886338354
96.6989930331612
96.6901807247026
96.6536012739837
96.7187243648381
96.7752865154029
96.7717274529656
96.8267058369919
96.8069192915991
96.7638364077591
96.7858233271603
96.8639248232486
96.872583370737
96.8913583598144
97.0252722271764
97.1702373528638
97.2095455509602
97.2332985419089
97.2601499711251
97.2915156596452
97.2873123207795
97.2614980667708
97.3168782647032
97.4069344659284
97.4677372993431
97.4893069723148
97.3862140638987
97.4565527498972
97.6203547975644
97.6348565139668
97.8135221562018
97.8350502593744
97.8669173164397
97.8309891799141
97.7222384257097
97.7794742804508
97.8794968335504
97.8455978313633
97.9012087601234
97.9856595757612
97.9029178086573
97.986367367093
98.1167709816006
98.3168238482479
98.3599393693657
98.2260760621672
98.1098525050542
98.3026553815217
98.5670791967825
98.449522290403
98.4048693437552
98.5299172686516
98.763080455257
98.747108787087
98.5407776142479
98.3925087634371
98.1767068682776
98.5550444955227
98.7586580097275
98.6634692749683
98.7617683020358
98.9439391514682
98.8058231373659
98.6462195733076
98.5833843968558
98.5408619443509
98.8226845108012
99.1306368145963
99.0862733071285
98.9821296086579
99.1858677015744
99.1528517679751
98.9747276900289
98.7346173871997
98.8109182844058
99.1776854438309
99.345956449442
99.1264740422492
99.059647092082
99.1481779763718
99.736702200922
100.211599788436
99.9997032726183
99.4985208965925
99.0403672919976
98.9133276781622
99.0265014088836
99.0984043097481
98.9929191721484
98.9508122361534
98.5255983788727
98.3872497548781
98.4855018768779
98.3242733308059
98.2620558832535
98.3190294747752
98.436113733208
98.2694858234847
97.9562595954519
97.9014805653512
97.7843673479976
97.6085231863006
97.7567057291758
97.8884191645294
97.7186207101766
97.5821025800911
97.6680492720592
97.6075727084502
97.5585844425571
97.6410387214202
97.6769209051353
97.677568335547
97.6261905139802
97.6705435135959
97.7565156139608
97.7543941007711
97.7174088889142
97.6628980617767
97.5784447868025
97.5443484450953
97.6775390246422
97.712852404821
97.6773335217137
97.7637750288438
97.7761497017475
97.8463285937354
97.7033068927577
97.5592271952046
97.8919832599216
98.0551273116029
97.8633885463364
97.8761551705386
98.0402288637723
98.0503887447966
97.9657508900769
98.1506227161884
98.3150528738179
98.1738651029554
98.0071037000316
97.9726336091747
98.2620052867673
98.5488320719324
98.6373970920605
98.7030637585914
98.8590352661269
98.5524174303866
98.4042879160737
98.6827251370274
98.6228710678919
98.7491218017048
99.0162170783672
99.150034384704
99.2069171813931
99.2820267425874
99.4262567830418
99.4524412301712
99.3724171668894
99.3422979934294
99.2827013115251
99.1738437209892
99.4826472164764
99.5223583159618
99.3369020252063
99.2211201897787
98.8853003624051
98.8213729277633
98.6355321426286
98.1220682784875
98.1351265902547
98.635811475386
98.9123802168092
99.1310886717132
99.2267221606819
98.866208042812
98.5700333627199
98.5592181320703
98.6231530917144
98.8507865132892
99.0375066185413
99.0980297246462
99.0860752141624
98.8157416110326
98.588716108928
98.6628200553347
98.5733201622625
98.2782466365597
98.2268081824655
98.4004206761013
98.5298601992244
98.4301821700716
98.4851543622352
98.5599882813042
98.2170374815725
98.1279486054621
98.1486613070164
98.0772499944584
98.1798866627389
98.3763192669622
98.2150991546628
98.0975103229061
98.1623039350975
98.0704567780301
97.8973085461277
97.9214272894325
97.8888188168921
97.987508007221
98.0467104989382
97.8632193788063
97.7012797707016
97.6804319856751
97.7810689123482
97.7664211437295
97.6379672069802
97.6305953738437
97.7048315661186
97.6570307329909
97.5779349286546
97.5937293505725
97.6485385348876
97.726060575854
97.7259618555865
97.5497449415561
97.4703062317031
97.4847811480929
97.5607276218889
97.5555132324719
97.509025921272
97.5796439391333
97.6367094769613
97.6474436900065
97.6081185609325
97.4841227452357
97.4589952339294
97.6126750284186
97.6423439432296
97.6050870749833
97.5880700270745
97.5955812078353
97.6103445894537
97.5786405669128
97.5527650429408
97.5187606303182
97.477078073828
97.5617111244546
97.5772196529184
97.5064020572335
97.4914274140049
97.474239910599
97.4963886456128
97.5571419181031
97.5931577873769
97.5496834531527
97.4129129434355
97.3721626447446
97.4327342897854
97.4814170710083
97.518269732695
97.5230397968893
97.5015810630287
97.4799971479597
97.4765323137164
97.3916627528211
97.3503283713095
97.3789695951043
97.4571270106715
97.5199600982189
97.5272899261342
97.5351182846661
97.4635995940542
97.3769672781963
97.3762683308763
97.4037368542554
97.3985653989893
97.357575945253
97.2586904255257
97.2281494969222
97.3010730000645
97.3071454179901
97.2532844275204
97.2190219968365
97.2045401138289
97.1967563908919
97.2193543407572
97.2145095820472
97.235856619143
97.2355617311865
97.2007017591509
97.2139156528619
97.2446006639389
97.1996868912526
97.0957182459831
96.9507157452823
96.5554846170644
95.6707627127255
94.8349948287371
95.1119832381009
95.7907063152766
96.2568541103798
96.5806130710567
96.7136564473041
96.8105439075338
96.8304475152398
96.7879695406423
96.8158694100511
96.8497473235773
96.8247924089905
96.7839737542892
96.7819821759972
96.7875508223581
96.7782885162923
96.7014215670355
96.6349812992147
96.6099326429312
96.5602603309999
96.4994565972615
96.4825390033301
96.4727157056572
96.4132991892595
96.3085802899408
96.1465503028876
96.0281074719346
95.9848985396764
95.9384784740277
95.8636511464679
95.8019286265082
95.7188676130936
95.6205361539575
95.5307781325627
95.3776576716985
95.1730046443677
94.9799102078128
94.8302178000846
94.7312132291224
94.6632397499515
94.560191444965
94.4399731886605
94.2713064657884
94.052401953381
93.8920850388522
93.8001976153087
93.6945872368739
93.5633556266807
93.4411912424941
93.2709096124687
93.0837144877542
92.9907084846491
92.8949939906611
92.7608071798757
92.6285444920492
92.5698392001475
92.5667843749281
92.5584614543413
92.5118024132798
92.5013450334903
92.4206780047484
92.27961570775
92.1399252689264
92.0785117227703
92.0602496727159
92.0310898331774
92.0281249032746
91.9723500682765
91.9231188174127
91.9681834950272
91.8774519203764
91.7886615202831
91.8015592452826
91.8331001812447
91.7742270378981
91.7458399100005
91.7519632456758
91.699645104569
91.6191317156374
91.6201185735811
91.648931066077
91.6570702885407
91.6123453554783
91.582084042757
91.5632413648796
91.5297536063325
91.4917023640667
91.4409148259807
91.421396426826
91.4059720545888
91.3386806692079
91.2955849544214
91.2598300207819
91.2281899751753
91.1802404130573
91.128554859827
91.0846397058996
91.0216027746137
90.9318501036939
90.8238559179999
90.7549490106646
90.7133209330877
90.5907387861729
90.4465285664077
90.3663864493214
90.2747773156484
90.1170297894577
89.9997621431163
89.8663460611967
89.673718605429
89.4897064993845
89.3401670277804
89.1959605106815
89.0295771576258
88.8686137073939
88.7467001134613
88.6072225858179
88.4506323235414
88.3000805365497
88.0326552238455
87.8105261521109
87.7020484159718
87.497486547215
87.2918009700165
87.1521355102045
86.9454609132402
86.719715745887
86.5586219551065
86.3832261775901
86.1515250246532
85.9196275602123
85.7189692538471
85.5053266037929
85.2853942614237
85.0909913580113
84.8939673697044
84.5973339661873
84.3143782454442
84.2205311273349
84.0827374205943
83.8541464729514
83.6113578555596
83.410758553309
83.294489904543
83.1686133312092
82.9563238549239
82.7773257544841
82.7209396867297
82.6878983565931
82.5910439312658
82.4727997989394
82.3797446016897
82.3215180811188
82.2318302690302
82.14238145964
82.067239495299
82.0714165506402
82.0988410872498
81.9892242854247
81.8254463027775
81.7551864227105
81.7583055076345
81.6651296046385
81.4394425210817
81.2783240438924
81.2584374938018
81.0022294110904
80.5460416152203
79.973593182967
79.3629666244307
78.6653291702209
77.9437625456378
77.2463052734492
76.5729106216261
75.9138907026212
75.1963485719123
74.26548278127
73.3779083697297
72.9849210434329
73.0985243597662
72.9065328709991
72.3361576710107
71.6391105176267
70.9035211327731
70.1270602128874
69.2979106537043
68.4888388615045
67.6790862058318
66.8502475775791
66.0450864996327
65.2352611596084
64.4443004113739
63.6806868926719
62.956867176315
62.2309563347787
61.5364612106811
60.859965982294
60.1785482470835
59.5071506895334
58.8050022730723
58.031523080789
57.2433494544582
56.4264858557171
55.58425735101
54.7865438633194
54.0737612348671
53.5299489317919
53.1459451559105
52.9820284722867
53.3098365821135
53.8751536191499
54.5095324845914
55.3171474272797
56.0993489370346
56.7930557855413
57.7001477538212
58.6780339613634
59.4738744527294
60.1731795622939
60.8978296356687
61.6563488803578
62.3996483490623
63.1693101660428
63.9285038652532
64.6371515838875
65.3207760502619
65.9458698095019
66.6111691980803
67.3938048654737
68.0873385708112
68.6347981586959
69.1480574676505
69.6829925414079
70.1977200849156
70.6990099024312
71.1850329912961
71.6758771518597
72.1355167496095
72.6079791136045
73.0899708355373
73.537416580633
73.9495244522056
74.3810217064543
74.7738689157457
75.161400503186
75.5464598255992
75.9062391919715
76.2474738395796
76.595022312936
76.9463717307897
77.272130710641
77.5898651860168
77.9135052439799
78.2204766233282
78.5037758542382
78.7536157177045
78.9900577750818
79.2475361557094
79.4944110814528
79.7236522765574
79.9846232402916
80.2436167969034
80.4766977862405
80.7055211413941
80.9224802985149
81.11246034355
81.2854707377132
81.4637322317339
81.6621029507378
81.8326038457498
81.9892187917465
82.1301975153483
82.2532515640431
82.3378820341473
82.4339451065193
82.5560579253311
82.710871477362
82.8369500639123
82.9690053677466
83.1203234393881
83.2602925783284
83.3974353684239
83.5336919699614
83.6419323767557
83.7647626904279
83.8828728490754
83.9775494644809
84.0326604659802
84.0272174337777
83.9939756648766
83.9816862045884
83.930758973496
83.8161729189494
83.6474317861226
83.4484634318471
83.2069767182076
82.9224051746744
82.6013219627829
82.2280081488311
81.8212461882753
81.430763836627
81.001178430397
80.543717598015
80.0985191479027
79.6666749868773
79.2712579263255
78.8918178078623
78.5187159289999
78.1939403107747
77.9198375420741
77.6896005267342
77.5080303532784
77.3885895009828
77.2870007439207
77.218312066499
77.143052811989
77.0917010440343
77.0766023777035
77.0699885043015
77.0241308305557
76.9616976027892
76.8861686101944
76.7754355088971
76.5975361699517
76.3779596756411
76.1617951137811
75.9208067850652
75.6301498609549
75.335304930072
75.0154763694591
74.6583511734131
74.2965811314354
73.9275536454853
73.5242093298373
73.0755028053621
72.6093018694355
72.1626575633423
71.7312014441347
71.3042569294677
70.8494721469052
70.3646117111223
69.9156632010045
69.513851969406
69.1208698456595
68.752080462335
68.4107301769721
68.0858705117067
67.7629182580667
67.4782862090903
67.2373660858381
67.0205321364191
66.8473868415124
66.7493468850887
66.6554597083915
66.6215169648105
66.6762087856986
66.8427881075908
67.1398153855489
67.6515590571549
68.4361057425735
69.4127650087536
70.456418509005
71.4956615962986
72.4631770774063
73.3410191990172
74.108848463578
74.8002568127519
75.4709940178349
76.1081261087785
76.7135918121772
77.3006792662946
77.8724242673772
78.4367737820131
78.9710962950908
79.4750784912592
79.9711939236626
80.4159689147036
80.7920223852724
81.146722400059
81.4599988608296
81.7550211963978
82.0195270038902
82.1694733497734
82.3489395504638
82.6702280195915
82.9801920176964
83.2686634355479
83.5389070678205
83.7939635252031
84.0182590654245
84.2599194418287
84.5022560798946
84.7337467761269
84.9147370688911
85.1100993533439
85.288421269933
85.4727721052483
85.6708766443945
85.8694195186161
86.0288138457169
86.1772775538636
86.3234226443848
86.500576199097
86.6677469370673
86.7953543831126
86.913608795101
87.0306609910987
87.129691195295
87.1868108861285
87.2080408886322
87.2114668921155
87.1507829052344
86.9871332160746
86.6522787749413
86.298744258406
86.3418270281127
86.7750959873436
87.2264956279124
87.6037956256907
87.9140972705865
88.165255755389
88.3491611953484
88.4879318802097
88.6414554857151
88.7658983131721
88.8830640766543
89.0006298397823
89.0908057241192
89.1759376257817
89.2427420030674
89.3118688801163
89.3786780705189
89.4396548665082
89.5133834169549
89.591479819739
89.6213226773555
89.6639014502724
89.6977427540814
89.7294441642801
89.7759535153329
89.8155442146788
89.8573514172039
89.9070193570498
89.9455108146153
89.987423340851
89.9972714544348
90.0073008788916
90.0716343718295
90.1434911496199
90.1912525304714
90.2101161669044
90.1997976881803
90.204909752275
90.2405725415805
90.2682876625787
90.2634867788836
90.2772694520868
90.3169789628007
90.3570672503134
90.3429440225192
90.3333943215608
90.3181322351236
90.3449187875275
90.3695250283377
90.3440475755756
90.2803570973767
90.1971789997034
90.1233388326008
90.0176551146715
89.8315961354082
89.6079157463455
89.2855162328845
88.8864846079728
88.4431052764957
87.9293732568533
87.3769214956311
86.8576307764655
86.3615106870353
85.8936354606351
85.4230715780516
85.0412831142879
84.8226606966908
84.7803886135984
84.8745116726704
85.1365057036554
85.5362162410389
86.010602668782
86.5247388913942
87.0899906134781
87.6084928682597
88.0527176846509
88.3289361693237
88.5134739975747
88.6857890169577
88.7889513239037
88.7963083379259
88.7530477254271
88.637581839391
88.3769248151078
88.0156965513271
87.4447040363137
85.7053531169448
81.2279660385639
75.4844153006103
73.8374714302724
77.3067505782801
81.7741641820853
84.7259171253656
86.3180541722409
87.1634844544304
87.5029458964582
87.6204389208559
87.8957795382802
88.1811138193406
88.3031646346847
88.3454783922464
88.402232665524
88.4508025015836
88.4586836111152
88.4467956124526
88.4532879951363
88.468431886884
88.473218761542
88.4417469018154
88.4156069024943
88.4195046597332
88.444760170319
88.4719487136904
88.4936386286023
88.4745188591751
88.445464447725
88.4188994597335
88.43675072353
88.4507743256621
88.4248961367545
88.4318314412782
88.4410457462414
88.3800272804745
88.3603225123496
88.3459487032373
88.3039433779834
88.3020430754519
88.3158029528203
88.2239200201927
88.1289071066197
88.0819220130954
88.0472767433526
87.9890607263314
87.9670811429413
87.9111018258773
87.8282987923066
87.7703522097923
87.7481881435547
87.6904710967197
87.6222754434648
87.5544082266772
87.4719405261105
87.3862959455636
87.3120829677738
87.270891504797
87.2888267976919
87.1675405939999
87.0071313638055
86.9658799998657
86.9584886666561
86.8886856954242
86.8061668911806
86.7742621975121
86.7538979152357
86.6825173457172
86.6308667137427
86.5669439682496
86.5913763575265
86.5912171115999
86.5558281581719
86.5893763307268
86.6627604802427
86.6617702933154
86.7001333793885
86.738686889031
86.7552548836448
86.7775720501056
86.7791922877223
86.737567999579
86.7642334560149
86.8316548449631
86.8811910730157
86.8880069908947
87.0461348931076
86.9934468463317
86.9054397626252
86.8932092385917
86.8972623183724
86.8628059867321
86.8216734515952
86.7537424649333
86.6415790881292
86.5321549824738
