1798
3999.43349933624
650.420452594757
1
128
4
96.8481602459464
96.944814642986
96.9564301004904
96.9147284475385
96.8517276661769
96.7942167759826
96.8383355386334
96.8831976507847
96.8912832555577
96.7973039467221
96.7896328660436
96.8899233976732
96.9236214915174
96.9868409097484
96.9262131303911
96.8685571232069
96.8988389265846
96.830579130867
96.8119190344703
96.8628482584792
96.9566972874124
97.0147621401457
97.0090361131736
96.9933450179754
96.9363904395166
96.8602536448533
96.7682194707828
96.8126438730786
96.8632558656888
96.8056684230637
96.8029100558107
96.8446553283784
96.861212187168
96.8445886318145
96.8240375341285
96.9623527925204
96.9758117949614
96.9590048725062
96.941961529162
96.9160447128753
96.9240796032509
96.8224461872367
96.7489944175642
96.855044071261
96.9888027969721
97.0698843433926
96.9813343331621
96.8242693003822
96.7532639562414
96.8588146342187
96.9920698890934
97.0317467249925
96.938337503424
96.8444664261608
96.8110768002491
96.906541919824
97.0268269319168
97.018846768077
96.9184534438341
96.931229561072
96.9042507649063
96.8790548222033
96.9051962066634
97.013263073974
97.1023256016541
97.0012798112542
96.8784810957342
96.8656808666447
96.8879978376725
96.9924099420007
96.9801476798799
96.9290871939037
96.9503401915649
96.9802886185122
96.9023311236955
96.9213147952812
96.8957978223073
96.8874220814458
96.8614563096281
96.7783325246573
96.8199126299088
96.9240296186545
96.9247125130788
96.9517189663575
96.9635963761421
96.9324825178919
96.916770425868
96.9634521960581
97.0564380208912
97.0904797081051
97.0704351906069
97.017039693032
96.9509400245624
96.9002365829552
96.880121221419
96.8746628818464
96.8984895946425
96.9271247372646
96.90468867205
96.8670187692247
96.9714282157876
97.1609329724568
97.174974204126
97.0768164163147
97.0455996042202
97.0251901713097
96.9766440597665
97.120842323584
97.1047735946337
96.9279173763855
96.8150550933449
96.8863055175959
96.9629337060449
96.9070322945284
96.9505185155815
97.0050490542027
96.974951868155
96.9949378032202
96.9708117464437
96.9953762820789
97.0155001163912
96.9887872292041
96.9278495101138
96.8822427357683
96.8766561625891
97.0345704590248
97.1654951035858
97.0877322003234
97.0712408594733
97.0479742407985
97.0541592773719
97.1249177301649
97.1068447606349
96.9904033697856
97.1001244674526
97.2657189362678
97.0527001365593
96.7922528554326
96.8729198219409
96.930759240377
97.0188780310582
96.957156038764
96.8974362249536
97.0653955674201
97.0245638528647
97.059308721659
97.0932541550828
97.0174645078383
96.9488977123257
96.9794309248753
97.0614288540903
97.0263471112197
97.0832615292678
97.1059169278641
97.0832665110655
97.035683188465
97.0063341092823
97.116961496935
97.1366513173016
97.0331156565604
96.97951266492
96.983236156301
96.9810701995948
96.9657896429801
96.9973478771779
97.0142813543461
96.9768909057983
97.0429845956858
97.0498969499185
97.0580675433213
97.1005530076579
97.1155174092966
97.0600276055548
97.0170743080927
97.1035615661977
96.9903016198496
96.8837848449988
97.060778922672
97.0482769629807
96.9428942763062
96.9939291351318
97.0354124113776
96.8612712812235
96.792540856669
96.880227386768
96.9115195159885
96.9501296507407
96.9672923405751
96.750691739348
96.5317326888446
96.5922559543678
96.78640438111
96.7622556805139
96.7093819987423
96.7219657923069
96.733007187638
96.7270208191975
96.5331772209897
96.4117216218204
96.4214137046488
96.3210163981744
96.2912852663443
96.3390673308287
96.3501839162044
96.3711227132667
96.2890580597371
96.1729676326741
96.0744497463106
96.0351257095689
95.9591146701146
95.7219288512947
95.7429246683148
95.8380640493917
95.7578642842296
95.7227182750979
95.7311221702235
95.7795764498146
95.8392520161376
95.7666400683004
95.6138171405399
95.454750138032
95.4551099043779
95.5860720595915
95.4564561682164
95.3004514563335
95.2820598256849
95.2340148486379
95.2910171487989
95.413600799294
95.4219882973671
95.3012986122806
95.1977828683845
95.0898897752138
95.0892487763053
95.0902692018278
95.0276788164242
94.9569829461623
94.8287842303357
94.8208069291259
94.9680302431788
94.8876073952884
94.7443683994955
94.6885558884513
94.674275164833
94.7008040328755
94.7092080613879
94.5666522447658
94.5881076433148
94.6649806916274
94.5218856633841
94.4213504413283
94.3999871985671
94.3972212562076
94.3908241607215
94.2208963696127
94.0153078272125
94.0721415702262
94.2056950120636
94.2183859940615
94.1671612422788
94.0280239660467
94.040918892837
93.9969559773301
93.8700671077292
93.7997702002749
93.664384645007
93.6265494663155
93.7604814742967
93.8537339873184
93.8057715510738
93.6088290995633
93.4699245154904
93.3956178709053
93.3040460459824
93.2437164261916
93.270338867782
93.2285728682788
93.0962480949236
93.0071157311607
93.1466815454628
93.0993718673595
92.9152958266057
92.7208036486732
92.6647211441952
92.8231228340252
92.761788937428
92.5333098714262
92.5584482199782
92.5454231661256
92.3362454602877
92.2008799350744
92.2130710151949
92.0692072953362
91.9509571930338
91.9612131669803
91.9032735125838
91.8050019853358
91.7297871630611
91.5990048683429
91.5183200735613
91.3752061414097
91.3231028427942
91.2582928054151
91.1777584394669
91.1059433253798
90.9950708442049
90.8737721037129
90.7953271647737
90.718900548697
90.6008919483689
90.5484764004836
90.4961791979063
90.3492976476513
90.2545445669555
90.2077655575422
90.1605742616799
90.0357572977424
89.8780292111714
89.7305875471019
89.7594692603981
89.7428372104234
89.6073510814999
89.5655263562429
89.5410314976673
89.4093937734779
89.3667192178407
89.3733859018196
89.37971076546
89.3679651850128
89.2421602901812
89.1906706630763
89.355258766189
89.4517675327503
89.3927618517911
89.2866457013856
89.1520390755059
89.087047406768
89.2019797194097
89.2606903873565
89.2814721921853
89.3505146353329
89.360792357608
89.285877084552
89.3479382295228
89.4058298614387
89.3271447664554
89.35534659149
89.3892453395195
89.379437374388
89.4409466117605
89.4790700708832
89.5552110765127
89.5137952093727
89.4617671341997
89.549399657556
89.6384085437074
89.6907449567789
89.6509445149943
89.5247215991689
89.5362488832461
89.6335220137226
89.7658840941682
89.6868120770129
89.7137864453836
89.8160718267435
89.6883786724603
89.5662357777605
89.706332948218
89.7487626890562
89.7601527554662
89.8692333448401
89.8644234853946
89.8258225918757
89.8869718135344
89.9284388620325
89.904042928758
89.8892183903719
90.0061767666105
90.0793463155647
90.053742689478
90.0201151173747
90.0719912778809
90.220482121418
90.1946620308901
90.13323571099
90.1286856887311
90.1422203259151
90.314950607387
90.4814979135973
90.5420668367731
90.5320049318716
90.50880338133
90.5159052345337
90.5755566420812
90.6625706787811
90.7862134975642
90.7858033714193
90.7455518799748
90.7508872442616
90.8005166477306
90.7277330353482
90.6015260411902
90.6266195777371
90.6983264416925
90.7060189183015
90.6753573922665
90.7227230977864
90.8549069336426
90.8964094296343
90.8833622516672
90.8436679772519
90.8956547270651
90.897433347449
90.9867227086937
91.1317759037748
91.2037734424949
91.2382295523753
91.3301825244997
91.4305598377571
91.4584348915405
91.4838782052363
91.5400719236922
91.5467492572158
91.5771520308351
91.5700261268585
91.5999988675134
91.6948110304527
91.7317402185295
91.7124924368752
91.8178060027747
91.8783307275827
91.9155722211207
91.9200423742062
91.9227883622395
91.9810957078641
92.0010104783567
92.0461614786202
92.1063803599794
92.1248421088729
92.2590087013615
92.3901505528393
92.4162219058066
92.3557024318084
92.3596884768092
92.4643471203029
92.4836693281267
92.4615099173286
92.4724768229625
92.5237476885681
92.6226110517371
92.6968541348646
92.7499770830905
92.8297346680082
92.8516125671869
92.8364914948135
92.8500017580583
92.8483567517215
92.8733673002551
92.9533598368159
92.9993758327696
93.0343057245389
93.1415065561646
93.1786781796426
93.2000900544709
93.2529811419697
93.2413075666303
93.2385361389206
93.3101277392849
93.3270975587343
93.3492563365546
93.3612866454777
93.4431437432764
93.5406736701172
93.5249438382395
93.4741779652149
93.4531095032135
93.5546258657303
93.646799596891
93.6254120514405
93.6676572341404
93.698431282791
93.7341294332098
93.7966876446019
93.8106713271098
93.7963948113349
93.8649726122707
93.913187860319
93.9066578097636
93.8499327188115
93.8209029221389
93.9316065484037
94.0150198486811
93.9642057092312
94.0196942003034
94.1353936024968
94.1628519204775
94.1783654281272
94.2374607255308
94.2868214478152
94.3041707967169
94.2394489231517
94.2599694263672
94.2779766794705
94.2245443001133
94.2465495616196
94.3307664577811
94.3579551283221
94.3790561431539
94.3735356856097
94.3985138715395
94.4751423358905
94.5345136344205
94.5482316004607
94.5416077677264
94.5561891021136
94.6416199252923
94.7012413344427
94.6285677372833
94.5672324340949
94.5868392020594
94.6128988175448
94.6624521873779
94.7288119546423
94.7617334731181
94.7872535793793
94.8181330524849
94.8367312929375
94.8076576695871
94.7636537658666
94.8400980301169
94.9338060592797
94.9714766785826
95.0107329441521
95.0464493951598
95.0191110241376
94.9890020688445
94.9952465537946
95.0180326199629
95.0651997016801
95.053435977376
95.0220082279618
95.056257494349
95.0675316971573
95.0614126135697
95.1172598896382
95.207188750997
95.1778360636867
95.1403262509349
95.2074444782574
95.267469350247
95.2794753434864
95.3174301798605
95.3263919585686
95.2896735849231
95.3117915311296
95.379161911477
95.3657763762941
95.3472767482678
95.3783560026866
95.4028470543018
95.4457244183584
95.5019870132746
95.504757417564
95.4951567673854
95.4963425277883
95.5688583465463
95.6209603429079
95.6054731230147
95.6122899700759
95.6489210682795
95.6817886866932
95.7534141347308
95.7883807914692
95.7774381774915
95.8189078585125
95.8817394284203
95.8872363930514
95.9363974259182
95.9470568786986
95.8913218238027
95.8399865774751
95.8409385501903
95.8538473324677
95.8430334233967
95.8882999924064
95.8618672671907
95.8769313763345
95.934857804094
95.8952114734856
95.8589119728827
95.8185889046668
95.843094805056
95.8623184489877
95.8265030471338
95.820433538844
95.8103909230192
95.8111184908838
95.8548269610599
95.8732959448095
95.866595733431
95.8857831198817
95.8618400003124
95.8167800673057
95.8420865392943
95.9022561031749
95.9376549331639
95.9097158401958
95.8902257973386
95.9206422121811
95.9550949568115
96.0042647296313
96.0677066389781
96.1282088985522
96.1425420527504
96.0893577403902
96.1437818471956
96.1795578304762
96.1003739024156
96.0732668148218
96.0545646533736
95.9910545126824
95.9888533107047
96.021353550325
96.0592469111996
96.067576146284
96.1028695608009
96.127865954763
96.0652599400883
95.9510907117484
95.954616917835
96.0263301660483
96.0801244171044
96.006653650939
95.9678455324562
96.0392783880258
96.0537243431231
96.0204168383944
96.0107545552988
96.007848870231
96.0234573116095
96.0260138412678
96.0315300763787
95.9777680480758
95.937015526049
95.9875182191109
96.0044507437887
95.9403898869897
95.9259062608301
95.9820790927987
95.9789340730982
95.9676655475715
95.949464882877
95.880810034656
95.8668057380493
95.873788976991
95.8356082564095
95.8199591685973
95.9143088683078
95.9570711460639
95.9366140967863
95.9304323063524
95.8965996959304
95.9132003122415
95.9938889380755
95.9298811822204
95.8770359220933
95.8814302413567
95.9328200446441
95.9399187139235
95.9193325715934
95.9601558348431
95.9494608936371
95.9278681060929
95.9517303656902
95.9396964075093
95.8966298605825
95.8513221611709
95.857930864927
95.7968547069403
95.7865552708175
95.8329407409542
95.7687214633245
95.7372889172067
95.8390385997412
95.9423331596482
96.0666918553375
96.130078825039
96.0929336544129
96.0657380072657
96.0971762551983
96.1368719222658
96.1641775012546
96.2140552454301
96.1874222642998
96.176347923524
96.2213220567784
96.2900630367396
96.2987140753043
96.2944441883654
96.3299794189978
96.3162087672694
96.3247859597273
96.3329809434388
96.3355876874185
96.3455754353718
96.3692408881002
96.3603515686553
96.3526881594519
96.4032193101607
96.4560033581316
96.4798450958633
96.4609664778463
96.4560548383645
96.4659565132063
96.4626199296471
96.4656256452982
96.4370984274328
96.4446398956303
96.4603557666978
96.4065536753901
96.3712333071576
96.3975716548043
96.4237836572425
96.4408945901528
96.4651164638289
96.4441392415161
96.4511366328607
96.4826478156747
96.5040165722495
96.5194152450278
96.5522773016261
96.5601733169003
96.5475109886119
96.5912248668338
96.5936312716056
96.5877181548623
96.5900662866553
96.5715567864886
96.5377729849195
96.563922677331
96.6757060033498
96.6633721831534
96.6449909643917
96.706314844565
96.7211912023453
96.6975787049731
96.7049008307145
96.7329950280677
96.7966750535228
96.8441701452417
96.8173752848363
96.7715449590091
96.7776866354813
96.7947681534884
96.7432732422166
96.7604972722149
96.8014761589193
96.8119831384366
96.8384867262654
96.8932328068835
96.944510846074
96.9572139133387
96.9234673236609
96.9456600874364
96.9736784826809
96.9501792585712
96.9218437049449
97.0056645983391
96.9357072208842
96.8521042598536
96.9162582765514
96.9135155385322
96.9326594150642
97.0177168320707
97.0665843150396
97.0693521441907
97.0556646085018
97.0461383220163
97.06532452882
97.0173082824685
96.9556281769206
97.0167602563564
97.0479755399616
97.0549227675594
97.1149651377378
97.1219924783644
97.0349408256438
96.9377230968936
97.0120864297493
97.1173967708144
97.1083117877784
97.1174030467382
97.1239112414718
97.115445643742
97.125514301261
97.1895259816223
97.282166799882
97.2240314169241
97.1792131394911
97.1412491834255
97.1044985306685
97.1004341463581
97.0963646250454
97.0871631725609
97.0219704735283
96.9713824593614
97.0117205942776
97.0580179135802
97.0305545417202
96.9785097598848
96.9178262414057
96.898747003024
96.9169061795091
96.8772410703774
96.8364261656449
96.8448676320738
96.9081519697823
96.9725644079013
96.9091287833246
96.8310009093515
96.8511352580608
96.8616144374271
96.8418632356486
96.7986867875144
96.8034752253361
96.8547816478084
96.9260824446058
96.9105958958523
96.8500578495051
96.7789560043973
96.7604648107131
96.7601023376069
96.7527521893148
96.7910735199763
96.8627736577462
96.8733501649177
96.8962581139392
96.8927469908168
96.842216261977
96.7491236033956
96.6379051464383
96.6215310346133
96.6549042373582
96.6663550558291
96.6274310283113
96.5561509504321
96.491590527626
96.4671252335219
96.4362972941178
96.4523063018971
96.4920633458869
96.5058478080657
96.49129071903
96.448743855645
96.3669219558523
96.2939763326441
96.2664078842515
96.1267860848053
95.8268868560735
95.5383210742788
95.3019289047673
95.1166644879841
95.065635199127
95.1897906658701
95.4367482661779
95.6309323115333
95.7836101758787
95.9464679744548
96.1526767189831
96.3153543365828
96.4561960028202
96.5677135934646
96.6367223485535
96.7316305445436
96.7740173973385
96.8457258812564
96.9024521755265
96.8878493296587
96.9516709794234
96.949587090929
96.9014023986649
96.9951392470821
97.0229185695562
96.9421440692219
96.8676437457992
96.8495859239896
96.8966171896434
96.9636624321235
96.9725941235297
96.8801319044996
96.8771702326871
96.8886500267696
96.8980038515851
96.8683634399177
96.7780285307281
96.7970154440405
96.8923109041327
96.9286423384168
96.8540925222609
96.725278236566
96.6946586792011
96.7450811171843
96.8058953913787
96.8279379097517
96.8580907832472
96.9268439597779
96.9093414001394
96.8666228874804
96.8259275085957
96.7981974101822
96.8270735579225
96.8736028649546
96.8978078494571
97.0040871046348
97.0102310250682
96.9075224187718
96.9589586824082
96.987766939328
96.9736256262158
96.9516156654446
96.9418854765146
96.9789691862318
97.0611422756305
97.1357804517406
97.1786263564691
97.2442680421852
97.2001675537021
97.1827765469972
97.3500522610148
97.399728928687
97.2965730423584
97.1612959267631
97.2095704619183
97.3292018728477
97.3614786664002
97.5180088455097
97.6377953999107
97.5890570541662
97.6667368619129
97.7863673922114
97.8009862888106
97.9327017153639
97.8178263987738
97.6499003598505
97.7385124765366
97.8310462663115
97.7835621458819
97.8645707908246
97.9977087422123
97.919475018601
97.9372816147252
98.2455234730756
98.2566719401562
98.1988340822704
98.2508758959401
98.3832758386679
98.5032439966198
98.4603872854926
98.3452356325209
98.2650550814484
98.4153990305634
98.5504501558804
98.7506132799621
98.5516917352892
98.3826095654095
98.815388858294
98.7853597872262
98.5980373926948
98.6787647781985
98.6729396091821
98.9026335884923
98.8589750930958
98.5944254675949
98.9834761114102
99.4552317058893
99.3496771592401
98.9290952554813
98.7248825843988
98.736005545492
98.9913145616557
99.079415527858
99.0052458350073
99.0866111317267
99.0603620323802
99.047529168657
99.4741409905793
99.6812160004681
99.5767478805332
99.5475205784022
99.3707435531612
99.5577575957481
99.4749208085562
99.1770846404799
99.0274671510064
98.8799566891432
98.6226798749255
98.6430255137414
98.6842903101748
98.469145098438
98.4136885826445
98.3781058438066
98.2828325522312
98.2016304878233
98.0667517251695
97.99054691483
97.8502809062601
97.8656883437726
97.9273319344567
97.7464092736829
97.5781743782114
97.5568746485877
97.4805953592866
97.5434809061513
97.7715614703845
97.7789777383143
97.5453098608461
97.6389857540936
97.8673735342889
97.7744850321213
97.6704300663913
97.7385726879185
97.8327550039343
97.861568518853
97.6794283863422
97.5990682010672
97.5802292710864
97.62286635344
97.7971745483562
97.7017569685978
97.6142959625145
97.6245365943836
97.5822940955992
97.6444520128445
97.6843164196126
97.8578430822697
98.0014500309921
98.0374607543757
98.0890230586204
98.0356086204697
97.708537989167
97.6650608548146
97.7991986742445
97.9600871565795
98.0645501334865
98.1373695486115
97.9517634107759
97.8806926174424
98.1888097053637
98.582380798481
98.7700496136358
98.837565911947
98.8768040860597
98.7552530949732
98.8995786203031
99.2949062986747
99.3874436932113
99.3190651002553
99.0843777675695
98.9617232526109
99.0616225430646
99.0020538660471
98.8987064679782
98.8113561051518
98.8895700149458
99.3691706189653
99.4247334963208
99.100360569877
98.9949206593111
99.1130022799925
99.2795779776868
99.159091933044
98.7356713606481
98.4082068882372
98.3638998881404
98.6627471545889
98.9384955693695
98.8200151166043
98.7007363169161
98.8832231377027
98.778631764914
98.5688580154338
98.6612039627241
98.9047876158258
99.0182899587886
98.9397986652894
99.050265020543
99.2834520451416
99.149068697633
98.8887111980375
98.9231955700107
98.9348509572941
98.8776295549281
98.8779316141493
99.0117763731933
98.9288571017108
98.821562444754
98.9009475078951
98.7795799247807
98.4259138352476
98.3844412758425
98.3746075821433
98.4301104187519
98.3803575929964
98.2743029295055
98.3037498388883
98.0786244136167
97.9971177652987
98.1071849534169
98.1946210359005
98.2213518550405
98.2258462134648
98.1773210377727
98.2230554268421
98.2592636711683
98.1878223096447
98.0794694579086
97.9448548218351
97.9832610186894
98.0532017120497
98.0623241738537
98.0302220068082
98.026312868031
97.9943304311122
97.9083155842097
97.91513194155
97.892562903525
97.8936183300752
97.9471776148368
98.0271618115897
98.0288575328514
97.9301214234557
97.9296140924045
97.9677154275348
97.9767025679688
97.9650757105684
97.944122707918
97.9838797073328
97.9486780855436
97.8248610893824
97.7486752417058
97.8344010346442
97.8923441355476
97.869373596179
97.8990186656118
97.9041608136611
97.8712681877186
97.8446936613835
97.819263126976
97.8628046414352
97.9020647578242
97.8668330699616
97.8263577958758
97.8577501520857
97.8867135411542
97.8694560764537
97.8322667931599
97.8871747520171
97.9014941068569
97.8478222503227
97.8679010116726
97.8576904357476
97.8598825080225
97.9053059075563
97.8845286664485
97.8711050612678
97.8825321454429
97.8468880459026
97.8777227301544
97.8767517610108
97.8720627362826
97.92512506496
97.9022335119512
97.8462519292777
97.841098565866
97.8620971307392
97.8709273506949
97.8627452786188
97.8158208583349
97.8544921563541
97.9069592922507
97.9018549038029
97.8960772171105
97.881234868836
97.8467811005844
97.8733334886252
97.8948901348757
97.8244107043218
97.7555844383941
97.7673528847412
97.7948777915747
97.8255619296879
97.820290326901
97.7990023956134
97.7944572385984
97.777211851012
97.7887843416733
97.8460639798721
97.7887641664084
97.3113117595137
95.9853275371219
94.5587594413473
94.7720249004387
95.7661058197466
96.4662577209452
96.9550702701522
97.1803400763669
97.3166153708576
97.4661864761282
97.5451752696546
97.5658112245908
97.5684675123224
97.582740645737
97.6254479560741
97.6504097376807
97.5909757981827
97.5506417830896
97.5596716366158
97.4962501474493
97.4725375548416
97.4632289414351
97.4470316155091
97.4358363563294
97.4480706744672
97.4457376392752
97.4295399695385
97.4026889038618
97.4448592039389
97.4356454419072
97.3859809859793
97.2962937412922
97.1981146565828
97.0903282722866
96.9564917817235
96.8273777133514
96.7917095289938
96.6796072738503
96.540116330285
96.4032194184031
96.2586337473355
96.1163123518008
96.0011538874528
95.8512200657698
95.7439705345622
95.685686303329
95.5760148041543
95.4606351106357
95.2908006195097
95.1666841679388
95.112415304721
94.958573176092
94.809433936489
94.7567498116012
94.6799857060583
94.5509584582267
94.4986656481233
94.4339740498444
94.3455373955169
94.2142234697903
94.0266176034418
93.9484111911931
93.82037318226
93.5202613651129
93.2266566991902
92.9753434785832
92.6166850657228
92.1802386880509
91.8183777136672
91.5182914972498
91.4513419042038
91.8191202606926
92.0603734153797
92.186142932167
92.3251114714346
92.4883010098822
92.598977967977
92.776833442114
92.9169568265086
92.899770027795
92.9017310851353
93.0521045838937
93.1265190871846
93.1888244289278
93.2663677800467
93.3429350804955
93.4114653763819
93.4337360070613
93.44453456545
93.5124631095221
93.6007304880006
93.6350978401353
93.6797364729636
93.7506237168275
93.7864400761516
93.8285192419784
93.8945318165096
93.958332742995
94.0066500366911
94.0565301106903
94.1204194003956
94.1149156180914
94.1044452609198
94.2703707881218
94.3563159392729
94.3090788894827
94.3672925093713
94.4613657124295
94.49228320949
94.5408760140957
94.501095763868
94.4830981305604
94.7380257518399
94.7782670256194
94.7438726534067
94.7835911372841
94.8297623337754
94.8801516312577
94.8657272673496
94.8870954069135
94.9158707570131
94.9124337454055
95.0086992062501
95.0597389645519
95.0106606469234
95.0050603293709
95.0314139934098
95.0010084516562
94.9516754286652
94.924878878538
94.9138771876167
94.8773023629763
94.9325895916664
94.8888239628383
94.8391399155813
94.8454920543007
94.7998128522402
94.708224763559
94.5817156314748
94.4911753549766
94.5652148977046
94.5669142888154
94.4558734715251
94.3544782835496
94.2845558257104
94.2516746903482
94.2470690915802
94.1677889931138
94.0668534417075
94.0566382201312
94.0277855888694
93.9849584543848
93.9122790350554
93.8179553671806
93.7472814105761
93.6676592844884
93.5341401325354
93.4173429104982
93.3649912018492
93.3070870507418
93.2018054978146
93.0987337416223
93.0460643424546
93.0423990692351
92.928769137146
92.7582880698089
92.656107867748
92.4982221282799
92.1122160739934
91.5468916506024
90.8175460694419
89.9636230175414
89.0219648028734
88.1459441759556
87.3607276476911
86.6103434178772
85.9103596870059
85.2529528407849
84.4048809021801
83.5215400387172
83.1254211866098
83.2833231141331
83.2391146081356
82.8257771142718
82.3056241947883
81.7097647480293
81.1398384893885
80.6574934923952
80.0616535888948
79.3972568606021
78.7723983269169
78.1794602823474
77.5689322752817
76.963356645507
76.3672445485776
75.7494175619582
75.0838975703161
74.4698268304592
73.8561437808863
73.2038884179339
72.5394139924532
71.7456011206427
70.8632684719198
69.9727429107333
69.0198740414609
67.9255856485176
66.8026480340206
65.6852957907028
64.6000060376687
63.5394690237065
62.6602272117056
62.2225812813355
61.9656221994759
61.8575887579647
62.0204834282438
62.1964231039182
62.3456524011842
62.779534148966
63.2301983613376
63.490419379368
63.72026953325
64.0013829145926
64.32153348729
64.6050249592934
64.8889629826671
65.2105266468571
65.5153759242361
65.7852712446028
66.001160108795
66.3547254757372
66.8433060570774
67.1946786905361
67.4459203562018
67.6821128285029
67.9739240503512
68.2777903306061
68.5826246051915
68.9108976507376
69.2377761111232
69.5405128318328
69.8909618409701
70.2753501791471
70.6044179802655
70.9256037854761
71.2639310779717
71.552855810657
71.839094039382
72.1475526222424
72.4439829603046
72.7248178319836
72.9993413376054
73.2908986176734
73.5912200690894
73.8964467681812
74.1858782400055
74.4404499330615
74.7075560624792
75.000127718232
75.2920763921349
75.5419524847918
75.7745973729988
76.0352771127849
76.2967522003067
76.5461489168198
76.7910014800337
77.0178180457058
77.2366555926668
77.4536997332754
77.6984159563678
77.9335246933984
78.1472612444291
78.3444891395793
78.5564252665787
78.7526382937412
78.9407354133228
79.137249203864
79.3250558814149
79.4773520800224
79.6480285526414
79.8527508478511
80.0410983024138
80.210546499929
80.3749660585577
80.543135127376
80.7122092613597
80.8622563469032
80.9997936833855
81.1328047835367
81.2660553700028
81.3800870305213
81.4869612784944
81.5882593816163
81.6673591375895
81.7017660126687
81.7158091812513
81.7150746387025
81.6585692222096
81.522600172089
81.3187058853168
81.0517411552425
80.7005598653216
80.2958531704763
79.8423511281077
79.2742364263002
78.6896793371697
78.1656472180594
77.6791364284504
77.2563642258578
77.0227739269767
77.0474817620263
77.2874532868479
77.6894796533277
78.1930474869968
78.6889753881402
79.0763691432366
79.324944708072
79.4597634383954
79.4418455924908
79.2910602289275
79.0722011915432
78.7836725168672
78.3955493227733
77.9450146073829
77.4585014998294
76.9255346600287
76.3748242450427
75.864502605939
75.3857193780465
74.9293752414419
74.4967849942685
74.064178793268
73.5814775832919
73.101706467239
72.6277363255053
72.1481054425118
71.6762133809915
71.2221227870183
70.8618532428576
70.6744044010895
70.6429822843886
70.7086549620084
70.7184588835609
70.4999585586027
70.0201621625583
69.4394031248712
69.0264405561636
68.9869862107006
69.2587531830855
69.651440275759
70.0549216262718
70.4026388136613
70.5831760286223
70.651249696783
70.6449428409834
70.5015960620121
70.220358154628
69.8508106321454
69.4204839309486
68.9936782549084
68.5858702404159
68.2761880653098
68.0919945826494
68.0526600443035
68.2205857756261
68.5622511639098
69.016483169732
69.5744513992271
70.1837470532892
70.8794216640642
71.6227488017002
72.362462324864
73.0967748597106
73.8630750387812
74.6179236230265
75.3603992628551
76.0930013415049
76.7777447661562
77.4013338688528
77.9860492973504
78.5367335248992
79.0623064387009
79.5727332324668
80.0471160925809
80.4236366151815
80.6214750883784
80.8782124231082
81.3235880277325
81.7659843238511
82.1381536382791
82.4637773177644
82.7902703455815
83.0732662752688
83.3585523901342
83.6629831607909
83.9348039064637
84.1665045660535
84.3735476960181
84.6039129587674
84.8418718312517
85.0391110837283
85.2279069846266
85.3952685156747
85.5575826027757
85.7199326953827
85.8524880327791
85.9595914153667
86.0617401866571
86.1382566375397
86.2083732020171
86.2687989209321
86.2962417838106
86.3263941731796
86.4620395272433
86.6424111380754
86.8065743950444
86.9389549486418
87.0716368424159
87.2091213843972
87.3080767588527
87.4097887393098
87.4537176876714
87.4018891072284
87.4350865619815
87.6166798167755
87.8043177434351
87.9562789342037
88.0817296770398
88.1996379327914
88.3190654021954
88.3869946371042
88.4434806653971
88.5203113859487
88.6388027945308
88.7412506903518
88.8369987888673
88.8778876667908
88.9107369442307
88.9666431662504
89.0316905183807
89.1303325372415
89.1963082238127
89.2318139147709
89.2813414412731
89.3410142060869
89.3864324200241
89.4407861926314
89.5065429983697
89.5365831853284
89.5740317959901
89.6507634017906
89.7111577108698
89.7345930330898
89.7565088593151
89.7910893381812
89.8282406693772
89.8847185336491
89.9395747309806
89.9588224093698
90.0094044068796
90.0542418577039
90.0852704238999
90.1067797515953
90.1176318366672
90.1552487365331
90.2260223340914
90.2676236095376
90.2925971384895
90.3413239267003
90.3664977261929
90.3994343595733
90.4195803830048
90.3985805263553
90.4343432317349
90.4571598282163
90.442746616225
90.4465079802035
90.4284734658822
90.3919078990989
90.3941851602445
90.3938226349218
90.3487338378563
90.2905577339188
90.2294878484538
90.2096023349013
90.175464586328
90.1054846587239
90.0527024684663
90.0320257645609
90.0051050412008
89.9547581818833
89.9332141272361
89.9092070802312
89.9255461476959
89.9374911371313
89.9554844064658
89.9908135648432
90.0043985333137
90.0207359279847
90.0028088392991
89.9006125692811
89.7489088206865
89.488989146652
88.8489523730146
86.7936455384824
81.8941597892872
75.5096570093135
72.5629209442435
74.9981276670248
79.4983070393352
83.0704083149546
85.3227323934397
86.6296599678268
87.2226259887958
87.4569625752322
87.819853693672
88.1746545106406
88.3548997824161
88.4201203720616
88.5162918201385
88.5743183055708
88.5694362789133
88.5680974121939
88.5396500481161
88.4525748747245
88.3943253434663
88.3374073269875
88.3073386182304
88.2710529662647
88.19953386982
88.1445455716326
88.0197112407031
87.8901538992091
87.826470427524
87.7299344683956
87.5649057177953
87.3498919473466
87.166336601975
86.9496181035558
86.7552891220831
86.5139192749019
86.2571657341054
86.0477256081364
85.8827205372586
85.7464209886577
85.6382048559408
85.5826770117374
85.5631226987099
85.5922559295427
85.6909825945787
85.7395532221921
85.794218578924
85.9678094032509
86.165590970224
86.2272585502393
86.270009556641
86.3445822576065
86.4457693722734
86.5266722325061
86.5598132015998
86.6190194347986
86.698917725961
86.6946169510676
86.6710052854398
86.6106266995484
86.5562012059576
86.6474295509293
86.738054476639
86.741265840706
86.7454774509251
86.7500736219037
86.7351206631908
86.6953664807148
86.6665384901082
86.6761128459549
86.7059396391661
86.6673933838478
86.603493896716
86.5610546415215
86.5738675668833
86.609252426531
86.593787094025
86.6307401465692
86.6375245890425
86.5463410615001
86.474817408902
86.44135965229
86.4473108223419
86.3029631574212
86.0224816372324
85.7675318338315
85.72244335272
85.2927475652955
84.3294053916944
82.7891782611125
80.7586717699241
79.0831594653887
79.0286438948143
80.437222150769
81.9280057180007
82.7873758554948
