1798
3999.43349933624
650.420452594757
1
128
4
96.7354095883524
96.7016595143276
96.680695610056
96.6542054818496
96.6736985939067
96.6482559348009
96.6766078562967
96.7739638081768
96.7054078790129
96.6050406166835
96.6765292215033
96.7584333907313
96.8205623992296
96.7400027781321
96.7324575760716
96.7777902749228
96.7016179527701
96.5967612406579
96.6427370800077
96.7130707447471
96.7670705781548
96.739059268205
96.654413430532
96.5797188181679
96.584892871676
96.6939135871542
96.7845722375763
96.6662893130115
96.6187465603343
96.7068150905055
96.7791338082365
96.7762521796135
96.7226960602756
96.7153510033089
96.7309207141544
96.7118584224626
96.6942065233456
96.6551844202163
96.6677745511305
96.6563908147458
96.6139932155967
96.5943008322457
96.6439175577079
96.7076806168703
96.7476673331849
96.7339830018825
96.628749948903
96.6225264641491
96.6860869779276
96.7424205757713
96.6517189144221
96.5902489156476
96.6500063539157
96.7338193022572
96.5928828242916
96.4713038841171
96.5798690256152
96.7041160114883
96.72190788329
96.6321263703911
96.5664881367982
96.6958983890775
96.6696878024888
96.6228189619735
96.6824564333981
96.7345640672047
96.6938475251515
96.6369937796795
96.565743081686
96.4757856051668
96.5309882465239
96.6895924743411
96.5770456967018
96.3766906070483
96.4006930894282
96.5328071264877
96.5875273935405
96.5560275053694
96.5445682740116
96.5287752588321
96.6921477643329
96.7843706631978
96.8476864561165
96.8828280303809
96.754663745686
96.5583252837693
96.7329726944718
97.0066770581042
96.6981938239085
96.5882843197234
96.8346740548185
96.882378789142
96.7615720531361
96.5801073411907
96.2961767075147
96.174609001726
96.4734844796783
96.5960752548715
96.644136633612
96.9569828224728
97.0170997931321
97.0163699547188
96.9678785389065
96.8928405181847
96.8698390087959
96.7473803967662
96.7590584061268
97.0900335076062
97.1576177495977
97.1324953951958
96.9035076728319
96.6650683815947
96.7520121268576
97.02124947487
96.9873949309368
96.8207768371241
96.7549172724142
96.6864525311163
96.7698043519163
96.7310787035991
96.6724592235558
96.7622875531203
96.787408209558
97.0280730357934
97.0407205262789
96.7686633493819
96.7818383172445
96.7916726337821
96.6099047074623
96.4231714674717
96.5371369222369
96.8181553487161
96.7684609940641
96.4887128239214
96.6786216522908
96.7161106940853
96.5611693656644
96.5974533917205
96.6530541139551
96.6047158930003
96.6920608953441
96.9638476810003
96.9064977394122
96.9275326895926
96.9953849590586
97.0672893710323
97.0446242485979
96.7879760344996
96.6054866349022
96.7128469259674
96.830920835932
96.8907662318633
96.9585724792919
96.9095085060777
96.8029273839883
96.6885965781452
96.8364838586381
96.8983192508219
96.8835470648433
96.9717614034702
96.8305182389736
96.7953249635373
96.9468732880264
96.7856773955624
96.7521647997825
96.8813024771142
96.8636714457711
96.7674127708338
96.7478465323342
96.8450441038967
96.8588250699276
96.8087153414965
96.6962265674938
96.5989284109575
96.6372153285028
96.5350378641849
96.5653826636168
96.6991490136254
96.6839239265201
96.5917687573249
96.5100204551823
96.5187381943253
96.54945282508
96.4480241942938
96.524130678436
96.4922498482204
96.3174594316331
96.2486892206122
96.0176043359379
96.0204901478497
96.0971329222419
96.1531817384483
96.1637774805952
96.1360292443631
96.0703747153023
95.8860928337726
95.7901186444759
95.7371360481309
95.7271794320376
95.6389200189998
95.466857000476
95.4913220230875
95.5247497450508
95.4828887120883
95.4070084143127
95.1743966047721
94.9797971137999
95.0150259260441
94.9945990446043
94.9945751693869
94.9221594158839
94.745457871104
94.7323597818566
94.6186845213233
94.4839730505503
94.4114131799971
94.3409189986654
94.2932878088898
94.2508105669219
94.1890932140972
94.1307577225705
93.9574605446755
93.8133431795548
93.8259766192183
93.8934911117434
93.6905263030833
93.5351793665033
93.5730940351876
93.4612562105137
93.3250209501526
93.2946968482814
93.1203053207336
93.0968257612772
93.127721744427
93.0826617231392
93.0371120226132
92.9595183412195
92.8244992913135
92.6718566933901
92.4423353915286
92.444954885799
92.4295235480807
92.3427832816033
92.2679321210636
92.1898449459549
92.1311577179241
92.1255104277232
92.0981180428147
92.0744804754705
92.053436997749
91.8361487045413
91.6139005223251
91.4803376473165
91.5517256877771
91.6117759794889
91.4360936074647
91.3094335293226
91.2577647400128
91.2144386803865
91.0898825505843
90.9644983403847
90.8371136636366
90.7984288766189
90.8101286318089
90.6937667975715
90.5823347495319
90.5842559207943
90.4690641658223
90.2488270719088
90.1291153005401
90.1217005877223
90.0883627218299
90.031737143701
89.9965225083309
89.8888808210621
89.7005530615302
89.6003481935172
89.4377394185648
89.3354694120865
89.3295417877517
89.314504192189
89.2841886561781
89.1017875930829
88.9253685824887
88.8192610094339
88.6646361520901
88.5297983191319
88.4270492044425
88.3369950408105
88.1374986954523
88.0465233172121
88.0369165613718
87.9800158509708
87.7895596557698
87.5968711304979
87.4741981139574
87.3310722052535
87.1593697337826
87.1308897854156
87.0593977666288
86.8790762332874
86.7219886865556
86.6094994396326
86.4099679395154
86.2822024041756
86.2266754948442
86.1839508692044
85.999565141387
85.8510588375112
85.7508196691513
85.5626922575678
85.4553075772236
85.3971092582195
85.1949894422681
85.0212657137032
84.8942404235259
84.7778756950264
84.627969752595
84.5024569344863
84.3872234810838
84.2973766160701
84.111572882169
84.011577900334
83.9548727012293
83.8965231715183
83.7749476466112
83.6105891556095
83.5832423806278
83.5813412804413
83.5807568781142
83.5628819412907
83.4576484561927
83.3858052015096
83.3907909838856
83.4888301602321
83.4387302010888
83.3205076439464
83.2458722623346
83.1935323049211
83.2550858728993
83.3662180940592
83.3688523188786
83.4007053178449
83.328588634729
83.267138915849
83.2892301827621
83.3269472713112
83.3547061714314
83.4077734239712
83.3911554592349
83.3595701206995
83.3407993220107
83.375066883265
83.3661144420785
83.367600615592
83.3798210230597
83.3939532393784
83.3456920523532
83.3888831989063
83.4273448801865
83.4100281213881
83.3150556507552
83.256996991424
83.2700053338832
83.3260212145239
83.3535424449124
83.3268491244829
83.2737790856215
83.3371955857031
83.4827167074133
83.4838027878511
83.4828125754656
83.5003583847634
83.5311114605366
83.5873178704401
83.6468761714366
83.6546114849962
83.6658744236547
83.7271854842285
83.7883494705437
83.853723002157
83.9234073523322
84.0537507144286
84.1665570216108
84.2019082935831
84.1668526937642
84.2433986501336
84.3389013365288
84.4453275353749
84.4725402407075
84.497012407382
84.5488106252337
84.5599959443503
84.5616460562595
84.6142435874067
84.6872559297814
84.7356753055706
84.7820812126352
84.8483017564094
84.8571346744575
84.8863060929842
84.9247206846534
84.9636374286863
85.0039088945224
84.9621044821137
84.9033680864321
84.9968704931534
85.0737695635839
85.0348580073672
85.0596195053863
85.1684080151505
85.2063562343751
85.285369742956
85.3521371650512
85.4625460172794
85.6693161831595
85.7997022604999
85.8936401359649
85.948345671095
85.850964910637
85.9630266680577
86.1747864542483
86.2205386392877
86.2813376762849
86.3610900085982
86.3832225300256
86.4519520568566
86.5120688786006
86.591679454284
86.6683266897827
86.7515779559344
86.8655473816698
86.9528109092659
87.0523628563757
87.1894791456906
87.2196393779955
87.2615109727821
87.3264324284267
87.4053640807267
87.5464873057023
87.6690598180352
87.7223453192036
87.7139508778143
87.7620471882527
87.8979245144773
88.0389015971363
88.1491408957681
88.1479122091357
88.1514459381572
88.281980574828
88.4338280174729
88.4473997342752
88.4469616365736
88.5130364075293
88.6728465111425
88.8281877858667
88.8606928960224
88.9242037118562
88.976991423061
89.0471286982114
89.1164844192509
89.1819556959095
89.2776765169855
89.3044103896134
89.3666373844519
89.4687707825782
89.5205307463753
89.611789798205
89.7341966249871
89.7373015799233
89.7230097368022
89.7686487794616
89.878917650882
90.0148305453698
90.0910124916885
90.0753397652233
90.0674449511451
90.1759590056237
90.2889067936994
90.3697707686127
90.3686940905963
90.3884271551854
90.4601766280016
90.5472461686161
90.608074551352
90.7026768798301
90.8017164654263
90.8214159889811
90.8472878671444
90.9006059377759
90.9121122832085
91.0250774498672
91.1489761909838
91.1870042516136
91.1252560399285
91.2042935152819
91.3071902505477
91.3752021000196
91.501090647679
91.5170667301196
91.4397366033809
91.5114364701309
91.6117612168103
91.6315091509433
91.6653777156989
91.7474392462485
91.8352883447055
91.8833355157453
91.8846481100168
91.8959864728674
91.9578368827802
92.0616627602656
92.0745914581266
92.0595944852513
92.1290831025595
92.2349881096421
92.3146178023326
92.3489652111519
92.3468798743962
92.3489684638438
92.3665186112355
92.4617631499595
92.5209995402603
92.5032168254226
92.5205018667309
92.6440346984905
92.6780097301079
92.6755974517338
92.7481452284052
92.8189693051556
92.8266052435589
92.8563565646246
92.9187178221276
92.9704575720735
92.9796313499297
92.9748908319721
92.9605013389493
93.0523182137175
93.1174510501309
93.073814254082
93.0490755857665
93.1327779145128
93.2160643258066
93.2243813308316
93.2094197524163
93.2266884899892
93.3205117311065
93.4116348592897
93.3875067315126
93.3766854198858
93.4318527313438
93.4942098756866
93.5266901283764
93.5570687094522
93.5720373967264
93.5294071085826
93.5138656768203
93.5636829037747
93.591630088843
93.5924893752251
93.58142547417
93.6382254329884
93.6888733289407
93.7277046742592
93.7631042918985
93.7863824559235
93.8504172886592
93.850481526298
93.8105078312497
93.8663312265567
93.8655506940992
93.8191261308722
93.8582111824497
93.9099381575456
93.9229571998085
93.9972838252853
94.0389833506585
94.0769203933525
94.1359234758139
94.1520583327567
94.1297144687009
94.1225573857279
94.223714500356
94.3587658324795
94.3617412691011
94.3075842994181
94.294344748042
94.321140990257
94.343689791145
94.3158117066617
94.2585611700283
94.356401445105
94.4440167759087
94.413629334526
94.4406337333121
94.4949366130936
94.4563275699679
94.4564693382241
94.513043613471
94.5322753077994
94.4911576986137
94.4726775983487
94.4706524666333
94.5700712235755
94.6956318490168
94.7182501380979
94.6842645823052
94.6613920073357
94.6559764134549
94.6542807003282
94.6569789673324
94.7614075812702
94.8147399197834
94.7843611948636
94.7864909768755
94.7876608231553
94.8094296546389
94.8387836656821
94.8603654928758
94.9071154333611
94.9225112630917
94.9250732597803
94.9806888508554
95.0376175734516
95.0221993080685
94.9954792442139
94.9616151450846
94.9800975732852
94.9860153357365
95.0249141278768
95.0174550292068
95.018607245555
95.0627602670711
95.1056674759575
95.1236330322355
95.1000723836614
95.0016943904514
95.004442646986
95.0614367484112
95.1256708708505
95.1286652090898
95.0862927370792
95.008610257044
94.9965367664762
95.1023649681393
95.1336094524687
95.0687749285925
95.0646025342624
95.048425927039
95.041409236218
95.0480122298526
95.0615472208743
95.0607564319376
95.0162147285776
94.9681874085385
94.9608958648617
94.9229738449591
94.8991471900771
94.9601855594436
95.0557750471979
95.0554303674954
95.0671304938324
95.1190790822351
95.1134175767266
95.0740790636689
95.0913608667194
95.0995543247246
95.0909505428561
95.0752906276891
95.0553189535463
95.0438003358543
95.1086498061319
95.1518488352122
95.1341399442765
95.0973219521412
95.0271410420781
94.9802320141413
94.9720718016186
94.9302755154798
94.8981554958057
94.9026922145411
94.9416750106408
95.0101571479621
95.1551775765292
95.260120006669
95.2904746397286
95.3249964438011
95.3416205095566
95.3262709897346
95.404318076064
95.4734297453461
95.5117115241081
95.5066300387747
95.4987233903541
95.518079074232
95.568903820124
95.6098639435266
95.6391315801166
95.6693088738359
95.6875294551318
95.6832938394225
95.7166645365047
95.7275047861814
95.7239825991726
95.7152580773429
95.700044192106
95.6973181676917
95.7248350668749
95.7587539829462
95.8025318361752
95.8374253035969
95.8281015817545
95.8275468689945
95.8857860065727
95.8502137255153
95.7964928555411
95.8055762238489
95.8345092641517
95.8159305852776
95.7996694543653
95.7859692842865
95.8099373250948
95.8462529587271
95.8785792190245
95.8306769386745
95.7861983086369
95.8525304760774
95.9079302849958
95.8591717046293
95.855851755313
95.9130454924397
95.9402629643032
95.9329414900189
95.9821901782214
96.060427037664
96.1020143225984
96.0489751562948
96.0150324856625
96.0737208743535
96.0695742157346
96.0556850982917
96.1345705205928
96.1539546702749
96.1639772250175
96.1957015539198
96.180182669638
96.1834504910866
96.226669281696
96.1651561199997
96.1790033965355
96.2819557082696
96.3390717228425
96.3629172987134
96.4024165028446
96.3728382955641
96.2934696133829
96.3521218468988
96.443273030425
96.4288605987957
96.4249004044782
96.4124776020378
96.4443819378257
96.414862627077
96.4291567182108
96.5274714649742
96.4850987581455
96.3960822183684
96.4577401994098
96.5613900142769
96.6394166245685
96.6344966900908
96.6058952750411
96.636105893499
96.6389965594669
96.6062189687992
96.6778605478158
96.669889225717
96.565356395405
96.5709815940486
96.7288135739105
96.767709591374
96.6414629191777
96.6112201815097
96.677434328723
96.6555880933366
96.6500905588886
96.7260461777895
96.7638524482809
96.7858643168708
96.8393038366624
96.7916974563626
96.7436714140748
96.7128220322657
96.691213397643
96.7278909594893
96.7547531095717
96.7862673900174
96.8137130112827
96.7737767319202
96.770728946829
96.7800496015222
96.8055184762979
96.8073315187817
96.7663292818409
96.6493559363086
96.5910551944914
96.6662695348112
96.7064439092318
96.5340209599574
96.4041212310751
96.447759958699
96.5762743661118
96.588425914953
96.5242099571108
96.5449772371957
96.5357630769759
96.4084632094253
96.3926090734869
96.4304661516792
96.4763178155287
96.5069109071904
96.5335520806982
96.5313816732338
96.5109271679975
96.5437847917243
96.546214399133
96.4583915003505
96.4770564892477
96.5230578657005
96.5355097852923
96.5227349647244
96.5188537177287
96.4392524141585
96.3998530154541
96.4555367356462
96.4447388267711
96.4060957051513
96.4772176882594
96.4663813503629
96.3760057921768
96.2951266108464
96.1993745309036
96.115744458688
96.0794963202416
95.9918494190624
95.9415465875616
95.9824612398076
96.0092009456131
95.9702103090655
95.9164216861905
95.9072612283534
95.9737677813461
96.0092018190983
95.9788673258224
95.9008219602817
95.7646157455365
95.5399421361091
95.2945880884746
95.0195730421371
94.7299015606128
94.426565502384
94.2591867996234
94.3347905870051
94.5322097326644
94.7535402640316
94.9959866917165
95.177195650555
95.4063960738562
95.6613654995022
95.8389518806758
95.9625357185962
96.1070466725994
96.2520826471602
96.3490342416166
96.4421206937517
96.5730720176926
96.6500196813298
96.6631353067114
96.617972210913
96.609559466123
96.6553105342122
96.7257634776576
96.6349296226217
96.5227306641037
96.4955056585209
96.4661415429068
96.4661570375803
96.4727660899724
96.516039041165
96.5853289917318
96.6026612201992
96.5958135871243
96.5461020993022
96.5237525767383
96.5398629438366
96.5411962873618
96.4804059987857
96.4161606072455
96.3466764059153
96.2776732456755
96.2755442550908
96.3537379102663
96.3628888645771
96.3569624727373
96.3231744210162
96.3456781745723
96.3946608203747
96.4229033050496
96.4344845772386
96.4179239282736
96.4188642284825
96.4453198418356
96.4203142779684
96.448223433611
96.4991185935065
96.5192662618433
96.5957131983856
96.6279456491664
96.5057746267069
96.4492096124445
96.525023284464
96.6465987414739
96.7655701982152
96.8209388406008
96.7741683062687
96.8540431476769
96.9952023490855
97.0736439788924
97.0650002217407
97.0539292662169
97.0197446401067
96.9726198827469
97.1081003775504
97.3443281020608
97.4175957742006
97.5236252866496
97.5363879841246
97.3802388853159
97.405237368441
97.4838790469391
97.5348785987637
97.6745719304564
97.7389386023332
97.7100274180426
97.6396932705873
97.7044039591103
97.8846458347977
98.1177046895711
98.1039336274775
97.9246625166367
97.7484960714392
97.7393942698564
97.7595947114957
97.8642890024278
98.1505902169799
98.2866148326857
98.1561438383196
98.3197822879992
98.4476420744232
98.3571407214297
98.45792376308
98.6223906705775
98.6748538511835
98.9052930919426
98.926052969879
98.8583380728725
98.9439262000194
98.715239859421
98.3274434038836
98.6923580348122
99.1441539821402
99.1876871037929
99.1383607640436
99.2515998399001
99.5595574672041
99.7225068341558
99.6085278632909
99.594961204007
99.2186070858965
98.8755138009039
99.0288364694546
99.3036726759292
99.5246180782261
99.7819322082281
99.9932747954068
100.394537494105
100.393679201946
100.291568862692
100.46423997644
100.189955807221
99.7043952196912
99.6295988539192
99.621581568288
99.6066992198822
99.3627385631
99.2473006965431
99.1846921056955
99.010716608127
98.7920135761463
98.5621238461382
98.4798898551056
98.5000497654338
98.2980452066417
98.1489267677357
97.9922714080375
97.8760260217119
97.8225233698847
97.7331845812371
97.6840869158965
97.7837766218251
97.8038982253069
97.6274270160432
97.4852756529883
97.6093787854158
97.6925134453746
97.6709998111821
97.649934086537
97.6549499040894
97.5699376333341
97.5490628333695
97.6681147131022
97.8268687675057
97.855637034452
97.7458348706347
97.5753953251469
97.5673901669616
97.5951525287596
97.5695476352466
97.556663608842
97.5585212271228
97.5366350616746
97.6892711712827
97.8397219163897
97.8748848143778
97.9045976573275
97.8299226003461
97.6969862286669
97.7064912791985
97.6121604913634
97.8716196118705
98.2430967284913
98.1686522777514
98.2404200024543
98.3890124124248
98.2690439538696
98.3420274449851
98.6286744421623
98.7303026652863
98.6203650313021
98.7034899938497
98.9222224263664
99.0783506783613
99.2053777218333
99.6480405675158
99.8672908268009
100.019979818709
99.8158931954118
99.4205491241647
99.5501702760227
99.7389931908751
99.5787759192624
99.8294545360345
100.227438068198
100.423667887597
100.121452954422
99.6834314481195
99.3785223748756
99.1416839040656
99.1238400285682
99.4277758416938
99.3758586521202
99.3385437429227
99.448139945437
99.3362878427928
99.0108684993212
99.0076114627933
99.3375278333806
99.5897581070252
99.3710241126287
99.1666193731048
99.1223005410589
99.0217564322512
99.0173704857632
99.1842898739341
99.3709177785562
99.7550756146511
99.9162562774502
99.8757968023441
99.6893618918129
99.6202937927417
99.9280942788761
100.037616706901
99.5955526191148
99.2671687782431
99.0443379313625
99.0210338791621
99.0205540387321
99.1356606393736
99.1675017114173
99.0367065389508
98.9347802163309
98.7650212941293
98.5575455033729
98.7080900343319
98.6803581492098
98.4962832979028
98.457763948926
98.4706570274741
98.3945889748567
98.4144535592141
98.507523232792
98.5080139021679
98.4001410560416
98.3974127251187
98.4159630397177
98.309662952091
98.1086559993685
98.0816968593891
98.2056252266075
98.2043375147096
98.0825222792033
98.0146995740856
98.0457252102241
98.1260392369927
98.1063751539663
98.0878362169867
98.0363735568829
97.9931120242927
98.0411818475665
98.0865199859162
97.972250017157
97.9404968842851
97.8940786840211
97.8876536630905
98.0307487693433
98.0711699855673
97.9501728866721
97.8756289960769
97.8615370257585
97.8340254998855
97.8049216899289
97.8702066056515
97.8441487166811
97.7497749614544
97.7699331611926
97.8600355155512
97.8794220460885
97.8981948916526
97.8904930862568
97.8605130476946
97.8077967340893
97.8395584038824
97.8143770050096
97.7516562148935
97.7237558401893
97.7948382336639
97.7877256559447
97.7627720728326
97.7955634464252
97.7828255509926
97.7700850194366
97.8265050936687
97.8215940145884
97.7616527334359
97.7015475074223
97.7021888657074
97.7644160767811
97.7878891120349
97.8043970176312
97.7743198708354
97.7314833561022
97.6980909226877
97.7087627053137
97.7062494451161
97.6593632831342
97.6511577785072
97.6637825442405
97.6705177768192
97.6667168219501
97.6347170724834
97.5897993393003
97.5871827261604
97.5863476881987
97.5770222184741
97.5513180907198
97.5736325848291
97.5868772518992
97.5159901741463
97.4834614521691
97.4447840293293
97.40250908769
97.3213921622606
97.3547003579983
97.3401444830904
97.3377568845779
97.2774649177011
97.2304042230717
97.0747129992674
96.3915338472652
94.7967107148563
93.2609556272145
93.687263811345
94.9740074946102
95.7917468183574
96.3355618056387
96.6154347314502
96.625331240931
96.6497321133237
96.665426688648
96.7220998649938
96.7825643775377
96.7684322265079
96.7583995870197
96.7138922347408
96.7026456953844
96.6208255364522
96.5558914214411
96.5702976598522
96.4998867128865
96.55207939827
96.5099929245317
96.4597109196797
96.3699655109056
96.2718025969632
96.0570951409559
95.9507122414628
95.8921976028688
95.8824072068538
95.8555446425783
95.7563285087755
95.6209088894999
95.4396448002315
95.3023420490392
95.1949414629272
94.9566135255422
94.9676995768715
94.7279262301804
94.5866413956173
94.4149893358876
94.1919703696561
93.95201392885
93.7128862369839
93.4481173596828
93.2670883558511
93.1405302028313
92.9166635377453
92.7674930856127
92.5043660176016
92.3754129251509
92.1557153525771
91.9015205505871
91.8148724990341
91.7078173778317
91.4818714744378
91.261157243314
91.1126109966527
90.9182112298432
90.6654069612301
90.4121600475174
90.2058429562879
90.1071832553202
89.7350684912057
89.294015775663
89.0316950746991
88.6571524821437
88.1912383216011
87.7498190789744
87.310409738564
87.1196257143575
87.5889607105283
87.9454780473705
88.0715595880394
88.2652841828201
88.4617621109875
88.598005902543
88.7514282693744
89.0028347347787
89.0163592003852
89.0305515692675
89.2876120030762
89.5103737256609
89.5490034302371
89.6046459215868
89.6735832415259
89.8015623779451
89.8892338423189
89.9353288686835
90.0388859106424
90.1446465636308
90.2263065738053
90.2977149852256
90.3831374589482
90.4950344848954
90.602393027308
90.6864393780387
90.7793966298804
90.8584944177416
90.9843916611661
91.0543350765794
91.0334573234498
91.0358282681192
91.3362658186404
91.4592196116221
91.4128383965484
91.4268773669666
91.5573812646874
91.6316535050285
91.7431613346835
91.7002156086708
91.4393198747962
91.6940318082847
92.0453467236089
92.0670546861938
92.1470072258952
92.1646347327216
92.2086826173297
92.2406050992704
92.1395891173396
92.1560477668784
92.0980811697269
92.2743141563419
92.4924330454424
92.4711098691937
92.3443097476479
92.4430730957066
92.4373853013617
92.3789917793217
92.3520662536438
92.29008719415
92.1971595348686
92.1487467156242
92.2316801892016
92.0623802236024
92.078054484724
92.1059225202312
92.0032904411312
91.8213895135524
91.5723837043655
91.6716101442035
91.855425385598
91.7942139955849
91.666222709664
91.5312344763454
91.4743854231163
91.5082612265855
91.4672902123357
91.2736841963673
91.1587374530475
91.1263037655492
91.1050117640117
91.0390620480636
90.8859189371445
90.7714210122225
90.6158769347861
90.3706034425838
90.141956416095
89.8952171409877
89.9273477712427
89.8576897705161
89.6912393740481
89.5473819093247
89.5245400208235
89.3999767579361
89.1247510498309
88.7952370651174
88.5279709976249
88.1538439770017
87.4386884564117
86.6110542154829
85.5531114654127
84.4772694559793
83.4855611279077
82.5868408034424
81.7237811198857
80.914340078377
79.9681537753173
78.9447683354347
77.9766526502857
77.5330232127486
77.691029709588
77.6164176481956
77.0852002180295
76.3866509370969
75.7060789213274
75.0215628430013
74.3950455540725
73.8335390671907
73.17036839026
72.5134708444189
71.8467485254319
71.1995141523763
70.507002282118
69.8166755003995
69.0867636878972
68.37083894925
67.591595123407
66.8491413953421
66.0657651635506
65.2502667441657
64.3561731057278
63.349576532172
62.2705231360874
61.0649814681661
59.7363144733431
58.3506893273961
56.9745356514025
55.6380811164425
54.3830511019026
53.423371230224
52.9360857456343
52.8325674638204
52.8940192635006
53.1663131801554
53.4245878511962
53.673457916398
54.1220730394964
54.661329932501
55.0212997895567
55.3577796748195
55.6936199147072
56.0512545102365
56.3920969417433
56.762867390008
57.1293650264752
57.5186095126251
57.8950208964591
58.2132774344832
58.5745941146899
59.1230551287224
59.5876361757534
59.9608684639304
60.3298725197425
60.7472626745961
61.1437554445559
61.5584389134472
61.9934150743438
62.4360961270995
62.8343878541717
63.2768510764714
63.7571345554377
64.2254575061118
64.6642611766209
65.1218820799635
65.5455366368419
65.9662111860109
66.3893068551223
66.8048414391154
67.1753614557802
67.5493707978322
67.9329964589346
68.3271987118967
68.7093653337661
69.1029447912303
69.472386243111
69.8386090335646
70.1922844096332
70.5513645971582
70.9028108215852
71.2497885631836
71.5762356472011
71.8885240588424
72.1755733501392
72.4653415215024
72.7458197333146
73.0528956585321
73.3146679857271
73.5740775698679
73.8463426798298
74.1163952904481
74.3662825470896
74.6160674405176
74.8683336669801
75.1023175159732
75.3117075363769
75.5284429952786
75.7391485852926
75.9701236555727
76.2072467665582
76.426998404254
76.6179823299465
76.8381130963601
77.0314904155426
77.1910021329206
77.3808695848794
77.5732268514604
77.735270678801
77.9025252893122
78.025097066113
78.1351178934056
78.2217896562636
78.2928316755726
78.3296616488495
78.342629929881
78.2767117054757
78.1055516787696
77.8534938492214
77.5338153731985
77.1185876080943
76.6091488277026
75.9631229343208
75.2404188417086
74.445934228641
73.6580011262323
72.9119441278585
72.2265040591652
71.67632295892
71.3946361454697
71.400439568605
71.7598935089773
72.4505895989263
73.260743375463
73.9990694034788
74.6066349665246
74.9848307030263
75.1325741595298
75.0962571002065
74.9127113986406
74.578711312675
74.117676760477
73.5460802677588
72.9190358628075
72.2333104387491
71.5235305337392
70.8076296464754
70.1293821106042
69.4566542078992
68.8080555167748
68.1740634965729
67.56633452651
66.9450831495731
66.2994926557301
65.6241077067097
64.942298670522
64.2677167368737
63.6492294491884
63.1469538321976
62.848031908824
62.7537686698755
62.7951202011409
62.7390957472552
62.3998602199087
61.7518653250728
60.98988637374
60.4167463122804
60.2976833567799
60.5644076376156
61.0133042789882
61.4781825466637
61.8953686850025
62.1708053272538
62.3000519221203
62.2651412248284
62.0680467753513
61.7147745241876
61.2675278330909
60.7144265988596
60.1406382669772
59.5956650416566
59.1657200162924
58.8715819063566
58.8172073515408
58.9978373875592
59.3846809361011
59.9336227621822
60.599652020472
61.3117309513853
62.1214479017896
62.9931003491969
63.9155906064034
64.8635697384651
65.8167479500419
66.7607478863632
67.701586899542
68.6083286437414
69.4998869689779
70.3350457523157
71.1166875292662
71.8500857431786
72.556986887628
73.2284029172574
73.8701546983008
74.3972402951986
74.7154745543701
75.0985403058946
75.7528436417879
76.3778525113149
76.9090045023069
77.3959587228308
77.8613831897621
78.3040515254447
78.7320544502009
79.1560531768918
79.5652373515805
79.9167727405549
80.2584569433525
80.6079490520727
80.9413550025929
81.2411320075794
81.5420962781311
81.8090377151531
82.0416581839962
82.246807654301
82.4594222809099
82.6613377524068
82.8855547962051
83.0581632664423
83.1425186613364
83.171251036072
83.1429632955423
83.2306683427217
83.4718299193343
83.7241897341804
83.9462169919905
84.1419502854944
84.344530210526
84.5161856795595
84.6468518439
84.7656364972416
84.7712356585715
84.6852731563897
84.7772326174784
85.0418920211733
85.3239901876682
85.5300420140777
85.6994916659001
85.8667387669463
86.028643798391
86.1781699561786
86.3191688961771
86.3939634681015
86.4764895478113
86.603638145755
86.7310770593904
86.8144734645239
86.8733367092031
86.9562643118228
87.0476223022327
87.0996970117627
87.1602207424719
87.2333713340986
87.3062716364421
87.3967102084765
87.4837684207223
87.5080769265317
87.5303109208939
87.6026385201724
87.6813441008094
87.7397232195177
87.8041390908779
87.854062453672
87.9118050877907
87.9813109921925
88.052381788169
88.0762603640226
88.1043598129085
88.1738578463252
88.2573693845985
88.3088901945429
88.3347397668007
88.3447187469374
88.3746852639656
88.3921520297592
88.4068600419171
88.4564450425729
88.507435557212
88.5368783333287
88.56477318623
88.573374427509
88.5967304839618
88.6125686628755
88.6408840172067
88.6153154361956
88.588647387481
88.559454785782
88.5221622367464
88.4838766785446
88.4258252470868
88.3719665141888
88.3141547607177
88.1999029730168
88.0937271837032
88.0249779823226
87.9719315745404
87.8958983121741
87.8371684440251
87.7815454714175
87.6948761946582
87.615056385792
87.6015779595684
87.5795872920722
87.5772627993249
87.6040415556137
87.6211448742097
87.6242454778524
87.5895845547985
87.5533087131745
87.5061141655434
87.3463042445975
87.0941499099013
86.6680012411811
85.7562693158499
83.2378575569619
77.4792912660372
69.8997643931196
66.2474700395134
69.2627983141772
75.003261064595
79.4139288417965
82.023685732253
83.4962511086148
84.1816095776474
84.391071545964
84.7346843508074
85.1442686714751
85.3883699568354
85.4259425313716
85.4261654430279
85.4057812306217
85.3622293457803
85.3387346069905
85.2557868973977
85.1157530458427
85.0304915791442
84.9348846617175
84.8310174736028
84.7547730342483
84.6405794062491
84.4396379348356
84.2647634684394
84.0681948237305
83.870798265534
83.6622033733767
83.3984905565889
83.0785318929607
82.781806883754
82.4333184850627
82.0804942161324
81.7362066702391
81.3877638510332
81.0704373277877
80.8222028311618
80.6327441305565
80.4830098204371
80.3455570239541
80.3594146988623
80.4151304871463
80.458595281531
80.5609660469998
80.6809476607738
80.7731278677415
80.8740148391673
80.9571075243014
81.0539673075252
81.1042853926124
81.201206031636
81.3179970669958
81.4125931365336
81.4630538236594
81.5021188204218
81.4932569921789
81.5119950788365
81.4258322655825
81.2897485895252
81.31531616631
81.4199713587509
81.4390335268284
81.3847815644706
81.323540705106
81.3422363983659
81.2699151765111
81.2041977576369
81.2217511638644
81.2122771855414
81.1610973606508
81.1501793112109
81.1370953994363
81.153232907939
81.097350528569
81.1226423413251
81.1923019630751
81.1708100213107
81.0990763839177
81.106259167824
81.0821325949718
81.0074332101277
80.8576900930193
80.6895217978455
80.3663223693689
80.2350921318471
79.6877473329335
78.3616398961676
76.3181334196012
73.7248664359969
71.6672384636415
71.6804885499335
73.4611247622747
75.3432209970637
76.4161916933887
