1798
3999.43349933624
650.420452594757
1
128
4
96.1829529365049
96.1671029745652
96.2022299021059
96.2241514112938
96.1669802743615
96.1219785082417
96.1463652690617
96.128723607952
96.136599766363
96.1991223780966
96.2255709757047
96.2133436286618
96.223712935587
96.1700935083238
96.0720375522799
96.1546749884347
96.2187513345819
96.2307919666387
96.2011168840222
96.2461020744395
96.2671772380156
96.2442339420236
96.2182373668746
96.1491929883313
96.0949117209313
96.2149660296841
96.3143773393647
96.2355786662105
96.2273907356043
96.1849476170928
96.1042135615402
96.1787320925888
96.2712011174023
96.2707334298614
96.2263693115916
96.2544426389194
96.22262701633
96.1403159036687
96.2075729724311
96.1981125463728
96.1145429399557
96.1541170628257
96.2172423702133
96.1135942538708
96.135644870482
96.2616104075442
96.3661567096806
96.3780952244796
96.2956262081031
96.2634190411786
96.3029697287447
96.24156140587
96.1842007985666
96.1297577355434
96.0684003757333
96.1260682937781
96.2727107579152
96.3982987135088
96.3251831183391
96.3344137781385
96.3205371720921
96.2292394764751
96.3092872509503
96.2903160192099
96.1245886888185
96.134359770494
96.2700954906826
96.3041183436624
96.3122979436494
96.2648259581153
96.2032990628545
96.3980766446605
96.4142613649922
96.3509012936892
96.4425809007459
96.4445648786428
96.3520034912497
96.3208790125325
96.1898991870251
96.1093739553633
96.3003993559932
96.4611404105753
96.4419344441093
96.3479073911057
96.3600364110355
96.390639308278
96.2215764917576
96.1478776748802
96.1778508306831
96.2412296024691
96.2752511359676
96.3389465189247
96.321121604741
96.3229014364641
96.3319983641327
96.4040911141223
96.3690172419444
96.3022683459246
96.3701217005639
96.3620732964898
96.254917604639
96.1679458148596
96.2344455011428
96.3219403035414
96.2996357450075
96.4104568030911
96.3873836542493
96.244282789335
96.170340296213
96.2569834883715
96.3584154543877
96.3628500944472
96.4102109202672
96.4014878773039
96.3516656790183
96.3065573415206
96.3484768157243
96.4497149098723
96.3600289201877
96.3349256098124
96.4233852542776
96.4759763655004
96.3666345616451
96.2726757408114
96.4084879862978
96.5075643987884
96.4710617904027
96.5772564314433
96.5830951487957
96.4446344567142
96.4067450291491
96.4201040285602
96.5017934071361
96.390162110124
96.1416022768002
96.1492021265841
96.2492537636916
96.2780620280519
96.2355458944607
96.4313674084023
96.5438547664447
96.3920686302696
96.1979513018404
96.1915647365417
96.3497327319296
96.4631056171798
96.5115679555301
96.5175610426202
96.4859876124582
96.545252625793
96.568132566014
96.5300888459747
96.5493494760937
96.5261170867472
96.4578337303554
96.3457435706592
96.3294422245725
96.3980318465335
96.4889938228252
96.5051275387892
96.4734856452221
96.3708744887695
96.3689228558467
96.4294837930597
96.4455849459607
96.5499340000399
96.4766782098038
96.3364750303123
96.3014657886899
96.3743861321502
96.456394045422
96.4792962999593
96.4994791538265
96.4030243698054
96.2642544894751
96.3687402149139
96.3642438474572
96.2494117228508
96.1407673696905
96.1779021280967
96.1731197233154
96.2777136248099
96.2996581508961
96.2421293542313
96.2502125866313
96.2096502282826
96.1440724319223
96.0605250847621
95.9067438364063
95.8424355884186
95.879551427335
95.9091824664219
95.8613472635727
95.741978662994
95.655079832362
95.7254116319905
95.7087521128016
95.7609186953237
95.7432641116858
95.4870380319249
95.3818302979923
95.3590527330649
95.345362364821
95.3167321376021
95.2284558705318
95.1257478398891
95.064672115272
94.9688242421777
94.9064349566049
94.9181080357846
94.8582834263996
94.7779831873304
94.7656929233251
94.7216112121534
94.5873834008987
94.6186545980216
94.6923796947065
94.6343646090364
94.4382486680582
94.3074017772121
94.3230932090544
94.2469417025203
94.0409894806566
94.1059194858768
94.2086302655772
94.0798479400295
94.0360703091927
94.0269660758632
93.9762822157691
93.9361484718956
93.7707586452729
93.6533166001114
93.5373486487992
93.5130661243886
93.5920111006937
93.5118101966773
93.3780771129397
93.4636216470384
93.4383046442574
93.2369280520522
93.1207087640676
93.1068600852003
93.1243510988474
93.20983187798
93.0803724326233
92.9014779399351
92.8937459458259
92.9402799604637
92.8112360666599
92.7689107730998
92.7323371034422
92.6277993631885
92.5490758672968
92.5146396374109
92.4292897480119
92.2845081296763
92.182521590289
92.2402250094199
92.181771565837
92.0720260012596
92.0103303422094
91.9701607304371
91.9249035750359
91.8468313516941
91.7894852192998
91.7965179084638
91.6258484417052
91.5713395035764
91.610053923995
91.5418926886683
91.4405856928451
91.3002575308917
91.1525953659719
91.1076244191227
90.9694314577668
90.8655778147414
90.7656243443321
90.7650722081449
90.7341587771564
90.5794300702463
90.4570290015576
90.3355889691142
90.2921941908783
90.2042735121008
89.9637070235742
89.8872530237682
89.8921658813183
89.8218615531116
89.6381096985957
89.604015299998
89.5528948610355
89.3939579542006
89.1663412952746
89.0783171166409
88.9768213307541
88.8126649962447
88.6604729537541
88.6533162118112
88.6386113534443
88.5419523693047
88.3600328919493
88.1554004069921
87.8714118976338
87.7010043663731
87.693223271562
87.5810750577214
87.2854588344308
87.177957385523
87.0942910989282
87.0635717342172
86.9132766054504
86.6126008322059
86.4108170942395
86.3797505466924
86.3215989027716
86.2173087928017
86.0240916378326
85.9255056578789
85.8249203842528
85.6950683652454
85.5177727572375
85.3499030058274
85.326215707387
85.2972354138596
85.0984787890367
85.0250623152393
85.0239484212934
84.9757344507935
84.9369692061841
85.0005495977324
85.0232202229465
84.9469634363859
84.8834233059074
84.9530829985088
84.9914553901631
85.0376188708731
85.0587987137741
85.087329551136
85.0150400821247
84.9488799655915
84.9908273430522
85.1840406105758
85.2314015743835
85.2741225744483
85.388279735905
85.3898586851287
85.328757932385
85.4025809516649
85.4654744674824
85.5647108285378
85.6225339637785
85.6135667795189
85.6220095511212
85.6965647299352
85.6845597573007
85.7228216346929
85.751251568508
85.813515025179
85.8971618935825
85.9392682287776
85.8327728758681
85.8575076847388
85.969856680577
85.9721852531693
85.9933326408928
86.0210012470504
86.1002518026512
86.1673229029445
86.1254543679365
86.1591304884807
86.1889007528244
86.1959360951521
86.2054127854705
86.3060069673985
86.3786983859953
86.3767530193257
86.4436593036618
86.6175272488908
86.657762117509
86.6057450479764
86.6197790654935
86.7137906123922
86.7976327572193
86.7768942510027
86.7868568226372
86.9270519874901
86.9810413396662
87.0460248384244
87.1358261832354
87.1740484381062
87.1956746896034
87.2359960472711
87.3368942792547
87.4142963311672
87.4755361083326
87.5430572655951
87.5392466938249
87.5136252641912
87.4800927998669
87.4831523764097
87.4964806818929
87.4876174341022
87.5049751768803
87.5458599129241
87.6125424637428
87.6055831377117
87.5282479956874
87.5437383595079
87.6527784020023
87.6983127868051
87.7367109349655
87.8291899313699
87.8984829236997
87.9719875759643
88.032285826861
88.0965861930463
88.1489763277793
88.3333618337723
88.4677582812002
88.5037167836307
88.6304848528829
88.6509355501093
88.6805442067212
88.786656526047
88.904934915326
88.9546930498178
88.9347334611633
89.0298057294944
89.116707727107
89.1448958122125
89.2305882224842
89.3574563967797
89.3384750798152
89.337677534988
89.3788780528789
89.5384733702627
89.658548860758
89.6533305059983
89.6537561339191
89.7243636072421
89.7451228457482
89.8453602587336
90.0239852363547
90.0395617528071
89.9519694396028
90.0582304913119
90.1994536603588
90.2790070813163
90.2647473131458
90.2877410607567
90.2974333627147
90.4168209075668
90.6210507414625
90.6556691617723
90.6235061382171
90.6072726495156
90.6547094949944
90.7422754922279
90.801243266723
90.8753713780322
90.9453142688585
91.0187927993762
91.1186597369299
91.1704620855291
91.1974130918142
91.1966290131429
91.2067747087317
91.2848104672113
91.3072897969989
91.3457154229754
91.4772935918549
91.5868129830967
91.5995147359982
91.6039609201732
91.5642852112797
91.5952853102193
91.6437301157787
91.6443829380164
91.7254027057212
91.8479815804703
91.8759725889013
91.8319479703704
91.8687481822079
91.9820619247142
92.0287786557595
92.0589627040997
92.0797569632549
92.1440891921106
92.2028013400107
92.2155136783841
92.2297509906554
92.2080468664995
92.2408074029267
92.3956365497726
92.4953449649085
92.4959422560903
92.4928920677181
92.4641258618665
92.5167130379647
92.5834260935432
92.5855142440419
92.5912942925247
92.6130179531724
92.6488877672707
92.7157885577287
92.7905814723322
92.7990565557352
92.8066730409942
92.8355729978635
92.8665920086446
92.9361314474729
93.021783061352
93.0249147475391
92.9532551498208
93.0198943515298
93.1786898361763
93.1730069009687
93.1941212354974
93.2243159581606
93.2235848713411
93.2050158618185
93.1993347805587
93.2925310511454
93.3600353687632
93.3677087363392
93.3566141663663
93.3765349502466
93.4718493691735
93.4839239105413
93.5132306432776
93.5421073998359
93.5390811734179
93.5553059947262
93.6014419540908
93.6848851630538
93.7205892299781
93.7018280008489
93.7207884578859
93.7411036082623
93.7730963358081
93.772354794917
93.7273728698244
93.7675754623715
93.8317121821716
93.787938093252
93.7747077365092
93.8444345692148
93.8913862495243
93.8846291962483
93.895470297687
93.9875634755475
93.9999266071613
94.0136183701808
94.0357160065391
94.0054620469987
94.0235831113435
94.0493497384607
94.0232786889782
94.0812273395357
94.1542319001782
94.0988025178273
94.1102250646756
94.2497107597462
94.2568635006899
94.2134130829464
94.2506052724739
94.2454893181503
94.2222836766014
94.2662979149487
94.2738083882037
94.3466412741976
94.4017003367001
94.3219965978169
94.351898146042
94.4115522828905
94.4028738704245
94.3740417881317
94.3900343519311
94.4461253865645
94.4852670696351
94.526402989127
94.5383262886504
94.5610457326586
94.6012223599071
94.6262003630879
94.6167790606214
94.5675772465488
94.5647653098928
94.6021390514577
94.6100484001774
94.6244180342309
94.6731742182985
94.6743380791141
94.7070114618532
94.7435835816263
94.6842869866934
94.6833728731363
94.6859644701466
94.6349541946083
94.6876451998143
94.7211075023149
94.7288762678656
94.7099465671234
94.7517342699952
94.8499703205655
94.8300997984387
94.7257974924003
94.7324978821375
94.8467797229929
94.8736673238975
94.8591529077145
94.9172646436818
94.9046647315081
94.8684384872985
94.9619969355367
94.9686221764344
94.8717559261195
94.847415298217
94.9732728559309
94.9956155664003
94.9209744974144
94.9131402172136
94.9994445018348
95.0612242082551
95.0891245188599
95.1377016968509
95.110789736011
95.0873850047204
95.0405789663114
95.0123580177834
95.0587474630805
95.0851988586934
95.1061096935649
95.0987744560797
95.0794243938023
95.0608073107132
95.0667715690308
95.1332373989694
95.178275763289
95.1262854807963
95.0565092371786
95.0451414277094
95.0263178559514
95.1017994102735
95.1182825749627
95.0719496215822
95.0981772100797
95.0935492479226
95.0730812794383
95.0842934787892
95.0759860033243
95.050110405098
94.9677442690894
94.8763500061835
94.8516615549257
94.8326959494815
94.8594560840516
94.9807186732631
95.040836873358
94.9935273137389
94.9509363753684
94.9579120109658
95.0285802272522
95.0498682407954
95.014422898506
95.0029613738666
94.9770606746229
94.9755367070464
94.9910787615025
94.9982047209451
95.008652510075
95.0846586686093
95.1051195417305
95.1004354933956
95.0451711106121
94.961902335062
94.9456174986761
94.974567907743
94.943534809925
94.8848786259012
94.8371785543579
94.8475340430924
94.8903202176414
94.9881214283897
95.1090175578388
95.1708942925092
95.2027533137595
95.226261730252
95.2398396788564
95.2619108938593
95.3106159424304
95.3394768234107
95.3073568336892
95.315473249939
95.363282496898
95.4043715958079
95.4471593315546
95.4699014186304
95.4994444727609
95.5094742571464
95.5220980528162
95.537470010656
95.5176707444166
95.5334017129416
95.5642387769898
95.5900922232953
95.5727432369961
95.5473570782026
95.5909205293063
95.6926253030098
95.7283231522547
95.7178972627227
95.7303211767872
95.7235968061351
95.6851952774234
95.6319845643318
95.6198274090354
95.6416556950784
95.6214273878221
95.606643742868
95.6641018278774
95.7106910196284
95.686255214241
95.7025097043261
95.7412877209568
95.741650268476
95.711775794554
95.6978847395263
95.6837344685358
95.6992371151735
95.7231662319383
95.7689741192124
95.8287093613865
95.7763330728416
95.7601659215185
95.8500119455785
95.9366080539737
95.9135797226019
95.8963707252254
95.8936761874704
95.904298286499
95.9815152354003
96.0077306099267
95.9809475217945
95.9961145531466
96.002620911369
96.0118557921109
96.035040916887
96.0954597898266
96.1017902873642
96.0632794955819
96.0306837543793
96.0740668472311
96.1819496586946
96.1717315631933
96.2061872039782
96.1980781018875
96.1581122622627
96.1891336139461
96.1813500170849
96.1208880594156
96.170254208214
96.3009316690871
96.3199879663066
96.2843725722267
96.3097101346985
96.2888859211649
96.2809650106745
96.3512574868187
96.3974833639861
96.3643463441008
96.3532982031825
96.3481019737005
96.3090719661236
96.3001425504502
96.329310805957
96.3734522349756
96.390523208154
96.3531065556522
96.3795348954116
96.4545582134633
96.4778458415446
96.3912729187376
96.3355762372329
96.3396471379452
96.383027419719
96.2992760382476
96.3014567300807
96.4098703483621
96.4369095672713
96.3893709800786
96.4182529232049
96.4856522886039
96.4837062105
96.5115555204277
96.4274234779995
96.3866026956549
96.4387728167045
96.4161550140719
96.3998345329243
96.3943132156769
96.4019778885719
96.4974845289406
96.5669071659388
96.4925916062629
96.4010940140226
96.4058292922434
96.3555623419087
96.2568849130611
96.1744195703937
96.1936542433473
96.2648711165508
96.2740831328349
96.2443946466201
96.1997351898513
96.0941921992514
96.0545113933327
96.1231157005198
96.2220709067903
96.2792507658265
96.2555811014046
96.257475455793
96.2529032244917
96.1899340633281
96.1270054541648
96.1124706001867
96.2658807598847
96.2937235084437
96.1511197612505
96.0896324831772
96.1269561438019
96.2705929443154
96.3249831460307
96.2366679722577
96.2026500167185
96.2587500626458
96.2576866499343
96.1929202383358
96.134298610195
96.0784968266846
95.990657884374
95.8820799489114
95.8231391156228
95.8370605321805
95.8149503407257
95.7351721415674
95.668490722855
95.7285424002387
95.7398728566624
95.7201989955819
95.7448547313261
95.749527754265
95.6894955653497
95.6655832580115
95.6844306380527
95.6187474755849
95.4222294233065
95.1731627844379
94.904224613172
94.5321407268516
94.2205552244864
94.1762335293842
94.298425272452
94.4343253113714
94.5923382067721
94.8240579733039
95.0118295981372
95.1329395586121
95.389397182789
95.6600961640687
95.7900799014315
95.8779443266206
96.0324454954276
96.1498359997785
96.2371617379694
96.3123575816677
96.3227546624283
96.2902422052579
96.3100906470091
96.3093206582075
96.2787145279265
96.2652168672538
96.3079743841025
96.2602737666207
96.1548984653841
96.1889082775715
96.2673812862507
96.2964944640242
96.2367749324854
96.1956445824442
96.3102527096061
96.3600454686382
96.3684992908781
96.2930797993699
96.253420166572
96.3010599750871
96.3059314296141
96.2916738357839
96.2125177629063
96.0389924978085
96.0060112486808
96.1453107947231
96.2236911884185
96.1855388053213
96.2050213754023
96.2860007544718
96.3949585173388
96.358475528656
96.1722378922029
96.2113432212719
96.3572460116556
96.3681049754156
96.3455811490349
96.3993767864695
96.4085190465566
96.3888515013895
96.3482840347919
96.355477909657
96.4628301788445
96.4800535695619
96.4380472826898
96.4554497526827
96.5573843036763
96.6379508105046
96.6981701377936
96.7230756424262
96.6350599766351
96.6663234717131
96.9160162914574
96.9546617039963
96.856913612258
97.0918118361429
97.2099210671479
96.9382293884712
96.9794498293486
97.1729981315514
97.2015617474029
97.1211418032961
97.2308938982397
97.3461614271272
97.4151295719075
97.4426198776475
97.5451440151806
97.4701519281044
97.5552223148591
97.7860432135464
97.7904809454984
97.5498637569973
97.5205202089739
97.6391059895334
97.8069547020682
97.7057751118877
97.718091506694
97.8714857120803
97.9449907016004
97.9408538835255
98.1672719995512
98.3349929890273
98.0328944490644
98.0101313140163
98.1450592840651
98.2128028634325
98.3439409709885
98.5624288043028
98.78246891147
98.7783051342422
98.7222334165429
98.6283374422904
98.7115242058698
98.9758692111575
99.0003181957216
98.6932173079305
98.4585750802479
98.5004852166919
98.6578231465759
98.777196862553
99.1295700030616
99.2308075606176
99.3234256361219
99.5058350881319
99.2590315418744
98.9954886183316
98.9922016964951
99.0340856343325
99.3703524350231
99.6095085970254
99.7367148691972
100.076627254389
100.097769254295
99.7772051685675
99.4686488462261
99.3382246416443
99.0728950292327
98.65035772279
98.3778961774414
98.2783960093211
98.4867077205322
98.620348709403
98.4076256295298
98.4358072181457
98.6014953020401
98.2990490425363
97.9421038940352
97.7543275738312
97.7703335447861
97.659376510297
97.4708528212122
97.3008790949343
97.2840821175285
97.3457779900652
97.3094482417025
97.264414828218
97.2571560746891
97.1402909933546
97.1756970725814
97.3360381105133
97.3480668300015
97.4000686531278
97.3202007897566
97.25674109551
97.3195468096621
97.523751905897
97.5279710805703
97.4961517866837
97.5082056576115
97.4849790900323
97.4559518009317
97.3485385091424
97.3723689503573
97.3721277298619
97.3350558029973
97.3212640173982
97.3330252302996
97.2884184783987
97.2815133426932
97.3558394131802
97.3792409579665
97.5236512015363
97.7287421235124
97.7613433342119
97.6101584554807
97.5550347606569
97.5587443774523
97.752996494926
97.9676554155534
97.8733266012439
97.9454458001881
98.3835909002075
98.7057509361906
98.7460734517592
98.660301160596
98.7857186258873
99.0567418742004
98.9884003957426
98.7907275812355
99.0280159494791
99.3742412651424
99.3740434101583
99.0740329132007
98.9874924974801
98.8391261895697
98.8979722378746
98.82246579927
98.5837756264879
98.9302003242897
99.0509528544379
99.0867693169286
99.5201499622087
99.6662630078893
99.3086813252508
99.2887132383675
99.0760661696902
98.7092022763432
98.7741715197561
98.6840577383429
98.5490242662768
98.6741137356463
98.9013399764726
98.8081836785716
98.4900610169518
98.4099491930887
98.6023097095617
98.7854656759203
98.8735088835935
99.0421964354043
99.1155498352108
99.1276879455898
99.0849354203407
99.0699737137855
99.1219077030363
99.1697811754884
98.9156640369099
98.8057486825144
98.9505366069902
98.9857086139106
98.8002352181669
98.8775496192349
98.6355010867279
98.2676727125653
98.2932460402418
98.3873549589669
98.2565217376859
98.1766777463291
98.3455035413551
98.4764015141572
98.2288337132643
98.0459932744028
97.9515347615402
97.9532304034361
97.9564452595687
97.9923364642782
98.0790691260603
98.1354403657209
98.0284227513803
97.9343507848122
97.95233885871
97.998863678994
97.8907320121251
97.7025267088168
97.6081128193188
97.7351052342491
97.7737864002145
97.7160153802353
97.7080595119949
97.7211260352395
97.7063632526649
97.8230636126698
97.8378906641361
97.6856470104249
97.5753363992656
97.6447214407937
97.7504012225457
97.6768374089319
97.5849987254998
97.6628076824631
97.6793180003866
97.6233584007006
97.6106334594114
97.6034891802159
97.5186110723721
97.5035588310656
97.5724393904111
97.6178626406119
97.5886362280478
97.5961773273277
97.6215372996554
97.6085182685217
97.5275244781053
97.4481897497068
97.4574067715086
97.5168005385282
97.5529924077123
97.561674399963
97.5449731698453
97.5643416299822
97.553974503391
97.4855046297562
97.4252898193167
97.4605005988103
97.5025827640912
97.5144512080907
97.5053480458664
97.5583376034588
97.6259177664144
97.5767444571194
97.4981405807844
97.5563671980498
97.5214487998867
97.4682002135335
97.492978545738
97.5140245196224
97.5155834611908
97.5481152250716
97.5699933810441
97.5451228346424
97.4593024882842
97.4478553484693
97.4945842983013
97.5086657738866
97.5008244403338
97.4888796906457
97.4628474671923
97.4639990578657
97.5079287261702
97.4912410428646
97.4056812415011
97.4320137511594
97.4500636976265
97.4200230433058
97.3724101716609
97.3845025329543
97.3698991330612
97.3341988726475
97.3626619141926
97.4013648838974
97.3595706115855
97.2807955920101
97.1413761196859
96.5100457088909
95.0244613846062
93.635546114564
94.0168324078045
95.1364710343895
95.903479988444
96.3960577536155
96.6970668466155
96.8337726695501
96.8821988060409
96.9554943810109
97.0066316645828
96.9997068916641
96.9686154364625
96.9507683884918
96.9593228493098
97.0549844051345
97.0869179697295
96.8684271195847
96.7988790760726
96.7990695646107
96.7451752108693
96.7526704266707
96.7481610170368
96.7020036618037
96.6949424093121
96.6372599389426
96.5349715513877
96.5002017653483
96.4166182569363
96.3462392288613
96.3212248752236
96.2644965613991
96.1468087002472
96.0834742049571
96.0221065086189
95.8438086123014
95.7421772471047
95.6100564959873
95.3441453668312
95.2404557133696
95.1112161279637
94.9425437501253
94.871103558278
94.7301285459877
94.3849837616476
94.2396891172806
94.1389386667307
94.0070373716028
93.8362622623874
93.6855532208283
93.6205749903968
93.4601360578262
93.2795894989476
93.2190245446789
93.1241885018855
92.9755398401527
92.8175323674928
92.6624536558349
92.5691569586044
92.5240317773024
92.1757586642263
91.79576107081
91.579630769366
91.1686337522709
90.5261505034024
90.0132759608692
89.506086633837
88.9976911074886
88.6092181592922
88.4930848072545
88.835976272599
89.2523876499252
89.594364285169
89.8677949518861
90.1229729503533
90.3263708322341
90.5033627676908
90.6655060944149
90.7846980546912
90.8192078603698
90.9278670258567
91.0874792679098
91.2228761443364
91.2888113347361
91.3432397413147
91.4487500959803
91.5512623412882
91.5859065183927
91.6423318113239
91.7285358246392
91.8025922218373
91.8631261650596
91.9794313581319
92.0788969791213
92.1223721298978
92.1902768813573
92.2800089457833
92.3504823982349
92.4096404519525
92.4821539056563
92.5625855086151
92.5924402364703
92.6604254286864
92.7976124490609
92.8324753988809
92.8590974570256
92.9677175050564
93.0244207093994
93.0468474883585
93.0983241960924
93.1105173023797
93.1292557262467
93.2777195922072
93.3745021905762
93.3771069163351
93.3963362610689
93.4346523744915
93.45822349278
93.5008534648261
93.5424606918624
93.5641444489755
93.4853803056477
93.5247258367953
93.5812046286506
93.5465642246701
93.5121838192934
93.5591961747683
93.5699238963096
93.5370982942027
93.5279457452967
93.5137389787994
93.4547099403291
93.4261766347696
93.3894313069969
93.3404579063772
93.3093406296628
93.2489218069502
93.1570169673364
93.0162372237187
92.9187001880634
92.943314473558
92.9391050756325
92.8574989946389
92.7290313805925
92.6534133001483
92.6425965791127
92.6164958899185
92.5379057145127
92.4257507122555
92.3635869099907
92.3021037835076
92.2099795583379
92.1096934367286
91.9911954952318
91.8754663025574
91.7341641419447
91.5888966998055
91.4006774539748
91.2686481966033
91.2525777035163
91.1839247316609
91.0027263383529
90.879258524481
90.8182999532425
90.7229117512462
90.4075304027184
90.0509364745111
89.6876329592502
89.0797753765898
88.2499049536009
87.2497292429473
86.1728102028988
85.2144430779871
84.3155101881831
83.5144305700359
82.8209100198822
82.0184872281451
80.9528074094018
80.0731068145001
79.7243275138314
79.8884943813193
79.7785638217576
79.3152206329992
78.7169532559711
78.0693361692225
77.4403704122988
76.7296765147765
76.0589470580057
75.4534161535517
74.775088414144
74.0857358282944
73.3958741168337
72.7059452927335
72.0174292359291
71.2972901813862
70.6064267386095
69.9415533850137
69.1959936995105
68.4792478313839
67.7032963080087
66.7700396192691
65.7892437202596
64.7778635838407
63.613091785689
62.3211764009959
61.0434469225582
59.76652304765
58.5382939550996
57.3965994561734
56.479838529975
55.988381392158
55.7875231029594
55.8323512607899
56.0656218182958
56.2848332742666
56.5200508682415
56.9939705724617
57.4413933265817
57.7530429297887
58.0424202739937
58.3855419143289
58.7384577099229
59.0690829880826
59.4298093931326
59.8050902458375
60.1633901811443
60.510446087603
60.8084604686276
61.1973640910749
61.686857624297
62.1031718334617
62.4584731507798
62.8011620140881
63.1450306780036
63.5053494501793
63.8822973595512
64.2565210634072
64.6654990557991
65.057101168121
65.4562452321208
65.8931743638108
66.3046865468769
66.6789675626551
67.0487574227072
67.4110193457451
67.7738647965388
68.1398625518153
68.4973415419344
68.8509716895818
69.1957259915768
69.5167555657913
69.8670381397388
70.2333759446745
70.5694457214447
70.8775094468457
71.1993136307271
71.5277146098193
71.8485646547557
72.1578576381794
72.4593898589732
72.7387542504124
73.0168224546759
73.3034723679182
73.5821820477357
73.8491221312346
74.1289129886138
74.3726946111476
74.6077622565159
74.8681400737101
75.1097776687788
75.3288315524817
75.5752896013384
75.8313844267646
76.0577836817833
76.2417412939884
76.4253000716369
76.6136825906932
76.8177412760644
77.0210227822961
77.21515947301
77.4290528017101
77.6333823726933
77.8013720422668
77.9787665193717
78.1551321624043
78.330747207272
78.4911604608663
78.603173711271
78.7132128849244
78.8315690283443
78.913330972053
78.9551498727588
78.9976910604141
79.0281056563527
78.9723535938105
78.8478320606575
78.6495374278106
78.3752447917886
78.0376386166124
77.6121689933159
77.0806269967379
76.4794825306564
75.8337716350857
75.1851495604587
74.5369746590332
73.9296229844721
73.4378888739483
73.1289412460691
73.0894340685859
73.3310273428022
73.8030529145449
74.3789935481328
74.9111765559917
75.3031900190605
75.5565276968217
75.6739409401794
75.6288722617622
75.4618471843074
75.1667808606752
74.783772015346
74.3075648907196
73.7613460574004
73.1855598547372
72.5657062513123
71.9162892240962
71.3019482666821
70.734680805101
70.2015877516097
69.6717159866187
69.1506473069034
68.6051381198098
68.007413662862
67.4175807796849
66.8386629800391
66.2527262115483
65.7213344702145
65.3050374534867
65.0568362469523
65.0143282380754
65.0667386737498
65.0269661312173
64.760422831541
64.2028368347917
63.5257060126262
63.02480909506
62.9396246545579
63.1757722017066
63.5598968256804
63.9745006932272
64.3403445546463
64.5889338882302
64.662872275458
64.6067707625221
64.4384391349566
64.15392380625
63.7800087339646
63.3237922323073
62.8691307878888
62.4683028757291
62.1172342414693
61.878921179832
61.8473226510693
62.0312818541542
62.3901150119228
62.8755503671072
63.471321250634
64.1630743488273
64.9138092400577
65.7158756921963
66.5702469816932
67.4350026048535
68.3207300178174
69.1906962288346
70.0723287082959
70.9258294895736
71.7329269082663
72.5043257941099
73.2321229701338
73.9092171496913
74.5690867819752
75.1864639647896
75.770374866892
76.2376257437747
76.4999473213497
76.8510893652553
77.4230898120481
77.9660037585696
78.4515868096793
78.8923141905594
79.2846067547373
79.6655858816373
80.0386812149938
80.3820014779925
80.7065434087304
81.0193821756254
81.3314178893948
81.6405828105396
81.9268644568008
82.1711516005556
82.3972825550596
82.6319418396568
82.8398875616196
83.0140599887598
83.1849536626166
83.335585665441
83.4897499900725
83.5947187350343
83.6798053798155
83.7076744353186
83.7179172075207
83.8081745686737
84.0038541005956
84.2406189053425
84.4584194201237
84.6267494260282
84.7995943300086
84.9638239337641
85.1129559365214
85.2407848307969
85.2653133983185
85.2156947929102
85.2821875080819
85.48228393729
85.718111700182
85.9177767099575
86.0663534546763
86.2098252345048
86.3815266053827
86.4939116356965
86.588434369936
86.7022677033968
86.7974237446087
86.8891786004707
86.9892685249953
87.0605712898529
87.1197556220558
87.2138432407603
87.299378696275
87.3663792326036
87.4367184078517
87.4881626700242
87.5255253826471
87.5765135018221
87.6280944682973
87.6996120373478
87.7722690420493
87.8421689059109
87.8873857655514
87.9079426413604
87.9605419482874
88.0209795295078
88.0952537059553
88.18285693031
88.2577069601934
88.2813350287634
88.3078147400789
88.3601793992914
88.4110882404455
88.4353111122522
88.4673926583654
88.505969341199
88.5376918794838
88.5894248577523
88.6376723667171
88.6707929422323
88.7143898343439
88.7221058506043
88.7409780379458
88.8144136156236
88.8770830881752
88.8801347488464
88.8414942355239
88.8331039810123
88.8627647634831
88.8561771300976
88.8569733390345
88.8412188406541
88.7992649826026
88.7723431614771
88.7413160611971
88.6430529989091
88.5292423265097
88.4613391049488
88.4580949557393
88.4321781958911
88.3584855895628
88.2727272044672
88.1731981867241
88.1043314332144
88.0798102888489
88.0884512017659
88.0865810387506
88.0899118360727
88.0976774537029
88.1368244052863
88.1601905189238
88.1161555478224
88.0594881939009
87.9578379138149
87.7337029482496
87.3210189085801
86.4561505322875
84.0418383085183
78.4917034779387
71.2452302737821
67.9738986103972
71.0363722708479
76.499412531451
80.685300702504
83.1311999841844
84.4911943586659
85.1180985117093
85.3557317445445
85.7403230235112
86.1191698962176
86.3185396046089
86.4332709964768
86.4858835127831
86.4914614426534
86.5161970753256
86.4988271377509
86.4417124136982
86.379643895406
86.2838877728988
86.2084960009387
86.166590215071
86.0915124020391
85.9765103075501
85.8757120792715
85.7913271969903
85.65030785098
85.4775389355937
85.2999026278119
85.167368962855
84.9599419697192
84.7300362546813
84.4574574568936
84.1713922985337
83.8945157757974
83.6098359550207
83.3451290106561
83.1095081584471
82.9247031974898
82.8482962782244
82.7503520320144
82.7376697351712
82.8008915574031
82.8838074489405
82.9539573433003
83.0829330259423
83.1894271889706
83.2717795281343
83.3539037887075
83.4429465006401
83.5596585460346
83.6478122887444
83.7596558014515
83.881402904673
83.9204016324462
83.9168933739894
83.9439675147674
83.9962007359689
83.9354328954312
83.7961760743883
83.7809914869095
83.8762961418296
83.9082173223492
83.8921094834895
83.8865045450726
83.8799351453003
83.8624088262171
83.8653810156495
83.894786499177
83.8575272919654
83.8350438751106
83.8626926373632
83.8306134582959
83.7800100819503
83.7399713325732
83.7037465190286
83.7027352727696
83.7006641219266
83.6075248557261
83.5979527848696
83.5457588349407
83.3874744584688
83.1912658668327
82.9913867927108
82.677894797113
82.3593063927606
81.7763119987833
80.6317679409981
78.7792589689738
76.4916895934894
74.7314482349674
74.5901788474498
76.0424944441553
77.7132120143141
78.6896185592009
