1798
3999.43349933624
650.420452594757
1
128
4
96.7492796375941
96.6884968937136
96.6956171040672
96.7402866671333
96.6647369319573
96.6649031114798
96.7439737154581
96.7195424160851
96.7535658167275
96.753204629856
96.7494097468559
96.8496955438961
96.7970811342036
96.7829445464952
96.785621120729
96.7439727591303
96.6866361154758
96.711090255786
96.8471656456285
96.8052722176768
96.7660306591395
96.7897253551415
96.7287111140786
96.6798120523898
96.6952524402184
96.7775316331679
96.698770990875
96.6647925105284
96.7671336167816
96.6962568758655
96.7071801783209
96.7668908289954
96.7542448896123
96.8356143852312
96.790303708239
96.7657379038205
96.8182323136617
96.7326946867992
96.7290589526596
96.7565112373965
96.6820988322217
96.7342805560859
96.7465907444646
96.6436924403498
96.5539002978856
96.7002770137943
96.9000808255809
96.8781863571461
96.7193921394621
96.7163727691213
96.6919372933105
96.4134326048816
96.4353346028922
96.7421289278956
96.8111905652674
96.5482809892282
96.5468918760979
96.5503111475168
96.4750729711315
96.630395878209
96.697300840209
96.7491348109226
96.8256822941277
96.8969430314492
97.0501605938028
97.263456094502
96.9319561028244
96.6935619329277
96.7874408829491
96.5521002952273
96.7062248352764
96.8653846497242
96.7289769799999
97.1225522804311
97.2594847735631
96.9518506830532
96.6906139253225
96.5811321338026
96.8131736635635
97.3276065899718
97.2765442955187
96.9764349757595
96.5942430697991
96.4819347949483
96.6955941544147
96.8412756013398
96.9076202283941
96.9209500253115
97.0284853784436
96.844562182925
96.897837329737
97.0540460822386
96.972196812025
96.7476971384994
96.6749749988845
96.7510269714702
96.6528171630735
96.574148357041
96.7902408850709
96.9950664656267
96.9825048263583
96.861724335789
96.8289704497092
96.807322001052
96.7452401528172
96.7283140780702
96.9374938290567
96.9695256300301
96.8441652790506
96.8835772782253
96.961877683386
96.9207544944469
96.8257038166247
96.7330894389199
96.7915654863039
96.9508355717624
96.9848290837184
96.8953821089316
96.8497547632302
96.8799394295946
96.8890031460412
96.7644943543465
96.7258901123244
96.8919928980055
96.9401430834829
96.9831974115683
97.0415803841173
97.0230252160748
97.0139904635818
97.0255232649781
96.9802441683299
96.8408547281942
96.7914516262953
96.9544220544181
97.0439755770489
96.8047056904107
96.6484131670351
96.7777359871143
96.9747456974192
97.0022890298317
96.8579678369766
96.7831373289198
96.8916749591959
96.9163398384662
96.975699293651
96.9434145817364
96.812731594686
96.7003218011847
96.7765485587693
97.0117102483033
97.1864308458008
97.0680571881831
96.8343986538719
96.6957747426971
96.7594366148788
97.0255413480464
97.1676534199647
96.9586119733182
96.7810820267202
96.8294100408899
96.9376532635758
96.9968963421662
96.950003538772
96.8625558733835
96.8316751257346
96.8008836048033
96.8652145083401
96.9391324912911
97.0321516639108
96.9193376929301
96.7267493971792
96.5584878191938
96.5935340696048
96.7081837964472
96.7008684757532
96.6596987923204
96.6736943537874
96.7444890717994
96.7154981455586
96.6646051029977
96.6425145474288
96.531745847928
96.4374637070309
96.4719126585411
96.5591779761011
96.4116394458897
96.1312886187162
95.9512281871646
96.1289496216555
96.4668517443899
96.4938201047277
96.3149863085651
96.0490177850296
95.9308430289163
95.9409906106642
95.927052233636
95.8541147734031
95.7327355746845
95.7045888583133
95.6746223368968
95.5691181284053
95.4913506485681
95.2898044163532
95.2003063258262
95.4143229338725
95.3526614896829
95.2490831683829
95.064428629279
94.8975544465619
94.9513171341258
94.9071420294024
94.706711374537
94.6207078386635
94.6390920947371
94.623985145782
94.4954711936435
94.4321333979238
94.3928647620442
94.2885195394515
94.1698705570998
94.0605823151413
94.0355152067938
94.0666898894815
93.8713803164236
93.6769191373291
93.6499429476601
93.7280907908838
93.7240253652921
93.6501305865291
93.4664886686735
93.2226048746346
93.1164521260129
93.1523261372997
93.1159951839178
93.0302190599243
92.9799724293091
92.9864857731909
92.889043042229
92.7666450664554
92.6674738510793
92.5726026674684
92.4370510704597
92.3899096434103
92.3366721888833
92.2661778076655
92.2598084039096
92.2451231368352
92.1312378427382
92.0864877574074
91.9940045523813
91.8379191651155
91.7074768795366
91.6511703749079
91.5809127122203
91.5249029717075
91.4369466637722
91.4527782858683
91.4281139545558
91.3101303360952
91.129599373903
91.024768111009
91.0482477749646
91.0859210150522
90.9722385092904
90.7775877607007
90.5765409602215
90.4929518190339
90.4843125741809
90.4322614188519
90.4416931887658
90.4211722295652
90.2591676418469
90.1492122362843
90.060972247575
89.9748028855823
89.9469403492168
89.8529785202644
89.7243595784211
89.611797458294
89.4332314213209
89.2960762891629
89.2763486461158
89.2563000684177
89.1663419015742
89.0580645858253
88.8568505034363
88.7469982035752
88.7630985566297
88.6989431442032
88.5683456843838
88.4624053107375
88.3752317550814
88.2222429565134
88.0613637546725
87.9978896301175
87.8671138692858
87.6639164737757
87.5814341585984
87.6237177982707
87.5917817999683
87.3988522850819
87.1176891098975
86.9105115413305
86.8817646688915
86.8383638497567
86.6400917804381
86.5667031407173
86.5110450060045
86.3507792170075
86.1516161985696
85.9880491727028
85.8547284750063
85.7806824285186
85.6860800485959
85.5631735753433
85.4841185123115
85.4450754002815
85.3142234874597
85.1998555490327
85.0607499558788
84.8892550270882
84.7702839701347
84.6956291045552
84.6012304909639
84.5479431685187
84.4705091572781
84.4663357046365
84.3698256526975
84.311261893848
84.2876514368999
84.2062058071582
84.1264762639385
84.1891709993786
84.2826407327819
84.2455535356832
84.1122448020202
84.1145492295006
84.1048969172766
84.0227604214603
84.0394201848031
84.1676535018317
84.0906139667729
84.0428910201508
84.0191932735393
83.9891361547945
84.0823910902359
84.1540868870915
84.1472663186319
84.1069646475857
84.1125798350958
84.1137655883016
84.0684198443352
84.0386016805929
84.0663088053416
84.0770383557583
84.0352435182284
84.0008133471224
83.9695964835013
84.0386894951066
84.0246839834016
83.9813148894582
84.0206448010442
84.0514583993753
83.9981930150994
83.9706228964582
84.0370036149282
84.1274650986361
84.0656823549523
84.0138745504756
84.0259395665519
84.1076977295988
84.128076618762
84.1093468568351
84.1863133813831
84.3002691759484
84.3063330541573
84.294849953707
84.2495655306546
84.1927551007296
84.2291516152746
84.3218460562802
84.3924508516795
84.4671366092721
84.53820289932
84.6059147269108
84.6411058871379
84.7337266514053
84.7883500654194
84.8309153389345
84.8284974059064
84.8171027163777
84.8840467101136
84.8586197926805
84.7860877816548
84.9476342583712
85.0744283005848
85.0417697464546
85.0308893050821
85.0573421057919
85.0617405019139
85.0511923713365
85.1000114720682
85.1473856818321
85.1704353959805
85.2346254489019
85.2951580184457
85.3108089951838
85.2710765938564
85.2882410942861
85.3958717136853
85.4488684309812
85.4812547363916
85.5506873862327
85.6298212481607
85.711448932453
85.7618889602263
85.756035393037
85.7712853751566
85.9392867504191
86.0430165888672
86.0893396675228
86.2084810500799
86.3764727360619
86.3903289072647
86.3484530008637
86.4553373108231
86.4709083332813
86.5044558464684
86.6452382122203
86.738584589232
86.7829752507317
86.8099327764657
86.8954758783323
87.0187898393214
87.151508690172
87.1749664914363
87.2089531750048
87.3011557143276
87.3186825338046
87.3384021259444
87.3668002864546
87.3723311750339
87.5348865182603
87.7057710620027
87.7631988266795
87.8112627021072
87.8718696123014
87.9833577466501
88.1130848859916
88.1758608833615
88.1637696033941
88.1846684828471
88.2707762966231
88.4064717709828
88.5525277365489
88.5979279731111
88.64183226865
88.7341277766092
88.7826329266485
88.7706212455712
88.7696893436025
88.8405366755844
88.9613594261878
89.0672977271382
89.1772899225447
89.1974356642776
89.2519401240753
89.3857750426639
89.4204857013067
89.4634934891677
89.5536935516169
89.5485686807032
89.5788716255875
89.6649234137484
89.8021445939726
89.8868723110298
89.8835990710077
89.9021536429345
90.0520712360783
90.1269357711535
90.0603274613759
90.0790025384804
90.2418576172103
90.3628229512589
90.3830689889045
90.3555376076966
90.384865511086
90.4780988520191
90.5926862017713
90.6585863338228
90.6899691676135
90.6763872624409
90.7168951861615
90.8418552424096
90.9308339673927
90.927412538494
90.9353519468598
91.0101407667995
91.0622822228014
91.133856595068
91.2610915313614
91.3346061812762
91.3521702572827
91.3266076773337
91.3245464583705
91.4352791461459
91.5380419811517
91.5660106794407
91.5898216096637
91.6413046257913
91.7118887273871
91.7746726966323
91.7987384930838
91.7911319227537
91.8278077068071
91.8930807234616
91.9554506034565
92.0518074978662
92.1068331013408
92.0882391924057
92.130109240474
92.2318483061532
92.2312977085946
92.2060254773184
92.2697298776534
92.3268620431213
92.3798423670846
92.4015748705836
92.437246767578
92.5271902410553
92.5443998728911
92.5564419075729
92.6373139103141
92.6466018075325
92.6428729666066
92.6644523416214
92.6862634171764
92.7426114720646
92.8090528072825
92.8553363865867
92.9010492309178
92.9666626736342
92.9360502412916
92.8771125915018
92.8730373857836
92.9272550863336
93.0044365075412
93.0242822572122
93.0164816330634
93.0072158630175
93.0428854785311
93.0743092321681
93.0736792910455
93.1523991446301
93.2261389224851
93.212591140316
93.2335193419153
93.2959269002621
93.3770261041385
93.3909817541065
93.3351436511139
93.361686639274
93.4045506108211
93.375287265943
93.410246410336
93.4993437384843
93.5300277282318
93.5054046374148
93.5678636521605
93.6366492396633
93.6208132646771
93.589703706234
93.5577320317477
93.5949427941977
93.7022403498555
93.7696585499804
93.786437757012
93.7466563927841
93.7497901019978
93.8423854444973
93.9060881012773
93.8768755497485
93.9014258117066
94.0047620488606
94.0361113286222
94.0279010784696
94.0426137369905
94.0625806954489
94.0701984985163
94.0965257910593
94.1450638417074
94.1678684261295
94.2148266317276
94.257695940056
94.2215941738442
94.2360813491116
94.2856346177463
94.307928824551
94.3203309974534
94.2782668974214
94.2192801472083
94.2407189094774
94.3131588493207
94.3704238117729
94.4134601304961
94.3932875683341
94.3770015156716
94.4015002339927
94.4051054594783
94.4300657222634
94.4608587368901
94.4622005323121
94.5025752830836
94.5668418549601
94.5539270176135
94.5424961685409
94.5902165561822
94.647383297716
94.6852357073413
94.6870680851796
94.6590880054481
94.6526667091771
94.7546974649342
94.8458691377587
94.8196294043268
94.8169292672562
94.8286944717556
94.8279918304121
94.8247270705037
94.834515443195
94.8506990561458
94.8592622092151
94.8777849431
94.8938033161955
94.8673940500242
94.8690256763053
94.8880199270608
94.892260609989
94.9125830050495
94.939510411673
94.8979741227188
94.8725666875205
94.9112040399594
94.9156753394013
94.9295501425388
94.9679147543739
94.9111447509156
94.8291679176528
94.8600342077244
94.953511063052
94.9340214150292
94.8592421966679
94.8479482757571
94.8260059389731
94.8045283906548
94.7918610817693
94.824988002503
94.8851847601929
94.8978656742017
94.9083995970785
94.9112946274168
94.9339950572122
94.9608922812982
94.946760888063
94.9447707802484
94.9558281401261
94.9485864534428
94.9381100705504
94.9216442100208
94.9221041140965
94.9248897367066
94.9595354954524
95.0145563831725
95.0244334361953
94.9811134058513
94.8963536180113
94.8677459254184
94.8698257680426
94.8172228781854
94.8214052579842
94.8508441871723
94.8140914379613
94.8453953685535
94.9761266066159
95.0599423035083
95.1255373748353
95.225903301578
95.2756369009318
95.2647200016802
95.2370485490215
95.2258360158839
95.2676036006959
95.3326378522872
95.4112577037638
95.4264081586069
95.3805725516216
95.4216734666728
95.4875487487531
95.4936448484333
95.530005745013
95.5511809941992
95.5305142224256
95.4988867501384
95.515332259091
95.5612361410561
95.5550984045245
95.5442863077986
95.5893085271353
95.6597580542016
95.7208350476935
95.7357415235629
95.7079398166019
95.6848754016808
95.6871416542647
95.6539839559762
95.679182563989
95.73812427855
95.7192515840381
95.6981954140767
95.7219876026567
95.7015770935969
95.6815287356044
95.7112315359586
95.7336096741161
95.7532542862215
95.7893234613949
95.8040072517169
95.8335383043542
95.8429517388019
95.80676577255
95.8156021302951
95.853389681012
95.8558332650427
95.9206988975807
95.986331804889
95.9622989224143
95.9319729552127
95.9550793008636
96.0183296321276
96.0383173659374
96.0238885987343
96.0069055718029
96.0547940604971
96.1511484259524
96.1383239633365
96.1067343162422
96.1488020767084
96.1695876494628
96.139654846663
96.1425834864658
96.150283300116
96.1277771418765
96.1305636953334
96.2044917865934
96.2547611680492
96.2622298000679
96.2860745455659
96.3512985871161
96.3684887291295
96.3284727767744
96.3003006107345
96.3012924561596
96.2960297222782
96.3165650204432
96.4321007501151
96.5237701559147
96.4621818119321
96.418533184064
96.4655514362892
96.5023462751403
96.4655719690658
96.4491289204854
96.4396057174366
96.4428682634421
96.4797261685653
96.548095678053
96.6059249460406
96.563929840134
96.4801527757867
96.5242487181899
96.5385272709765
96.4959117296776
96.5222306432432
96.5560699704096
96.5595642628337
96.5403033136914
96.5817040940182
96.6568994982345
96.6301453409901
96.6091154705032
96.5845219873147
96.5475720932594
96.5081414098381
96.5495122122832
96.6595032272687
96.6643799021677
96.6081289628933
96.6114601242677
96.6161510940934
96.6850656035905
96.6596552327375
96.5889773753536
96.5619877372765
96.5231450239302
96.4646379426079
96.4283643435492
96.5055236514963
96.6041571971548
96.5837304547547
96.5392561565089
96.4562005721676
96.36518943444
96.3550798147867
96.3852987414473
96.4398906566499
96.4682458089326
96.3813195863912
96.3040276209593
96.2858977291524
96.2794619327843
96.2619184034338
96.2540648591185
96.3304382321038
96.3943177182471
96.3912901290262
96.4038738904608
96.3767672739441
96.3959999515714
96.4720658950494
96.4402966468508
96.2975040440811
96.2466681318646
96.2957259308922
96.3279015603701
96.353985654425
96.4017025382668
96.3859777600506
96.3348550601437
96.2719173062099
96.2390741278424
96.1879554301695
96.035561050616
95.9286549943876
95.9406026399086
95.8606681209619
95.7977352606394
95.8717067447743
95.8692306747664
95.8290487806082
95.8675443174421
95.8624313548522
95.8185148144606
95.7474450157101
95.7020965086282
95.7420265900159
95.6586848115054
95.4359160935909
95.2545545495727
95.0924931908967
94.7859173734166
94.3850251870562
94.189967634641
94.2836050103236
94.4839635680477
94.6845952117085
94.9119788335832
95.0739187869689
95.2179725274653
95.4271199732162
95.6438790605397
95.8307095592592
95.9964143143402
96.1460783887892
96.2482964819194
96.2603310707272
96.288426319485
96.3681897272882
96.3814958304466
96.347386384211
96.3181989358105
96.3065649675026
96.3335026816277
96.3645626100291
96.3911316902997
96.3563232161236
96.315624397579
96.2632422681853
96.2093133198375
96.2458882569709
96.332449090778
96.3595183814284
96.3096500792215
96.3317581970777
96.3664283769358
96.3118344139234
96.3216908380817
96.3197983137612
96.274387261013
96.2672756993813
96.2338789226854
96.1704393486425
96.1664314166212
96.2355720250399
96.3269348385062
96.3398707976475
96.3458556626555
96.3981007835289
96.4620320649441
96.4534759524822
96.4008123068419
96.3622080785944
96.3384726744368
96.3700979288752
96.441535101782
96.4594854950063
96.4741323321033
96.4936739188947
96.5137730592841
96.5279485400811
96.5121348394934
96.5588370987369
96.6693294434463
96.7586435163423
96.8400133571352
96.9225248343334
97.0365272732935
97.0429777284475
96.876503798886
96.7629256392482
96.8902385167813
97.088761369726
97.2124446093092
97.2326679774718
97.2172779273777
97.2254242297065
97.323002511976
97.3850881451832
97.2957762894441
97.2100997734809
97.2359442257819
97.368036247044
97.4517116712084
97.4975976142829
97.5256440551297
97.4844974603829
97.646503155566
97.8113557641064
97.8155235598197
97.8716202430629
97.8231757377705
97.7721182718894
98.0225628235407
98.2099392168033
98.0976819186899
97.9845811913335
98.0455630787761
98.2180103170119
98.4738534667481
98.5311094097805
98.3604138751352
98.3052405858357
98.4655592169433
98.4438173628376
98.3314246691701
98.3119334987449
98.3188558956777
98.5318718283933
98.8512923304314
98.8935294602794
98.8682313744004
99.0531172458425
99.2213815064253
99.1869511714088
99.0626204265957
98.9508225166017
99.1722268712609
99.306639098547
99.2885047700063
99.2151285411343
99.0079253791355
99.0502907569798
99.3619296717115
99.6520833149205
99.673512745993
99.7158663109882
100.054955193937
100.020224416639
99.8011872097262
99.8924945288464
99.7950044188359
99.5804701436868
99.3137363977398
99.0622297588584
98.7073930699285
98.3790048140924
98.4654726289695
98.6310071040886
98.5493081527085
98.3244615885721
98.3538758780291
98.6537806262801
98.6112054542028
98.1021032753694
97.7296061533665
97.5952308201399
97.5104237632386
97.5321367264811
97.6162084374074
97.6006698598517
97.5981011027197
97.6070695404856
97.5318432681737
97.4615696351833
97.5394162150975
97.5749162278249
97.467008548894
97.4539233549546
97.5632685832126
97.482466721738
97.2996027169181
97.2860490569929
97.3544851562958
97.4021047449561
97.396883302321
97.396357484475
97.5308580761671
97.6156536601913
97.5913681538454
97.5620778526245
97.4573995095885
97.4081569642503
97.5156054802074
97.5663820675719
97.6800775864724
97.706181316423
97.635822282469
97.7937630318622
97.8858925449516
97.8218821167968
97.8844049774851
97.9491255879364
97.9506817092509
98.0814684889376
98.3136478112629
98.2741625577996
98.2595739275068
98.4346963063055
98.463444052319
98.5851496524322
99.0006234776955
99.3887388600553
99.2948823400876
99.0444523112323
99.3494197123904
99.448647619395
99.3974523554869
99.6552307916581
99.6348397658479
99.5128697839044
99.7593700359642
99.8330072120009
99.5019979304386
99.2606402403852
99.2165548279487
99.1489493352455
99.2580363257377
99.4819337926308
99.3683835525675
99.236620541143
99.2942151715414
99.1137126027349
98.8391906200061
98.8328904174125
98.8597309602199
98.9872389652974
99.3060985727168
99.3096625809568
99.1267695441185
98.9300122891525
98.9308118217301
99.1059840645151
99.1230542442688
99.1644306295679
99.1847548248972
99.1439978219638
99.4964708049278
99.6846505074939
99.3050040275345
99.1122680254534
99.3153421817339
99.3240762213886
99.0623171934124
98.9554656549895
98.8546060028978
98.7479254158174
98.9087090091945
98.7760019984824
98.4953050726652
98.4488920226991
98.5047534417977
98.5727303774312
98.5664235698054
98.4982705260112
98.4913912889855
98.3721446712413
98.2484417137123
98.2307510175815
98.1640981200694
98.1189306224022
98.1426951153687
98.1331273718621
98.0742818691381
98.0709106768072
98.0905124778106
97.9038999371752
97.7499293883013
97.8298463716638
97.9149189060192
97.8853027772158
97.8415551901837
97.9010201047466
97.9903983923924
97.9406181091996
97.7677441038807
97.6588823190584
97.6783968595581
97.6977294988442
97.7098120776337
97.7678808585302
97.8279126792522
97.8288924755959
97.7852025599971
97.6972613247589
97.6588236812916
97.6223037790376
97.6525095911052
97.6494171672955
97.5731968543172
97.6064944229865
97.700655751963
97.7485320374917
97.701705632568
97.5519458019862
97.4837845031356
97.6287345369621
97.7318228933543
97.6553567753891
97.5958863180796
97.6035853822253
97.5929076987049
97.5952598292977
97.6696947528282
97.6432854370791
97.5685792149599
97.522962880816
97.4947925937158
97.5697818733587
97.6973400780706
97.7028094916346
97.6260837372052
97.5200190009385
97.4913692535197
97.5103180222707
97.4704375800733
97.4281890704264
97.4630314560489
97.5059417992969
97.5268090964136
97.5234359581103
97.5225181725753
97.5262766638427
97.5216306167023
97.5325277581332
97.5026613178069
97.4901158400495
97.547024967723
97.5772266333356
97.5222060764108
97.4390707482654
97.4173075097106
97.4808624385069
97.5206360975922
97.427367103967
97.2975027499062
97.3060932531157
97.4218010682073
97.4256833302535
97.340054421115
97.2574631412977
97.2306169107211
97.2813962195023
97.2831437830804
97.2386894053536
97.1703291619118
97.1149192303076
97.1387548296253
97.2758247818677
97.1948368035176
96.5478382285639
95.0032057150649
93.4018950710705
93.66910630286
94.9143081095288
95.7125454683596
96.2276107296095
96.4100356683575
96.465910695058
96.6055317538237
96.7167661855327
96.7529051762252
96.6754040858005
96.6179160227932
96.6426742666957
96.5834496793397
96.482841274486
96.4140099921981
96.5308696922092
96.5946245775409
96.5073714256157
96.4081194376291
96.335287148155
96.2494528808463
96.1199410966057
96.0045958566539
95.8738956295234
95.9134106891854
95.995694543167
95.914965155276
95.7191592135396
95.593996358048
95.5033666855078
95.3584658179201
95.1681570163026
94.9110539271333
94.7993286873774
94.8489580005255
94.7054891673424
94.5614733330751
94.3484338060693
94.047523230381
93.713117670883
93.4378713586377
93.2342175601861
93.2300774372628
93.0553707240375
92.7505820613913
92.4547404095469
92.1717887615399
92.0294188356862
91.8451051000268
91.6789344880353
91.5726086643547
91.4195248552823
91.1767317793104
90.9594467644858
90.8302110120094
90.5778505988215
90.2165053903267
89.8913687277683
89.7543100016878
89.7241383464582
89.4057819926476
88.9407780981982
88.614768672142
88.3809100172815
87.9860399431795
87.5193827187943
87.1946280107384
87.1446664679402
87.5873380298793
87.8918810594456
87.9423290446318
87.9878980530218
88.1651714874548
88.350972346404
88.4908160942008
88.6560076681459
88.6795122993419
88.6499881845032
88.8463914809671
89.063927483234
89.1205661611042
89.1598824374819
89.2397206557711
89.3697729433877
89.4773272150706
89.5547388776496
89.6272016536811
89.7260149359586
89.8397638654044
89.9420530372641
90.0251756728087
90.1188703379392
90.2150086024921
90.3207676572466
90.418085923885
90.5094253660732
90.5924330131378
90.6309841785597
90.6241351464281
90.7015152285506
91.0301432803453
91.1454170548916
91.0853728015642
91.1777643257957
91.3973027722765
91.4502070308662
91.4154590581417
91.2475204160055
91.062801003062
91.5528976659274
91.9037539671971
91.899947851053
91.8895575646838
91.8619441405797
91.9312899872941
91.9292029914305
91.806683888975
91.784395155382
91.8960457800076
92.2142268302769
92.3427669872805
92.2400175222471
92.1213208000145
92.2070075922519
92.2294890093007
92.1633011867119
92.1069731371527
92.1047770326059
92.0686688291946
92.098106284849
92.1517543118707
92.1052670612454
92.1097879646453
92.0052778855188
91.8235392743417
91.5948934157035
91.4637072113795
91.7952983900152
91.9250414218417
91.7162113626028
91.4802182269261
91.390446495206
91.4443196881795
91.4858081809076
91.36289909611
91.1456375620301
91.1160018582867
91.1710239885236
91.1222000053065
90.9825339158125
90.8455268806015
90.7479828332078
90.5566315932348
90.3101987292208
90.1228349762608
90.0411515292833
90.0458021711906
89.8666422134361
89.6677768542294
89.5702577078705
89.511619307154
89.2909984841188
88.9732948877554
88.7491717388545
88.6790942430625
88.3191288075771
87.5556243433914
86.5938199928293
85.5773539227113
84.6129178635279
83.6984217373941
82.8160970281233
81.9708339249855
81.2193115559544
80.4740030539936
79.6578643062689
78.7449446810017
78.2443546197856
78.3589963274453
78.3545672390382
77.9153045000439
77.3122222196187
76.6928635058245
76.11220703011
75.6537171562223
75.1807877748278
74.5972620665907
74.0022161450802
73.4023565868949
72.8376901494468
72.2558195975003
71.6903699845185
71.0755651893359
70.4070101316765
69.7114492257475
69.0878456468458
68.4253155939887
67.755455749901
66.939857232455
66.0161786853002
65.0827755626501
64.1200900832865
63.0036090749205
61.8070821726069
60.5972701238163
59.4180561687315
58.2974351013332
57.4231852323667
56.9827567398017
56.8402609993323
56.8326848475863
57.0356902253303
57.1988067670899
57.3680433743945
57.7530504889174
58.213328883744
58.4693418699798
58.6804055212334
58.9369742335747
59.2299693513545
59.4934572835641
59.8032976433513
60.1130833409183
60.4114850867726
60.6821106704784
60.9412607973101
61.3030788637263
61.7963763258249
62.1629197124506
62.4440100301324
62.7211299722197
63.0699256333364
63.4130822970493
63.7584882312661
64.106751024645
64.4854462596761
64.8604620657749
65.2695523627298
65.6950112919926
66.0761161874632
66.413911180399
66.79615835363
67.1635477858906
67.5128825346744
67.8460696097409
68.1881594203346
68.5234713082471
68.8551992953237
69.1689202523061
69.4912193807223
69.8174360767819
70.1368587609902
70.4156409588499
70.7013495607147
71.0085728586472
71.3211442100935
71.5836419655839
71.8394524079664
72.0882858744463
72.346527159747
72.5922757085313
72.826534414282
73.0429558906253
73.2855632546704
73.5161238676142
73.7385534387221
73.9624812822123
74.1800235129603
74.3707007248636
74.5850430204105
74.7867562943144
74.984568751612
75.1629777303127
75.3449756076921
75.5312325241597
75.7304058857212
75.9157882893614
76.1030184934411
76.2989723895305
76.4861299100984
76.6520103665803
76.8274196705701
76.9830121769533
77.1401134184601
77.2873101016762
77.4405892471717
77.5696997884763
77.6696984696324
77.765198258305
77.860974321212
77.9231539209703
77.9488308962462
77.8961972573087
77.7886824689055
77.6227874652107
77.3706111409169
77.0356080992388
76.613298774952
76.0991538861787
75.5352928060642
74.9129770626064
74.2367715067967
73.5451945193705
72.9419299521647
72.4575217432525
72.1757588796563
72.191559942847
72.5336797453473
73.1162200047954
73.8269366861447
74.4978553105826
75.0212450143919
75.3927409013053
75.5912069889732
75.5784119421568
75.4222115934685
75.1609193294815
74.791274794356
74.3332714944829
73.8228187271543
73.2194401620227
72.6031039276513
71.983134322276
71.3642858441011
70.7877028883181
70.2602489817143
69.7286151321124
69.219987853893
68.6915666135479
68.113566726104
67.519974721834
66.9440495113678
66.3859952413927
65.8848940577866
65.4627056041189
65.2059926949947
65.120996769631
65.1592935395904
65.1167704988483
64.8614882776526
64.3295423058334
63.6730838451319
63.1656128163119
63.0625593545009
63.2859450119479
63.6942907161585
64.1279759896452
64.4893805635762
64.7097924549463
64.8089294010936
64.7808437822871
64.6307934924562
64.3309751027717
63.9178152517284
63.4436921707656
62.9648989754383
62.4963074368538
62.112484306781
61.8543853057184
61.7956855144954
61.9287577100651
62.2435507027344
62.663229000337
63.1802677873286
63.806531824281
64.5184207228327
65.2498640217389
66.0081153858277
66.7725855578209
67.5742550209961
68.3478002010036
69.1232793104062
69.8935213102446
70.6362082399326
71.3187969255086
71.9593786714281
72.5661048123496
73.1556085644166
73.71993096694
74.2743053246646
74.7460864803802
75.0022313655997
75.2847353905043
75.8165464876943
76.3483410831236
76.8535499946505
77.3224266938808
77.7368913143251
78.1290170613161
78.5067296351398
78.8705925352577
79.2378868876509
79.5678896260587
79.9008800218537
80.2273547286286
80.5279377386696
80.8029112915033
81.0703657444098
81.3245857609997
81.5732083965124
81.7972537345263
82.0251426789612
82.2536380296391
82.4491709472393
82.592233313314
82.713900406454
82.766550462708
82.789953540432
82.9190284890216
83.1428355615667
83.346196284906
83.53704574144
83.7265570141121
83.9140219599207
84.0903111636125
84.2621375131475
84.3852874339933
84.3786817319792
84.293896709609
84.3764955179317
84.6176381775796
84.8564925685356
85.0557490064262
85.2550953791803
85.4039756338375
85.5264045519681
85.6906612265665
85.832448294687
85.9319966374049
86.0368944220268
86.1474240417516
86.2633152910711
86.3600332804968
86.4525975919201
86.5018202273323
86.5417760103987
86.6086972029149
86.7112294252138
86.7931048950124
86.8475941453131
86.9124218295842
86.9894965904021
87.0165307268567
87.0874038425486
87.2001564025954
87.2674037478936
87.2776961898983
87.3256946626082
87.4116928010605
87.4663737767239
87.5085274356954
87.5604108157507
87.6140932796531
87.6686089129371
87.7260394237107
87.7745418587496
87.8230281929825
87.8593385951433
87.8806285936277
87.9234473241825
87.962460869883
88.0080118979385
88.0607715675829
88.1104832590558
88.1369875780666
88.1468184927661
88.1465000816885
88.1944532152606
88.2396305269093
88.2273273408609
88.2001052734791
88.2282849086885
88.1878449478999
88.1087982454829
88.0606640574213
88.0263424222055
87.993450168676
87.9379494145787
87.8066754962509
87.6591626018627
87.6178736181934
87.6016167959543
87.5287546297278
87.4777366269043
87.3857955292423
87.3236475630163
87.3193965787748
87.3202236012424
87.2952720774991
87.2781069168913
87.2749590442551
87.3112716793949
87.3385442515999
87.2978018799287
87.2739014099697
87.2240581183703
87.1092468251257
86.9088539592896
86.5053233289482
85.6808959906933
83.4539645695918
78.3587819582005
71.5537567832818
67.9217498916073
70.1707379248032
75.1948741888201
79.3873274388126
82.0129623132329
83.432676319544
84.0280486836517
84.2323840562437
84.6476773055846
85.0663787123993
85.2355430004348
85.2863038209959
85.3504760953817
85.3573391648243
85.3143002660795
85.2537316713598
85.2208301038672
85.1471899667963
85.0293758484304
84.9488592119649
84.8834727883987
84.7836599545881
84.621601255188
84.4203710195897
84.3013550263283
84.1583437804565
83.9910224743616
83.8161864825632
83.5896151990041
83.3264668779185
83.0599226508606
82.7721597387905
82.4954133967392
82.1872663153197
81.8595308705273
81.5579995679042
81.3197874965443
81.1457594430694
81.0382445054645
80.9482457586816
80.8672795773177
80.8877208545151
80.9532629093972
80.962749651979
81.0171059609925
81.1040550651612
81.1776575485176
81.2210943939045
81.3231219352463
81.4051080578299
81.4227099510753
81.438020776164
81.5090080907291
81.5534178502865
81.5644633503637
81.5884482832505
81.615100244968
81.5212257981048
81.3875652186697
81.3558476022196
81.396879718416
81.3925715563726
81.3475539160425
81.2822067453258
81.3004045999349
81.3009876956489
81.303878555787
81.2664007699099
81.2139955348437
81.1270553514939
81.0850706509904
81.0642612701243
81.0526045806905
81.0742115442892
81.0895876784315
81.069803675656
81.0901241490943
81.0203091198437
80.9652422844403
80.9502733056123
80.9256541801347
80.8059257483783
80.6480331365125
80.3937390977788
80.2886138992342
79.8639827525718
78.8079828220995
77.0678413514344
74.9134390852372
73.2073886382576
73.0795218152765
74.463171076471
76.0808281608921
76.9635583694674
