1798
3999.43349933624
650.420452594757
1
128
4
97.9236635518446
97.8964779899897
97.9152816436427
98.042738914888
98.0375934630066
97.9479870662788
97.8934641071909
97.9131242196395
98.0108344964448
98.0181035003744
98.0083488549785
97.9732693925153
97.995467199866
97.947978273924
97.8851702557963
97.9489089597042
97.9713659688357
97.9629911054535
97.9174596319985
97.925221075679
97.9293926376101
98.0265727812625
98.0286079093821
97.978744238094
97.9830219434756
97.924826350081
97.9075839300123
97.97904429318
98.085856368777
97.9768700403088
97.9930011006353
98.0421789996549
97.850133107985
97.7843536080588
97.9520199754653
98.1044255442395
97.9839300948262
97.8198190866135
97.9743434682674
98.0767611668406
97.9703264476279
97.9474562595979
98.002666879787
97.9283242225021
97.764461852153
97.7213224529457
97.831790116303
97.9917987440914
98.021144793291
97.8038014492509
97.5339979059011
97.7318124745593
98.1204251333161
98.3033213284885
98.1280645469022
97.9780227735536
98.0119019638564
98.0783138608218
98.2651621852544
98.1026984467985
97.9507175770777
97.8836454188681
97.6794348588757
97.8346089952818
98.0801122794837
97.9236756505888
97.7346024212804
97.8588313619992
97.999045254479
97.7562950737676
97.8397196075865
98.154362792093
98.3933081747351
98.4638701446377
97.9906293578134
97.5246603176462
97.3463496218378
97.2814666231742
97.6237364824503
98.0055988975558
97.9659172958118
97.7615345573864
97.5727493872305
97.5339281617168
97.9536993119961
98.192184161289
98.1132875513857
98.3759962446337
98.3586868554165
98.1643542708246
98.0881351845442
98.0273266539489
97.7456507570651
97.6543247899254
97.6143779409492
97.6351028045795
97.9680508832895
98.4662822268532
98.5002008794314
98.2563609742402
98.0503338168868
97.8152869723029
97.8128904317446
97.7333712502045
97.6345893809123
97.7622338210786
98.0176678386798
98.1280880367199
98.2513857169613
98.3281033354183
98.1452190044206
97.9886882224855
98.0423939130955
98.1316507671369
98.0399513508492
97.964376458338
97.9038964243243
97.9406673101754
98.0789477016734
98.09785009528
98.0787247227581
98.033485757594
97.9465555463498
97.9119150200344
97.9406657355528
98.133860947457
98.1250513654317
97.9305426483994
97.9094079588763
97.9402051249042
97.8370468355806
97.7083098504022
97.6056303439377
97.6064686104221
97.7235606398975
97.7800906847944
97.8450197664214
98.2474796917848
98.2448727445558
97.9379448572802
97.6848058890646
97.6480396434499
97.9018665422171
98.2175164239698
98.245082034869
98.1608935414878
98.0806785003285
97.9334764338219
97.9526033994155
98.0117966864043
98.0363662376202
98.0545173017292
97.942562232088
97.8146348323948
97.7972364724457
97.9702223224511
98.2064089594146
98.3200459002709
98.170371550857
97.992938909983
98.0779180714369
98.1445446220033
98.0203833981029
97.8411348862995
97.801368354043
97.8393968951318
97.9404853485423
98.1084290209384
98.144561588121
98.1466484412866
98.0519563664602
97.8397007855984
97.5759655131859
97.6052217238688
97.8979300669106
97.8937122030443
97.9669701361187
98.1541507143177
98.1327480017763
98.0192552663478
97.8260922308596
97.6599264018992
97.6130749362185
97.5625527450563
97.633716243043
97.6139711530635
97.5233896455345
97.5178642700452
97.6157904936487
97.8504951261382
97.9212425889542
97.7725507178789
97.5725615821649
97.4494968223241
97.3894254580933
97.2466671029855
97.1623656914849
96.8996883502644
96.9374485024736
97.2640730071377
97.322587894542
97.2097537741311
96.9371067069291
96.6444067004785
96.5831089603187
96.7682889839423
96.805009483733
96.7083710120613
96.6667806691103
96.7390055942234
96.7753705721408
96.6842586794334
96.5760553442908
96.4032936644875
96.2985010739925
96.2418971728984
96.2304107967772
96.2636916099199
96.2611863600554
96.0433967148227
95.8877141186098
95.9064029951046
95.9629285170011
96.0119013835909
95.9996127553982
95.8681951953656
95.8137342062698
95.7794065981874
95.6017056943666
95.4509730158012
95.2578775113671
95.167240805258
95.4134103912717
95.6139125884861
95.5988463134536
95.4128931414283
95.2326572434052
95.0807328777354
95.0714494226557
95.1292214951032
95.0298840430131
94.8849119723345
94.9193929570218
94.9680240664078
94.8746627492544
94.7512304830452
94.7379474291672
94.7294811935639
94.6385427619058
94.6088355671725
94.5021261373688
94.3410267747976
94.2662681825284
94.3028577586764
94.2657258768286
94.1463096544464
94.1603631790109
94.154382446977
94.0914655873762
93.9762483234909
93.8836628328353
93.7179187538934
93.7341844983472
93.7995678087956
93.7442401531743
93.642569749137
93.584675353351
93.5627787868395
93.5019057892317
93.4282809666934
93.3072663806769
93.1882442803902
93.1515895206927
93.181287055774
93.1614518571558
93.0730979125521
93.0260867121042
93.0278510030754
92.9009391077112
92.630946608602
92.5831470007283
92.6752839706232
92.6183130767759
92.3969585298835
92.2553072270118
92.2773871841093
92.2640863098702
92.2514412895955
92.1722903903031
92.0241352916859
91.9620259429989
91.9341326227123
91.8603988084555
91.8619312191138
91.7857138520495
91.5131414259947
91.3529113964645
91.4057624893627
91.3768719306804
91.2295470849302
91.1359681985631
91.0616378551842
91.0010866910321
90.8713913895205
90.8093494075179
90.7098200258107
90.5516364483224
90.4943629896492
90.4388573190382
90.3012862642953
90.3049299261005
90.1794260418265
90.0195369065545
89.9634952668679
89.8720824958319
89.7726750799496
89.7221570228295
89.6302373768642
89.546008423977
89.3847574965368
89.2567221297367
89.2101058151353
89.1499806502921
89.0995405207606
88.9952251943698
88.9061706164304
88.8808901483331
88.8505929300742
88.8579301791487
88.7806429505041
88.7454005643414
88.7214301840343
88.6962044989727
88.7132114515493
88.7062421848194
88.6693524339312
88.6812547587359
88.5512136556364
88.450516778868
88.5129735847947
88.5151557136719
88.5440132756101
88.6046810013044
88.4583320041105
88.4070535960251
88.5118251358751
88.5408946324564
88.4486290938354
88.4625681135745
88.4470817055848
88.405939589553
88.4233364122496
88.4299549693234
88.3984057789198
88.3842040012937
88.4200880415657
88.4867187151479
88.4327427746252
88.4650931710298
88.4387451435704
88.3281852014898
88.2267828212605
88.3011242930367
88.4140027225929
88.3763182931482
88.2981266530487
88.3558521746372
88.4148125642525
88.349840398184
88.3382104296838
88.3898093577133
88.3588146851755
88.3280629549654
88.3832685773833
88.4533933632523
88.4732976436365
88.4903287183284
88.4672389697256
88.4117734613313
88.4736969915385
88.5827386120403
88.670803793525
88.6865995364347
88.6034694031092
88.6662470146716
88.8047837340784
88.8384115728785
88.8715239821735
88.9962971851267
88.9694994883373
88.9180852783279
88.9460010848498
89.0501155640511
89.1013735011649
89.1304247522672
89.2339196618828
89.2842612394699
89.2519895494259
89.2293876540871
89.2741929379404
89.3421196331255
89.3797448628363
89.3058018148872
89.2748112314232
89.3353028415313
89.3846385569506
89.3748130429955
89.3777256148989
89.3861021582715
89.3506270496924
89.4224643387656
89.5153145899274
89.6069685260861
89.7497493591449
89.8361573667962
89.7108796389534
89.6997096719581
89.9284175546516
90.0766520915776
90.046936236556
90.0490537944763
90.1009466779218
90.1903479307639
90.2856590066809
90.354576085857
90.4252736831542
90.5011948107912
90.4335719471771
90.4294094657399
90.5555245731148
90.6326102587295
90.7438361271671
90.8154394854239
90.7689576112777
90.7840298702607
90.8345183168994
90.9836718956313
91.0797050495194
91.1152834814699
91.1986603620329
91.2847952371922
91.2880296589486
91.2734305175042
91.28099302381
91.326144545301
91.4017529218398
91.4838995077709
91.5127387927196
91.565538629875
91.5994297540204
91.6440568379749
91.7522936640084
91.8416282874708
91.8557252585231
91.8876455484875
91.9675778400594
92.038161645054
92.1179722754441
92.1736108106438
92.1366694537408
92.1684738148619
92.266341948692
92.3486916519133
92.4251200716574
92.4467170387168
92.4726582704185
92.5171116425281
92.5677848032051
92.5652700180875
92.6207061540762
92.7224873697251
92.7731527618515
92.8162192134362
92.8355133224011
92.9020247922166
92.962487520591
92.9995592461189
93.0568299153514
93.1751348640221
93.214195504139
93.1396731578318
93.1416007916495
93.253561813691
93.2531913520253
93.2317397037137
93.3378029949361
93.4853819836672
93.4847239353206
93.4544026609735
93.480059394747
93.5808633700757
93.5949915321281
93.5788247311498
93.6598852917479
93.7647223980035
93.777549565468
93.7692220866003
93.7964330932951
93.8997061054654
93.9659963610626
93.9300465310804
93.9447168390771
94.0029089388795
94.0713366827924
94.0751409050531
94.0937896219802
94.1876873828119
94.1953769580558
94.1910060618461
94.2527390098699
94.2834698004074
94.2897021815374
94.2783683697275
94.2621865647401
94.3279942290124
94.464535987699
94.5166699096122
94.5082154732318
94.5469505253003
94.5768107203047
94.5863365226518
94.6354169515728
94.7108245211153
94.6760098681192
94.6672611924058
94.712674012964
94.7254360109414
94.7526922369421
94.8213412896377
94.8842462555061
94.9016430095378
94.8828884743222
94.9234352754543
95.030488290347
95.0573744512827
95.0040840279931
94.9807323589073
95.0120150612717
95.0909454777758
95.172822506981
95.1824765870901
95.1539209224542
95.0982351155929
95.1261945183052
95.1637087337974
95.1679609986573
95.2193346229335
95.2398600313214
95.2226055980975
95.2021894000408
95.2089014132617
95.269425538788
95.3261618533818
95.3412913049797
95.3033447689172
95.2732800225736
95.3170068339107
95.4112098881379
95.4789600650407
95.4763283151975
95.4574473976449
95.4640402796842
95.5034192447356
95.5382932534177
95.5398729734412
95.5625807318208
95.6091199529671
95.6223238695932
95.5796516901161
95.5689714008667
95.5762326652028
95.6042694069451
95.6626566015446
95.6907560064407
95.6751473200332
95.6768608968979
95.7102536384492
95.7742634148683
95.8296258715997
95.8473315237841
95.823366614396
95.8304770356356
95.8905948854442
95.9076193899622
95.8925807481412
95.9185426149869
95.9649817280817
96.0081117659152
95.9941652310342
95.9799244082472
96.0303475505006
96.0337893382378
96.0566361950458
96.0984950099154
96.0902784915562
96.1211798398627
96.1442587822526
96.0893688340138
96.0552356033751
96.0734504579537
96.0616757239756
96.0797263722449
96.1322858931021
96.1664971350551
96.2026727102724
96.2144022525879
96.2011370788215
96.1958069650058
96.2313227820356
96.2525366987875
96.2281657553431
96.2698520272871
96.3248269688097
96.3152330555585
96.2704486543406
96.274703053691
96.315954041636
96.3949056831461
96.4611339305314
96.4024828237557
96.2662501749865
96.250870558927
96.3595632572203
96.4705422448948
96.5101205687402
96.4731231580545
96.4545641732401
96.4678544400848
96.4978727770487
96.5392963769058
96.5080125286156
96.4510172448796
96.4650163886856
96.524345096284
96.5440854751881
96.5635160997153
96.5370118994799
96.5068688735504
96.529704197193
96.57103579365
96.5949248063434
96.5499638224546
96.4946370300489
96.4968182365352
96.5420964295922
96.5818680435999
96.5491266137003
96.5082996555916
96.4913191084536
96.4760279552818
96.47913195509
96.4893389622913
96.4492481668648
96.4158511519563
96.3870496203116
96.3534459806358
96.3890390986158
96.4500358995708
96.4605467444573
96.4928222436277
96.5616660792939
96.5971519558746
96.5827088641591
96.5176717681795
96.4458900189449
96.4504938940595
96.4878903845908
96.5069258025578
96.5706159511173
96.5801781101131
96.5339545785236
96.5375741668965
96.5620274635283
96.5937691849238
96.5722521159698
96.4851065462469
96.403913135169
96.384333781893
96.4273230551076
96.4515248003455
96.3974863232071
96.3810390380134
96.4117295385258
96.4718189169389
96.541173821762
96.5991850377112
96.6277824409155
96.6431911566607
96.6892804433176
96.7532493436726
96.7501332113769
96.7477898461041
96.8242926611546
96.9037022017565
96.8990114057869
96.8554156138849
96.8414665637476
96.870478525598
96.9320899345032
96.9749071506372
96.9658774383094
96.9193132270895
96.8752879651463
96.9003067713347
96.9747929721403
97.0107079466217
96.9983389578159
96.9949328625461
97.0035364664243
97.0038252674365
96.982677305658
97.0200188895693
97.0742208259467
97.0635817290765
97.0574147341562
97.055176657461
97.0236422735697
97.052915685091
97.0989036839275
97.0824747517538
97.0248167758779
97.0045932871586
97.0152189601392
97.020176514027
97.0304491407895
97.0623127860189
97.1016028703714
97.0888360120795
97.0406068081944
97.0344785947833
97.0792839711639
97.1513705200928
97.1684651270528
97.1822197471899
97.2144482687612
97.1852499562466
97.1048712072054
97.126706772664
97.2263080743792
97.2480959285673
97.2496075211528
97.2471483874356
97.2079775457337
97.2531921109688
97.2772800684634
97.2166090421976
97.2247513936057
97.2658630852749
97.2623480689403
97.3382999724813
97.4080287944822
97.4212736219366
97.4260368968607
97.3998170745952
97.3832518571175
97.4010894102779
97.4381769661262
97.4886824105729
97.4786186372447
97.453019657259
97.4374269736118
97.4114974703552
97.4325220672717
97.5003610317369
97.5411560935166
97.5856257217303
97.6275814255037
97.5771017986707
97.4587592334432
97.495435914076
97.6423291213784
97.7382800806167
97.7009661510267
97.6038198960092
97.516607156042
97.5697438375326
97.5753334735271
97.5606619591966
97.6477946463176
97.6511412144726
97.6735127044242
97.6825273869586
97.6554224214085
97.6806800420804
97.6566648282944
97.6234232107722
97.6176425027073
97.6408178535296
97.6816001391605
97.7129840739787
97.7573519468856
97.7843975464722
97.7460735359043
97.7259180328302
97.7014853264102
97.735875691377
97.8226853156114
97.831967040368
97.7794478895513
97.7093649551463
97.6638854071568
97.6764172416634
97.7524230828467
97.8175544806958
97.7388875805888
97.6427244077894
97.5494814048761
97.5136024376118
97.5970636254155
97.639003239311
97.5737972183939
97.5400393498064
97.5496400994177
97.5721618684113
97.572116350575
97.5270671208455
97.4998421968427
97.4798508007638
97.4348957804217
97.4527208234283
97.5023865969871
97.5129921037994
97.482820941237
97.5109865926612
97.4984168457532
97.4726732023188
97.5228490465237
97.5047971454965
97.4653920467852
97.461435447987
97.4081220132032
97.4177862499737
97.4278741140311
97.4411975526824
97.4885484264378
97.4778550721034
97.4271127163533
97.3985145553694
97.4243658212632
97.4260542801272
97.3305071989492
97.2811999460202
97.2504774558636
97.1940451379408
97.1377768098047
97.1076066906757
97.1168989877806
97.1599128591151
97.1594585387999
97.1085572219433
97.1397458007506
97.1528803183753
97.0836440893629
97.0608864635441
97.0774616949242
96.9738638187884
96.8364543935556
96.69399638494
96.5087358823836
96.2859210561889
95.9425980613927
95.7042542562456
95.7344497095902
95.8852226687174
96.0010074084798
96.1426736881568
96.3360080859707
96.5226972603478
96.6867115919021
96.8160283088803
96.8957310887916
96.979711776431
97.0885146757273
97.1947136862151
97.3330861941391
97.444912096025
97.3973730383981
97.4048350868172
97.4726496570694
97.4821515880016
97.5638609439892
97.7263292999119
97.7538232433431
97.6698435715587
97.5798901812296
97.4737934416338
97.3900290145387
97.3311835797265
97.2809912459375
97.3712522155774
97.501744119384
97.5357007182609
97.5345120728721
97.5576654758484
97.5702578736837
97.5522263865966
97.5247100224873
97.4375121713571
97.2750960310979
97.2253802111888
97.2868953061701
97.3317689503053
97.3766685936461
97.4572215332109
97.5407088446489
97.5921567875133
97.531078420573
97.4963218494952
97.5045600481864
97.4642358002152
97.4671685846119
97.4962906841682
97.4820576716677
97.4687057391703
97.4945382850111
97.4943010291545
97.488496025271
97.5204599582111
97.5539038174273
97.6094337538743
97.7053198302477
97.7212854351152
97.6566747064247
97.6700324660988
97.7208726118167
97.9246030997215
98.0533634297067
97.9725726232124
98.0042731796422
98.0386956099279
98.1003144267281
98.1757805320039
98.0162199630423
97.9102866851674
97.9940726176403
98.1280392000153
98.2352071313176
98.3157134640176
98.4680112840502
98.5744356933984
98.4602246044971
98.3358374341426
98.1921390687857
98.1163395620212
98.3312254254297
98.6712854864655
98.7244426252319
98.5446585121393
98.4394131155623
98.4992487104152
98.607879371423
98.6220850169834
98.4545693999222
98.4113251116413
98.5213916620208
98.6657559159317
98.8800632361917
98.9362116048585
98.8106914574253
98.8052419672379
98.8277685073441
98.9101832631866
99.0924970725939
99.2215385460888
99.1517830690269
99.1184980125812
99.2404243601853
99.40074122138
99.5182150462741
99.6424925017572
99.5662084838927
99.2614592227632
99.1408893646929
99.3393987861022
99.4755758309936
99.7621465958303
100.219634308033
100.000747550531
99.4187754039808
99.4486071442953
99.557431943478
99.4318386362351
99.6661738814547
99.9529171057577
99.9199628025665
100.079358060567
100.275190593543
100.413040534584
100.599396993002
100.446795221309
100.149673525218
100.031303586482
99.8710183270838
99.6342894312476
99.2819427513048
99.1191552908789
99.1034822023153
99.1453230158494
99.1569636206196
98.911856075901
98.7354518546487
98.858788387251
98.8716145917798
98.6722605839506
98.54501611201
98.4521877280284
98.3781866341462
98.4185991911722
98.4084046112718
98.1583140000083
97.9947400445848
98.1751207765151
98.2242659326567
98.1625225891629
98.1649888275579
98.1894598102914
98.2598840991047
98.3066854766769
98.272321036528
98.2121549169433
98.1569195073899
98.0738705510132
98.0209323188625
98.133426991011
98.1953235654053
98.0657087574852
98.0157213543682
98.208273883839
98.2883182203683
98.1787464263672
98.1792997845977
98.1547508979059
97.960439538414
97.9805781374172
98.2092964429907
98.3409989305996
98.2822745902902
98.1205540524938
98.0967503788359
98.1678969580342
98.0857101195045
98.2677077972
98.3867345280846
98.2104127870891
98.2432412798713
98.3975970329013
98.5440064904976
98.6780127444246
98.8117297755189
98.9697345191618
99.0651297593417
99.1434033193246
99.0846819243208
99.1718573805341
99.6080486910933
99.8435197195362
99.2400584741392
98.6198874735338
98.9316609476996
99.4037482326332
99.4478497271967
99.5126266056338
99.5443788433652
99.5543794910832
99.5233903491592
99.2788456438256
99.1880946699965
99.4134153554637
99.4614014004907
99.4894961881605
99.6529112362666
99.6258061802101
99.4554701899722
99.328535042457
99.1780342398236
99.1532314234028
99.0660331176932
98.9250106509717
99.0672983530228
99.2418644519322
99.1161984483561
98.9398066178901
98.828279329424
99.0062395708489
99.4879661833723
99.7725172935983
99.4957450787347
99.2580229125565
99.4489396754755
99.6506286970894
99.5247871191531
99.3969217434763
99.3713953014683
99.2618967761262
99.2248086213477
99.2144673807109
99.0756795707277
98.9707258901252
98.859819978072
98.9087808645118
98.9631493972323
98.7410316415241
98.4453458340848
98.450467931735
98.7265004299186
98.8667658410724
98.8002408635658
98.8777152860954
98.9840591111453
98.8948911437853
98.7302050608649
98.6358489656971
98.6142570020775
98.6486034216565
98.5184212269432
98.3161068812394
98.2705782688793
98.3893862564358
98.4526489071249
98.4480096260373
98.5360452654292
98.5571709541088
98.4720299586872
98.4577228028957
98.4709001134967
98.4070463243831
98.4048494547985
98.450421826689
98.4106374321441
98.4199995079775
98.3973054239064
98.3998280480195
98.3707862800898
98.2696017603647
98.2556334525689
98.3451295786972
98.4174300074885
98.4239263499863
98.3859304200573
98.3398300902462
98.2805928070018
98.2161147775849
98.2054835926792
98.1944296422974
98.1907635549379
98.3109466428602
98.3874690958255
98.3492733726895
98.3331997641526
98.3649811451625
98.3365133546767
98.2970610195901
98.2618722591215
98.2447357901163
98.2233746781259
98.2005775074157
98.2197426177343
98.3375741985251
98.3838951917657
98.3828805967661
98.3461076187508
98.2375500660971
98.1825880350951
98.156669306247
98.119417243317
98.2285520739566
98.3040120501004
98.3059611547457
98.3124819463536
98.3100930205945
98.3334032512836
98.3401302269264
98.3097673467507
98.2461054724588
98.2348638739124
98.2593840681059
98.2500547094022
98.2073661150506
98.1114742057614
98.0963365281624
98.1639266656253
98.1810243977839
98.1441115676454
98.0935186670708
98.0823729138539
98.1688082404723
98.1996512646834
98.1414676670504
98.0801009312452
98.0500206599218
98.0560368973972
98.0493297213871
98.0298544155764
97.96698255398
97.9396163173183
98.0446448956359
98.1618028306705
98.0699693947234
97.6985511665213
96.4686895401826
94.9075905207885
94.9535969440926
96.0027982696874
96.6875472183946
97.1380349974327
97.3030356590091
97.3582730699328
97.5193706281735
97.6352414467905
97.6641545402837
97.6533892068478
97.6148487967624
97.5504753544269
97.5710237021001
97.5266440319745
97.3911313904074
97.5246114233738
97.6423093935536
97.6391786782548
97.5977261627671
97.4537681829452
97.3186060114783
97.1912253829022
97.046656610834
96.9931472115574
97.1964492138523
97.2955491584642
97.2042101299353
97.0453862297072
96.8901723508693
96.691689599626
96.577310529481
96.4973007747717
96.3350885783685
96.3579557361018
96.4043842140784
96.3627734202795
96.3361205534518
96.0334337827964
95.7226276269066
95.4522981292786
95.2072044383745
95.1646637246478
95.3305848941484
95.1596157049917
94.8967481128899
94.5944092981379
94.3421628814259
94.3080576406536
94.1652747902255
94.1301187782394
94.1517750356227
93.9466886486772
93.7071897465114
93.6253637455957
93.475787142345
93.1886364282743
92.8640821997576
92.5290303562701
92.8027020331749
93.0553207225139
92.6121302005999
92.3064442180429
92.3147209061698
92.0213702003479
91.5035659363207
90.977110083089
90.510265196113
90.5008064502371
91.1767541240655
91.4147803255904
91.3121532266648
91.3020397100398
91.4345772817038
91.5229193761015
91.693099677869
91.9061983851626
91.8220048172342
91.8354290127822
92.2326387455828
92.3872916006606
92.2990267551742
92.2921593980596
92.3425526052499
92.4225960624973
92.4909496575464
92.5712464472845
92.6436213109411
92.7207317237103
92.7634898159943
92.8120815095054
92.9025141637997
92.9935733375385
93.0737970526812
93.1463621278082
93.2133840902413
93.2556929182198
93.2836767455983
93.2947797700508
93.2308366276767
93.3090600375089
93.7016818378928
93.7311913018691
93.6232722235447
93.7894076182097
93.9143412641604
93.8527705750465
93.7764025497214
93.5373923692841
93.4521448362138
94.1996296552128
94.4406386551995
94.414203501208
94.4088008273066
94.2856819839519
94.2659341606947
94.1629748392239
94.0311195328676
94.0834268627031
94.178743655577
94.6045352137063
94.786315277557
94.6023361944329
94.5035123016957
94.590762372424
94.5105870189759
94.3939644955814
94.3199417360234
94.2540825046373
94.2057390277761
94.3753666958302
94.4387579628709
94.3804205375149
94.4015300067384
94.2061968192434
93.9808007138708
93.7800967362324
93.7713005800328
94.2843787609451
94.3411737083023
94.0733878986771
93.8399168476671
93.7010983533496
93.7749746715512
93.8453713396761
93.6749302651625
93.5178746406609
93.5797163920903
93.6138274891288
93.5777870611402
93.4406232704681
93.269416030352
93.126016416489
92.9392349246898
92.7888583816221
92.688626361471
92.7204177409229
92.7502367501159
92.5325012206745
92.3477054280884
92.3007678985
92.2870686009561
92.0893675959894
91.8858588496391
91.9384708835136
92.0399905959948
91.661899324749
91.0310369714826
90.3029523184495
89.5573843206023
88.7913120280146
87.9213218316034
87.1369281750517
86.4111365700522
85.7360925555422
85.2566744301196
84.6458770967082
83.6386722258494
83.129530715999
83.3175438498898
83.2867016220467
82.7728513756534
82.2616758666738
81.7198881186599
81.2393091562995
81.0588456246852
80.5692535556084
79.8884029715333
79.3288985550549
78.8156927611485
78.3046122294913
77.7422367869795
77.2839570174376
76.7520385516086
76.0760856425881
75.5331158725452
75.1069484649579
74.5320352306195
74.0747766504803
73.3794831284714
72.4956625538461
71.7481001461065
71.1284082099453
70.2321699923659
69.183256347943
68.1639495567519
67.1270209238718
66.1070805441081
65.3190682825516
65.0413015726934
64.8876509069713
64.7725214395943
64.9707075883945
65.0831014995062
65.2017164106107
65.7240893165537
66.2176380259514
66.3969941170648
66.602280692341
66.8560228926888
67.1129380168254
67.3453150890871
67.6319013216382
67.9101551004499
68.1874357836907
68.4142385214271
68.6050372212077
68.9407057429906
69.4389077564215
69.7668594085741
70.0023933681105
70.2314108221122
70.5124140522097
70.7844470479387
71.0859250089222
71.3880633130814
71.6999122910029
71.9958668576566
72.3166101404339
72.6638736298944
72.9760039807429
73.2689394908241
73.597402516915
73.8911154049097
74.1832663653984
74.4730741559695
74.764968840298
75.0253453046986
75.2923874256314
75.5688921325364
75.8332471460959
76.0793853996946
76.3402637563001
76.6003137415122
76.8647103494203
77.1143698252996
77.3644403932847
77.5951586061696
77.840082814779
78.0671973246889
78.2870697322003
78.498992495399
78.6986236722003
78.8743410177686
79.0812900317221
79.2749301491557
79.4598884688235
79.6560543088678
79.8471392469313
80.0204613888818
80.219346877274
80.3991233642911
80.5734102154632
80.7448306813008
80.8983699658908
81.0482955066642
81.2090007184466
81.3730141505987
81.5333079764201
81.6893490523678
81.8456081500483
81.9736091396995
82.1097455449979
82.261690293037
82.4042644502368
82.5204357144193
82.6430494987309
82.7390334371445
82.8295882893749
82.9206198577137
82.9920981959663
83.0391579157015
83.0524873274701
83.0055773256271
82.9216931565071
82.7783479462583
82.5658452091375
82.2621157871633
81.8873746284639
81.4001366211521
80.8355237436125
80.2116880194159
79.5896501988474
78.9740624080952
78.3840671858449
77.898466568993
77.5874376715342
77.5264302097683
77.7804417856485
78.2931212975849
78.9473446035098
79.5823124086246
80.1175764509746
80.4741206783499
80.6849389122498
80.7469994924077
80.6626712331399
80.4231883957787
80.0796224086559
79.6814674302653
79.2137959113663
78.669170054099
78.1219832143283
77.569998457726
77.0152723332831
76.4526973212848
75.9480782446462
75.4634422218529
74.9710960893149
74.4921114826867
74.0061260121844
73.453796447455
72.9290755857954
72.422905812831
71.9420972063389
71.5171582658316
71.2248530015146
71.1335179142369
71.1993783646425
71.2216951943651
71.0456741195111
70.5721245134887
69.9539677988279
69.4412964642051
69.2800947504843
69.4515762776041
69.8064215148727
70.1761758046729
70.50842933315
70.7639356432641
70.9016049417954
70.853462576607
70.6919472654288
70.422544228906
70.0296209734341
69.5520015449694
69.0752508928826
68.6129911755904
68.2050157715872
67.8961833726926
67.7699998008829
67.8346112746386
68.0907974197155
68.4688523792683
68.9459848753308
69.4973274453534
70.151817487146
70.8296416612065
71.5075755728677
72.2386968562058
72.9948121641528
73.7201163974324
74.4493716388493
75.1276509992657
75.7904814873597
76.4387709648158
77.0238055546748
77.5605815643463
78.1105685003078
78.6183307910239
79.0927230705183
79.5333851048225
79.8139602996431
80.0745068148258
80.5595393290409
81.0302309400281
81.4062503944
81.7882247397261
82.1455973854473
82.474833749913
82.8050605441034
83.1049865080245
83.4369668808255
83.7600833975879
84.0098876865119
84.2290761177251
84.4937556698752
84.7439596421821
84.9744310914145
85.2233834325041
85.4427134598171
85.6194214066665
85.8156318784998
85.9998124379464
86.1519316671755
86.2736589999747
86.3705909080665
86.3908600277967
86.3633246809201
86.420138989764
86.5917291202608
86.7891908774475
86.9955121960701
87.1680655988295
87.3215606778791
87.4873606836093
87.6618741472315
87.7752208643429
87.7630870669792
87.6486544468767
87.6767395855174
87.8873458159705
88.1226936145895
88.3133683724992
88.4760115460109
88.6254221328446
88.752191180479
88.8465576966914
88.9203271525482
88.9997345805102
89.1102231149471
89.2622016454942
89.3580945478396
89.3863677842776
89.451961898062
89.5159244229342
89.5877935086999
89.6656490193507
89.734827706193
89.8073766020039
89.8616806707321
89.9075355070549
89.9670618593849
90.0037537644257
90.0334588001182
90.0926386658615
90.1639095529031
90.1854344843335
90.2202216400433
90.2840467044244
90.344420170883
90.4049720076802
90.4371116583147
90.4686395655295
90.5366778460537
90.5809002039977
90.6168003548429
90.6498690181901
90.7015665337964
90.7390654798237
90.7581404001172
90.782647774228
90.8165910793983
90.8427138158821
90.8749561582102
90.9401918671002
90.9859346049246
90.9856095378567
91.0127273537361
91.0474837857155
91.060813381651
91.0328083486685
91.0213298546286
91.0245812772283
91.0245022609928
91.0097001810539
90.9683066889978
90.872164481578
90.8194129263577
90.7870749933012
90.7094140772248
90.6181883549048
90.5466314817173
90.541442929075
90.5507525316345
90.4830857229182
90.4514994173433
90.4497058108903
90.4119486424939
90.3536226787747
90.3349906960844
90.3876862436146
90.4197726474283
90.3791467797771
90.3652124830731
90.3350472379735
90.2918463240332
90.2117181000104
90.1054023693106
89.8632848378963
89.3029279561942
87.5107084506173
83.1360463257531
77.1620678354922
73.9014521537898
75.7621736194703
80.0645701200085
83.5930250181744
85.7564358528322
86.9522694109696
87.5470548491106
87.7666065402794
88.0786085914883
88.4330993976125
88.6132115918623
88.6777203917353
88.7168727697876
88.7122276318734
88.6529167753397
88.6076616983435
88.5516468034578
88.465656285834
88.3659061418896
88.2952529468305
88.2439375637014
88.1622063484188
88.0683976408147
87.9320616481083
87.7768336496841
87.6127452610222
87.4794234201619
87.3189533867365
87.1012347550104
86.8295711430306
86.6117757508045
86.3484072300646
86.0446500682913
85.7973439313709
85.5063350392102
85.1960805252155
85.0013963720743
84.8651929772732
84.739995900747
84.6414972035161
84.5921797021909
84.6016667521412
84.6854210507767
84.7472771616458
84.8453616826044
84.9555915911317
85.0816942259401
85.1387152071426
85.1912228380556
85.3360248876702
85.4304354778779
85.4603987514296
85.5311840664565
85.6119437732627
85.6796589181951
85.6866618189885
85.6860432584553
85.6445095568478
85.5189507515692
85.4879292329411
85.5678318872692
85.6099105978412
85.6157849691536
85.6268341617224
85.6164542337487
85.5691769251218
85.5904308024931
85.6117079196231
85.5992807728491
85.5457858010958
85.5023089595226
85.4835029316079
85.5162620955499
85.547015011894
85.6393093270491
85.6494181988318
85.5658986955317
85.5096857501857
85.5458343418124
85.5194894765437
85.4506497083626
85.3620775432944
85.2880589255987
85.1397113121352
85.2079389733911
84.7792705596672
83.753336971128
82.1232843559143
79.9612306206944
78.1295004308717
77.9039761357501
79.2323271349254
80.798917306236
81.7302869177951
