1798
3999.43349933624
650.420452594757
1
128
4
94.7644799512447
94.7504918621006
94.7121389870603
94.6121411603974
94.6186819400436
94.6826486252009
94.7202630769446
94.771248470822
94.7851727178155
94.7650928839727
94.767909857883
94.7468086369659
94.7029278019646
94.7251661106944
94.7508515471486
94.780320284312
94.7535012490255
94.7325149002747
94.7427971758225
94.7341369981089
94.7469645109926
94.7001978782539
94.6345718185836
94.7157086939918
94.7102972711052
94.6120124686016
94.6831887089458
94.7710099212615
94.6913713549928
94.6573866476622
94.745295048315
94.8004569528851
94.7698454052041
94.6945887110524
94.6549788113351
94.6557632277083
94.6153883775451
94.6774714995039
94.7560681157859
94.7081965145719
94.6709415828933
94.6563409973587
94.6160194369942
94.7125725767557
94.8503138953994
94.8667875967715
94.8642511283388
94.8088183541851
94.6798815647958
94.5605536772395
94.4254319348149
94.3647445994926
94.4736461665414
94.7925630634141
95.0056598621761
94.8916659395938
94.697365085906
94.6619391907935
94.6258297167559
94.5975852680918
94.6561861111415
94.7154890436724
94.774828649118
94.8289637977116
94.817638419241
94.7684236697932
94.7601862703049
94.6913066734208
94.5733086125428
94.6573683572121
94.7275407153491
94.7414892034887
94.8314412558093
94.9316021102629
94.8923010418575
94.6527299048605
94.3295024628815
94.2204139445986
94.6416114519725
95.1140107828584
95.1829658373066
95.0697189987002
94.8610871693032
94.6325700299582
94.4876346069702
94.5301889863883
94.7076325270888
94.821306294567
94.8873601758779
94.9998795901576
95.0152684422917
94.961230089898
94.8789766383677
94.7045303320522
94.5814885530191
94.5673250341614
94.6139608598273
94.742552307507
94.9725152697571
95.1787903841642
95.169359183135
94.9562624072548
94.7177269530133
94.5961778340775
94.5581725482606
94.6036612784127
94.7968083489743
94.8810670526176
94.8675415853166
94.9662250632276
94.9781327003082
94.8750585922122
94.8115309635153
94.7887054198563
94.7266748601597
94.7119137445444
94.7204765212212
94.691429326809
94.7599113707436
94.8992477653183
94.8777458143762
94.7437658066848
94.6637795445357
94.7060251297518
94.7600269307316
94.8462177880727
94.9515466863604
94.9337966730714
94.8364715972988
94.846315768081
94.760861010217
94.5638511177727
94.5390585889527
94.7316661279553
94.8820487330578
94.8635872358809
94.8065349227122
94.9655064663719
95.0178268812829
94.8181559146996
94.5872803946247
94.5254352146995
94.7879250777718
95.1094045169954
95.1736407929988
95.0527775684611
94.8793055924622
94.8443425913444
94.8995186780566
94.9780490042556
95.0061248463201
94.8586710731408
94.6591129353105
94.4670108417667
94.4475006208342
94.7212472648976
94.9086946433369
94.8839952489525
94.8188946831596
94.8210032955795
94.8359876509958
94.8737316219669
94.9713892798569
94.8613428213497
94.6039570218454
94.5291203968846
94.6709391658458
94.9378238229903
95.0653807281481
95.0137948001493
94.8910306745176
94.6182071260041
94.3749608705956
94.4557973221445
94.6385266988639
94.6220178610973
94.673919864339
94.9512313067995
94.9945058046686
94.8092494814042
94.7153395890618
94.6218648221494
94.4766022230581
94.4680734857835
94.4926892288342
94.389453886871
94.2128384431756
94.1460096548493
94.3484166286976
94.6759568998682
94.7586909679241
94.6310232828975
94.3730241638365
94.147079399265
94.0770840889682
94.0746518474964
93.954792158915
93.7177438920658
93.7584154916394
94.0500801142843
94.1510416698103
94.0394225903212
93.6445674435828
93.324257369242
93.444988169097
93.5932475641726
93.5525993267644
93.4062442861036
93.2249842838831
93.3000557584895
93.406291773265
93.263641714042
93.0914680313221
93.0139187004319
92.8912146628297
92.6806073575864
92.5554245595671
92.5722076184696
92.4686201935027
92.2817323098673
92.1589157802305
92.214350447195
92.2540834180072
92.1750241963043
92.0868230618796
92.0737272202366
91.9935417670393
91.871123498124
91.7205818643679
91.430099733127
91.2600892214977
91.3304775295463
91.4144648090908
91.4580564714724
91.3718529280962
91.2228539140524
91.1429238313675
91.0841880140408
90.9390528910488
90.7516856388281
90.7049322416169
90.6900067246997
90.5229242603815
90.372875106035
90.3666489149936
90.4573822814471
90.4053361278777
90.264697547736
90.2670199481627
90.2256615411404
89.9714383528347
89.7327620126584
89.6983887335436
89.7167516243461
89.6537564845146
89.6560769726922
89.6014585531505
89.4979980667707
89.4255369834508
89.2996599267109
89.2138300823255
89.2348166475119
89.1821797541501
89.0234353293038
88.8170202115945
88.767959529235
88.7965544310208
88.7683619246755
88.7705871372329
88.745365467332
88.5883853757748
88.4573244111396
88.4249605367795
88.4524232307873
88.3731689465649
88.1960644684693
88.0766031056668
88.1084403206232
88.0981419393066
87.9515722508036
87.7227450427679
87.6695916970529
87.6425631863355
87.5291508014114
87.4661347185982
87.423958058713
87.3490324155386
87.2823891900564
87.1887193676875
87.049584003679
86.9292300580461
86.8475448054489
86.6915898501279
86.6299141481705
86.5881094784872
86.4645000446589
86.3973717008884
86.3603433172108
86.2282385353751
86.1403533020463
86.0205204950048
85.8482101215054
85.7233035279294
85.6640444160531
85.6228206027276
85.5878918825673
85.4981952334916
85.3731580479217
85.2121314278703
85.0677270819557
84.873063450073
84.7466689191472
84.708526977016
84.6174350580918
84.4379601212892
84.2937374866696
84.2268918851659
84.2306423617616
84.1970576978544
84.0873614099324
83.8656253939514
83.6983748488764
83.6528380521403
83.5893956446294
83.5584253674473
83.5287502326217
83.4875085609308
83.4375159512342
83.3971620079273
83.4056679942071
83.3107471775932
83.2380909247874
83.2246875169587
83.1976421152707
83.1965631147812
83.2324902129788
83.1901010943328
83.1285485044625
83.1194692222677
83.1882524011853
83.2868204522104
83.3480318281953
83.2935176578347
83.2395857878058
83.2521651318622
83.3547133272927
83.4199428232869
83.4103208041944
83.4663308069691
83.5230702729087
83.466033090396
83.4144725491108
83.5033217866933
83.5995264725839
83.5851176213851
83.5775745285438
83.6502492764065
83.7465138868092
83.7900294372375
83.8202243463511
83.7847707253441
83.79615162295
83.8803457434857
83.9499470740423
83.9763059111411
84.0508109089252
84.11690055902
84.1653116140993
84.2527348388118
84.3281559135471
84.2979288582248
84.3008948150902
84.3632793343129
84.4098316148814
84.4740419034129
84.5715730157199
84.6454065418472
84.6535360871881
84.6266590341887
84.7482694492433
84.9124452904557
84.880894412499
84.8159329070715
84.9229201173472
84.9580685632596
84.960206212251
85.0147074573594
85.0674715819091
85.0406466321534
85.0603242108317
85.1383428457896
85.1647828055953
85.1722966399245
85.2738969666383
85.2957018912226
85.2839744289807
85.3320129615405
85.3130762943549
85.2363058641817
85.3101770008072
85.3140497802837
85.2467604556262
85.234771682954
85.2382231125404
85.19911880496
85.2350415316401
85.260065736656
85.2752063635747
85.2943412530425
85.2855067504402
85.3521608744921
85.4323756299182
85.4107943093926
85.4933179124087
85.592852899199
85.5652288780094
85.5083438488285
85.6422783645856
85.8424662448468
85.9662588830442
85.9819370795582
85.9965698420926
86.111327164269
86.1936662673831
86.1397265001627
86.1241887500868
86.2204839199187
86.3809942217217
86.4839923344957
86.446776053395
86.4342579893079
86.5243580172766
86.5868741599984
86.689545293595
86.7982831867689
86.8675494795665
86.9116335022311
86.965117212751
87.030676840125
87.1039040920935
87.1362477693674
87.1819169077324
87.2565826853981
87.3580197146723
87.4753922224432
87.5235185797224
87.5132641841353
87.6028911933971
87.6895832429427
87.7629469522769
87.819685864246
87.8291435133033
87.8846122855696
87.9555358772958
87.9802253172914
88.1214868325585
88.1958820062007
88.2246361881423
88.3098770050133
88.3607390508298
88.3667462688662
88.4197576764964
88.4861055563643
88.5468108515969
88.6162906725753
88.7039845719843
88.7812058394531
88.8246203053891
88.8581264938137
88.9102193328515
88.9475651046846
89.0009294923652
89.0480953052656
89.1050318893093
89.202245942623
89.274246487298
89.2691907774663
89.3019802232498
89.3444774913617
89.4421219868859
89.5477030369181
89.6007346156329
89.6422897804955
89.6791205376057
89.7161736261715
89.8033720731252
89.8494905590149
89.8934181189685
89.9607398928694
90.0009263370419
90.0174465520325
90.0152172947777
90.028400699735
90.1055796841659
90.1857838024771
90.2418765778541
90.296031490556
90.3715463104775
90.4109566476836
90.4201380392479
90.4911245623858
90.5667506031183
90.500301057401
90.5104160710767
90.6403655339209
90.7145776879516
90.7838506772453
90.8292502805178
90.7739454604884
90.8237195838556
90.9516761400548
90.9584663906691
90.9570295341384
91.0027290612843
91.1050622127032
91.1880053283024
91.1465333818529
91.1201941460007
91.1434289520398
91.1635684407887
91.2060790567464
91.262778861225
91.3198121830863
91.3667608400091
91.412708854039
91.4551086380821
91.44617519007
91.4112853501515
91.4001310749271
91.4718987654921
91.5804678332796
91.641615675597
91.6925115012043
91.7524796251823
91.7509685144002
91.6870251948873
91.6177777938615
91.6881785240807
91.8082266438874
91.8405839738489
91.8629522778062
91.9341369246524
91.9300088247775
91.8927255880978
91.9005129111394
91.9632302856893
91.9768657321069
91.9949447526656
92.032916035014
92.0936928209173
92.0820482737486
92.0330148134918
92.0971471488894
92.1490480360974
92.1892256537723
92.281771204005
92.2989231816057
92.2595599639062
92.2773539999063
92.2981571117616
92.2851455837674
92.2914489584088
92.3031625574714
92.357288541311
92.3922447449517
92.4265303425942
92.45475524696
92.4679496480005
92.4647189718828
92.4809879180419
92.5108548841453
92.5609460874634
92.584131647371
92.5851523165636
92.593431830321
92.6069295982455
92.5894854790418
92.5545464948509
92.5888940907005
92.6646651880944
92.6963854258214
92.7066115778604
92.7334888619711
92.7601973697032
92.8241211604044
92.8230129683599
92.7847391988887
92.7930155714984
92.7840086364073
92.8172401997525
92.8830019950913
92.8997548754908
92.9157620189412
92.9288696188659
92.9234009174846
92.9305311168313
92.9584477445995
92.9877164856574
92.981470649566
93.0281928011692
93.0614697279991
93.0574510137196
93.0542433435513
93.0598656168502
93.0754493364256
93.0638891002146
93.0566301975402
93.093911819197
93.146003879539
93.1518281677961
93.1021599768367
93.129763029834
93.1553969151819
93.156082283493
93.1774456011698
93.2382080488831
93.2834914611775
93.2919920484396
93.3015511825031
93.2812619177602
93.283791119547
93.3146188651403
93.2881442163315
93.2941125929443
93.332728815837
93.4001049113524
93.3809847931698
93.3125672087383
93.300971252915
93.3247536328204
93.3417351560154
93.3796756338518
93.4221914131869
93.4401847843922
93.4422619237162
93.4743960870947
93.4979393844041
93.516900518237
93.4892999022322
93.4292351422283
93.4308373448737
93.4672158702129
93.48769990435
93.5146348256397
93.5291900711323
93.5538916055122
93.5824625764154
93.56674117815
93.5374617935301
93.5371660806721
93.5215049165316
93.4961382983391
93.5255893146969
93.5934901391001
93.6124295323759
93.6120894164954
93.5944081124863
93.5717614656534
93.5928030890849
93.6263511054006
93.6429235117337
93.6548526075287
93.6610306003153
93.6811603125523
93.6667659229158
93.6496174475707
93.6509019719411
93.6694359878729
93.6733269365084
93.6693584056678
93.6735782150439
93.668636996158
93.7082633822827
93.7288876298275
93.7046681111293
93.708971509114
93.7119733937535
93.7268835085209
93.7365821221953
93.6999731501954
93.7173108180158
93.802523447965
93.7814813311007
93.7082944860057
93.7337719398044
93.8019745718768
93.8202880455686
93.7880561483525
93.8308558662463
93.8860843793915
93.8413493607822
93.8017038597021
93.789968502267
93.7970010824259
93.828413327754
93.8568790567172
93.8450361317314
93.8217786398162
93.8290794407123
93.8657640730152
93.8482459239823
93.818025114292
93.8239583677824
93.8369277096764
93.8698028514437
93.8951941101178
93.8782456686822
93.866436012316
93.8675618984173
93.8613588320876
93.8471955295035
93.834439306938
93.840194020599
93.891079305269
93.9311746731786
93.9212547274284
93.8780475896275
93.825926867301
93.8162661803142
93.822888776943
93.7789595133138
93.7714408124051
93.7760895457314
93.7806129137963
93.8048851874833
93.7929101028745
93.7598902240543
93.758669114394
93.7672476882431
93.8149734736534
93.8523309764372
93.8589458730992
93.9109794195469
93.9185213321746
93.8903634210641
93.8635604639606
93.8749345985855
93.9473791447735
93.9510303393345
93.8822093589265
93.9077876230604
93.9711171998282
93.9774259379857
93.985304515307
93.9638975094318
93.9936880989705
94.0682671760974
94.0539152278535
94.0247495248937
94.0139041876887
93.9940522237158
94.0095629238173
94.0638336535972
94.1133125009174
94.0963970319216
94.0643233520896
94.0662416406325
94.1103089681901
94.1418322699443
94.142194595093
94.1293000010795
94.1390463272605
94.2351260367386
94.2871431431597
94.2357358140775
94.253115558307
94.18881573244
94.1025989831593
94.1359598591451
94.2096272353318
94.2538606757038
94.2719372324485
94.314264717411
94.2640836713138
94.250089177747
94.304954196487
94.3253742388309
94.271350319781
94.1572186760497
94.2245954660095
94.4119811514504
94.4048605384587
94.3874991438422
94.34054121797
94.2501497805078
94.2685876926452
94.3197359347437
94.3402320282803
94.273537179607
94.1984476928061
94.3078392044699
94.436143866085
94.4121510974453
94.3188875617382
94.3327415407439
94.4007802073834
94.4070355949929
94.3622647339483
94.3485733629948
94.4032294021589
94.4347912593826
94.4062388731393
94.3868651136752
94.3752654547777
94.3814604931152
94.4187615576477
94.4306200476124
94.4086820024108
94.3981059342362
94.3907103581591
94.3354630768871
94.2921318260935
94.3843820569639
94.4083752019394
94.4114143600346
94.4067320447447
94.3649914971494
94.3398876317301
94.328607335076
94.3073364885797
94.2806023698748
94.3830944886457
94.4731132719194
94.3948796318371
94.3553955629669
94.4177125717632
94.4229684482472
94.3729094253137
94.3348190853531
94.3640083348215
94.3982134216456
94.3964448941116
94.3723302299063
94.2922442268016
94.2780567796247
94.2917243285289
94.3103392107062
94.3648663959987
94.4202584597487
94.4429067476282
94.4483473987168
94.4490375966638
94.4215733549791
94.4063722789823
94.4141043730656
94.4230894358634
94.358167190891
94.3734708427549
94.4121435182029
94.3527719631401
94.372716954415
94.4193226303637
94.3829121610402
94.3693727528135
94.4294153725145
94.3919916258085
94.3634643856923
94.4250004463858
94.4407400894076
94.4257317900991
94.4273455203564
94.4086350039515
94.4216031688872
94.4378694587074
94.3626592399822
94.3129711501189
94.3044509011925
94.2816810450641
94.2779019472372
94.2988746574433
94.3229873329164
94.2852488141228
94.2944780332156
94.3580816962249
94.377698866629
94.3395901414238
94.4084999145692
94.4899600040334
94.4997771824938
94.4141220533733
94.2564884583247
94.1852433240728
94.252835269794
94.3519050144902
94.3676389460115
94.3026444583083
94.1637175544617
93.9938486180798
93.9496707210158
94.0226870190984
94.084256706998
94.1484688186572
94.1468563635427
94.1111060613915
94.1368978058145
94.0477514479891
94.0314853228646
94.0732200826537
93.8708162252751
93.6769485361335
93.7210355384853
93.8597131601735
93.9103120253235
93.8969727437277
93.9412874737153
93.9503170447938
93.9000778572068
93.9179300421464
93.9121325947576
93.9248970206351
93.9484133434296
93.9213290688875
93.9587867641543
93.991513253419
93.9468354660366
93.9312238248037
93.9301606893888
93.8785737393599
93.8419454508084
93.9447858802148
94.0105850068501
94.0211273207396
94.1277952551758
94.231877274251
94.2671272210332
94.2042532758863
94.2427760239009
94.3442338400055
94.343756416263
94.454520109551
94.4784365213526
94.4175265560272
94.5002155467143
94.6456375448627
94.6137832063326
94.5664607402168
94.6306234490086
94.7824721924776
94.9458635024361
94.8979505371393
94.7837450410472
94.7349995756293
94.6305176655878
94.6946075830015
94.7394022145507
94.803058059411
94.9029596035227
95.0003323008177
94.9799292070739
94.9168519556791
95.004540569135
95.084710807547
95.1942865891145
95.1900022595223
95.1481503421429
95.1161828015793
95.3668173743001
95.4389019187366
95.2456344719758
95.3037065540574
95.3911440537071
95.4291677058589
95.5119375856576
95.489110998197
95.4685556970114
95.5971642041106
95.7631468511389
95.7020779569049
95.5576126989764
95.3919009838644
95.2303889398248
95.2851134371507
95.4477839624304
95.6488516576059
96.0868889058505
96.005054875307
95.9020648240658
96.0928266581902
96.1118461072645
96.080079289338
96.2115005682399
96.3069280019084
96.1997155638354
96.0293602721088
96.3053938198819
96.3453458394615
95.9322646115337
96.0718769559804
96.9198803035858
97.1761445792751
96.8394760669059
96.4040622631227
96.3753173262812
96.1883947869293
96.0360062144228
96.0106228351234
95.9849760619698
95.8452289327016
95.560211462392
95.5050441017573
95.4640355844881
95.5830145362988
95.7140010011174
95.5259738896409
95.3425125018676
95.2443226826298
95.0619016575215
94.8804200225618
94.8282818935424
94.8903799809599
94.884284278987
94.6795706377624
94.5064574380566
94.6841183819917
94.7947246346144
94.6044199440387
94.6220666436103
94.7580699984107
94.8115671009518
94.8197736500627
94.7973692502915
94.7978298177547
94.9265980632394
95.0307039420421
95.0017005625774
94.7756675443303
94.7009206688087
94.7280081827187
94.6150267070711
94.5962953768243
94.7790656159343
94.8534465825675
94.9404882599106
95.0621231489886
95.075409877671
95.0880054875859
94.9929734365992
94.8848940353861
94.9561860702658
95.0140067723115
95.0622708847868
95.1823021866016
95.0520120493641
94.9929626999929
95.2131105706128
95.3626503501694
95.3281286525496
95.244220605668
95.2470478090049
95.5150965486587
95.9684826166253
96.1748333299872
95.950689527132
95.9733028578006
96.2617720532425
96.335066416899
96.5442763168787
96.4418729829934
95.9737717584193
95.7515849690987
95.7927844089924
96.2295135645672
96.572855957052
96.2209181005868
96.1511729438889
96.35009475169
96.6227412839234
96.7277161399692
96.3973992514308
96.4356814188126
96.3463401035221
95.8563915598599
95.9072414957328
96.1646027878523
95.9636970320139
95.6236073254226
95.6478036605995
95.8826282692381
95.959279127787
95.7713075291854
95.685060114077
95.7885556136175
95.7655918670635
95.9358566069832
96.1459584746551
95.9994999754403
95.9620403952479
96.2297789861475
96.3224714092683
96.3230492171105
96.4427944028391
96.3366701063567
95.8685352614945
95.6221489845481
96.0111898034784
96.0261411181563
95.8562865713191
95.6373514782409
95.4773230145913
95.6345725829698
95.6732045951543
95.417932691143
95.3729889490787
95.5082175963043
95.4396609822751
95.3926589689181
95.4279544604715
95.2630043158007
95.2061523059458
95.2147686309977
95.2641020382543
95.2531518357762
95.2064512654917
95.189384245797
95.0853619403434
95.0195528913078
95.0303966877483
95.1133592274261
95.1038813899786
94.8995437428488
94.7884078810591
94.8466602460814
94.9262461391091
94.8922790376697
94.913398716905
94.9362685062996
94.9207472109668
94.9017026548644
94.8421202242397
94.7645633872211
94.7867153183646
94.7324727748443
94.6821859650768
94.7956454525378
94.8239844617256
94.7197111910974
94.6738553270448
94.7066019436859
94.7208537367962
94.6623070185991
94.5894247303488
94.4913071242105
94.3851203314387
94.5866024183768
94.8276076368986
94.7941472864924
94.6687455550304
94.5841653210009
94.5457295744505
94.5359917940812
94.6217563695052
94.6546217797399
94.5622787722306
94.4935540362734
94.4719611883485
94.3878812016487
94.4093246307249
94.6434278187181
94.7102090049179
94.643024850841
94.6084144875789
94.5665209210848
94.4961720056496
94.3631573243673
94.3523130030547
94.5097940533571
94.4960725390106
94.4815486451199
94.5455700855847
94.5159880017365
94.5242112381816
94.6500582615596
94.6622548140094
94.5190506644112
94.4631563816582
94.4999623564092
94.5065310737345
94.4569847273765
94.3222900623507
94.2643277318571
94.3845185891612
94.4471877892152
94.3498597239658
94.1747712185027
94.2031474169509
94.4987493995543
94.6017191345518
94.4084541353703
94.2494744785041
94.2726242297825
94.3117481620904
94.4029489733222
94.3753672308378
94.2395823500607
94.0815781346748
94.1682036423631
94.4574471442659
94.5085951901323
94.5359450781387
94.3439460514912
94.1642496303456
94.2700751157316
94.3235045493147
94.2798896326856
94.298322155629
94.1181441629519
93.9948214700374
94.184693028902
94.3673485555357
94.3410590748214
94.2387574479655
94.1485103365476
94.0740395580597
94.1338914173704
93.9640743507643
93.7067913017471
94.1419434683613
94.3655518198372
94.3165270241543
94.1829234841469
94.0191356914828
93.9218831519513
93.8180953879505
93.515497330508
93.4446548303874
93.865021224479
94.1256162323774
94.0750783921735
93.8353882599222
93.6690260220203
93.5239247949245
93.4611112764111
93.305262654997
92.9663554463889
93.2862559028395
93.403772382994
93.3883399869302
93.4547855995544
93.1462926576974
92.8057738095888
92.4790043836767
92.0792091726844
91.9803998467617
92.536739527288
92.4651657089104
92.1001074987701
91.6383000864967
91.4492840663539
91.4712603044464
91.174698116254
91.0462423609994
91.0911138156255
90.8198067287901
90.4463163922479
90.3328304861904
90.2231166241427
89.8396228497511
89.2342996268749
88.5057497934354
88.7793759670828
89.1873181020095
88.45452629548
87.740906626593
87.6102506845241
87.2921772399529
86.5852677791315
85.7846621446742
85.076553581281
85.001888057013
85.9558450205128
86.3245945388417
86.281673826732
86.3301864376847
86.6432183888739
86.8235026334581
87.1504746124525
87.5238051216702
87.4117910817734
87.3480444634754
87.9791600381378
88.3599587330903
88.3691213330501
88.4324121601763
88.6540753640775
88.9415345630311
89.1613224261143
89.4166411518259
89.6883450783284
89.8831095603429
90.0341112063314
90.2269859131573
90.403431137724
90.5732445587559
90.7299959080812
90.866653000346
90.9549109748333
91.0299282295597
91.1020796466116
91.1164561358423
90.9074679303154
90.9784217768807
91.5853942113538
91.6130508858341
91.3649429183947
91.5141662706749
91.7083709015418
91.6153353667927
91.4775289199234
90.9957888074646
90.5836251376745
91.7940232311598
92.301872405889
92.1515112518008
91.9938405276605
91.8212777995828
91.8459278199365
91.6735304757489
91.461529096956
91.3619189592115
91.4431838429661
92.2403321770742
92.5609175775981
92.1565638226199
91.9705668340475
92.2228552929377
92.1644689919138
91.9776015415069
91.941247182943
91.9833727351962
91.9192955435988
92.2692657010956
92.4068110323754
92.3769879093245
92.5176289270491
92.3802334240982
92.1532170043583
91.8193823179364
91.7293637918887
92.6963609115479
93.002217048716
92.6209267434172
92.2586992027777
92.1594090090799
92.3973955889181
92.5979382464686
92.397610001801
92.1635567169227
92.3318099479391
92.5941887093061
92.6488282270203
92.5197486325262
92.4450413568247
92.3964991331601
92.2474957671952
92.1346078403438
92.1071775214038
92.4258061867726
92.6918679217979
92.5060124720936
92.2669475542274
92.2715266211873
92.4016119776729
92.1602999227363
91.7805001892076
91.8945104988226
92.588259374512
92.5690665017507
92.2685554311993
92.0134949954617
92.0040365793377
92.1508900558395
92.1508861223088
92.0403580067227
91.8890357639597
91.6968098612069
91.7907981749612
92.14518200471
92.0984056581274
91.9587381391241
91.9575946619292
92.0275982501542
91.9474567014186
91.8867461883122
91.7856231046171
91.6957890630062
92.0553189011244
92.2618461991538
92.2188340760888
92.1401615989939
92.1161365903845
92.1434239122407
92.1382190696966
92.2019712740255
92.3219349303094
92.2569915287641
92.1897778968906
92.2986296771397
92.3719928004392
92.5396019322985
92.5922549028719
92.4919652217977
92.414671937505
92.576507595617
92.722389404812
92.7200119009115
92.7188954494953
92.7015818221036
92.6953292472443
92.6967330061134
92.8172100090265
92.8904205347109
92.8704205182282
92.8959697716967
92.8838648272731
92.8198938181714
92.9193452405388
93.0653274462919
93.0802760288421
93.05608754908
93.0704842045892
93.1052301014778
93.1193238211185
93.1135533687832
93.1218988783243
93.1159321915979
93.092929374992
93.0662620337664
93.0853628992623
93.187071472909
93.2391641318933
93.2012382828031
93.168310084838
93.1771776732351
93.1829038059295
93.1957276304157
93.1992309522424
93.1843923321147
93.1900448039048
93.2181462831425
93.2504521768937
93.2508909784025
93.2458965761175
93.28789450694
93.3041126216221
93.2877877762169
93.2764712783002
93.2918807735284
93.3162470332569
93.2940031420004
93.2617102182447
93.2757078804086
93.2994041020549
93.283705114627
93.2680631767526
93.2269062303476
93.214475377494
93.23386988324
93.2135451546863
93.2016989051068
93.1857403803893
93.1421040384075
93.1018323189082
93.0783634088527
93.0563422416198
93.0394451572215
93.0145482261917
92.9896597232108
92.9394397328317
92.8518831821335
92.806242492046
92.7829747736911
92.7403204498842
92.6779223699548
92.5883976485064
92.5016855607607
92.4233968451778
92.3189111883393
92.2068613616344
92.0785235727583
91.9454297960365
91.8275799363853
91.6830529673603
91.5022984998459
91.3121754486917
91.1216514719869
90.91446531796
90.6876875800932
90.4589382233784
90.2147916859277
89.9771096474267
89.7320902023645
89.4666712279681
89.179328629809
88.8738306903588
88.5598556267353
88.2410769995134
87.9423170641537
87.6211007389742
87.2948243784543
86.9693549318026
86.6079747631617
86.2514595863204
85.9247993611042
85.5876465894893
85.2421064992908
84.8998154704317
84.5428775549527
84.1822341100515
83.8585841613936
83.5497681726128
83.1982385371018
82.8312096758138
82.4725709794961
82.1425379815304
81.8398946536973
81.5042310788641
81.1675339649862
80.8443594877306
80.5154875139908
80.1723158093373
79.8298368694526
79.4917236500748
79.1829577590753
78.8882775635131
78.5919299485009
78.2890921436521
78.0070693645092
77.7359675270995
77.4740603797927
77.2226832901798
76.9435697901102
76.6708938946433
76.4372112485053
76.1990630974446
75.9928055374039
75.8038321573239
75.6653268956763
75.558887156263
75.4485458533259
75.3512714249799
75.2810113081589
75.1957699634101
75.1086418211996
75.056256791253
75.0321513212904
75.0157651267402
75.0298965596645
75.0468238970266
75.0802021678068
75.1236744454976
75.1685925988642
75.2297991071846
75.3282049825787
75.4445187922617
75.5902278011204
75.7458524386847
75.9175472222371
76.1124248362025
76.3528012552469
76.6499138092747
76.9718729103172
77.277188597874
77.6287112253015
77.9988251082846
78.3706248140454
78.774484124596
79.2128462616051
79.6510768605624
80.1159466150146
80.5774038293114
81.0157334511768
81.4548899468374
81.9315550793216
82.3847804875427
82.7992259610744
83.2137813338436
83.6508568459504
84.0224312026813
84.3625188948313
84.7078805917078
85.0218447271951
85.3093225388071
85.5713154951656
85.8031265332449
86.0012950218437
86.2000467649469
86.3635164179613
86.4900331023383
86.6133515740221
86.7415876549461
86.8579700920283
86.960620904504
87.0676565846842
87.1539221812495
87.225854709359
87.2936385973819
87.3694074650191
87.4434254709226
87.5417110303275
87.6301251969071
87.680113619133
87.7231132178244
87.8254919757501
87.9216924126279
87.963626543178
88.0053086889179
88.0493926244131
88.1329822407043
88.2300888054593
88.2578403344734
88.2670345087642
88.2980433688755
88.3888624190498
88.5969734633003
88.8090870236716
88.9511068651659
89.0852910959644
89.2145424230259
89.3368578789667
89.4833308563028
89.5895075659055
89.6839973959089
89.8050887579993
89.9036912198441
89.9662548859246
90.0493924735296
90.1408656402023
90.2075177765161
90.2918058459845
90.3741000370941
90.4498515372137
90.5125563373514
90.56202804805
90.6129419010494
90.6998011717676
90.7712712806352
90.7875420784078
90.8355754956233
90.8966922133955
90.9656105477319
91.0289218713414
91.0278841310255
91.0621760493356
91.120251656649
91.1790820330993
91.2327231947558
91.2621269452059
91.269995950977
91.3363144752116
91.4017372744114
91.4010572214374
91.4142831505068
91.4522378740271
91.4960547803975
91.5224465823704
91.5287612657718
91.5499689610298
91.5681878051788
91.6025255125096
91.6520046118649
91.6870474752401
91.6829912945577
91.653081581372
91.6729702476377
91.6995089089975
91.7199525288235
91.7664173170639
91.8124433958519
91.823284383346
91.8144336111315
91.8233468776921
91.7948739561753
91.776980561708
91.7810202286339
91.7702907194473
91.7660561023706
91.7488358639876
91.7191410684286
91.7116637920484
91.7305575745444
91.7135997887627
91.6882815736839
91.6833073131809
91.6747066774927
91.6356266865516
91.6108639996373
91.6079339055177
91.6023720366912
91.5966148353053
91.5922429893552
91.5903813823769
91.6353714725331
91.6638886068804
91.6525860941576
91.6693705006231
91.6771590796544
91.6628883630682
91.7032423659158
91.7169921649933
91.6036979993436
91.5393676006991
91.5500782259567
91.5792123252073
91.5676081621557
91.5191310551957
91.4719571358022
91.4224839895015
91.3609410813814
91.3355600617421
91.3072537317477
91.2841838795564
91.2786928844201
91.2527649434297
91.1975805644665
91.1558337267062
91.114424566028
91.0504733215947
91.0248194507984
91.0073672390744
90.9436111952213
90.8836967372529
90.8594593933158
90.8435085449972
90.8037011319077
90.7206980867317
90.6683326482756
90.6702052693724
90.65851523826
90.5504304873246
90.3889013067585
90.3741186198519
90.3710246444157
90.2983403362781
90.2315273739865
90.1606777107191
90.0969886953532
90.0215067207278
89.9530785285395
89.9047284244417
89.876846978747
89.7946773873909
89.6927074877431
89.646631769526
89.6424563456223
89.5921430992984
89.4759053706932
89.3890950927687
89.3431030364121
89.2595654795581
89.1385244089082
89.0408682491386
88.9706454808843
88.9046342647579
88.8023340295306
88.708820063987
88.6568847776904
88.6443685284582
88.5615770638329
88.4325857511059
88.3080666531029
88.2832724902628
88.2031409882506
88.0170676129596
87.8994205501228
87.8202604918336
87.7338860874893
87.7138822837362
87.6775011346516
87.5494828725387
87.4070484147875
87.3429087492249
87.238297760561
87.1331170645671
87.0332136887061
86.9008217405923
86.7720580880181
86.6542767337331
86.5390495961192
86.4198328388409
86.3163921278727
86.2005348152038
86.0250067956387
85.815463660653
85.6208973460046
85.4422931540774
85.1370844109643
84.7860056366585
84.4651156735893
84.4360098169643
84.2132150609429
83.8399063984066
83.5130164433782
83.1531736619317
82.8324324921299
82.6431466183078
82.5247094950477
82.3768178815239
82.20274404699
