1798
3999.43349933624
650.420452594757
1
128
4
93.7009058602713
93.7000771256994
93.7793686221406
93.7876456288248
93.8157670206088
93.7750358604688
93.7096386448872
93.6926475883869
93.7027037905688
93.7336946200554
93.7943445079442
93.8549189412665
93.9205513589119
93.8422185570995
93.7658696518804
93.7153451364359
93.7063955080327
93.8351317089013
93.9067747196395
93.7868449563198
93.8181708549715
93.8697954583959
93.9124576119117
93.8511247239709
93.8186509995101
93.799827700496
93.7671404372094
93.71265848843
93.8273603554049
93.8915858215982
93.8604157114719
93.8167142347825
93.8505021816557
93.8141981682359
93.7479628718473
93.7591700613836
93.8122464467382
93.8509046500393
93.9775908128364
93.91594988525
93.8464461316402
93.8617614966039
93.9034878899849
93.8452509715753
93.9236879853152
93.9280619611837
93.931910362878
93.8604260116481
93.8485357511213
93.8517592478088
93.8342825077143
93.8575222481914
93.9353305011125
93.9237094068559
93.9433364854933
93.9195839640791
93.9859399428471
93.9261754290722
93.8397760215315
93.8509322440986
94.0396048144901
93.98192857279
93.8757646324816
93.9463918055142
93.9126155598917
93.8748479616455
93.9262175125575
93.7441071845737
93.7519641634048
94.0231008441197
94.0612663442352
94.0159836864125
94.0323912154666
94.0722005177028
94.1804088805303
93.9574781650577
93.7742840948554
93.7793135718775
94.0584522514848
94.1232751042224
94.163496235967
94.0237214337671
93.921210705914
93.9360967872091
94.01300411455
93.9882376363462
93.9901436986734
94.0152460591908
94.121165238248
94.0365351169094
94.0318847017437
94.0215407496822
94.0638712251293
93.9538832131632
93.9467398016846
94.0755198280031
94.0490103997929
93.9969910228657
94.2451626108959
94.2727002252376
94.2894911505616
94.2276449386691
94.1295651892211
94.1262212235009
94.0675750293033
94.0958582691896
94.2879938350173
94.190617868783
94.2152472814543
94.2012138037974
94.1453544739317
94.1171184121064
94.1582115068922
94.2213242339906
94.2808448853361
94.2021584536024
94.1769761575682
94.2335994425947
94.3467681695632
94.3168044988295
94.2116368106049
94.1189731885621
94.1781063624015
94.1467918268581
94.1844998533653
94.2106067760893
94.1574898918656
94.2350167104831
94.42694086689
94.3649027037712
94.2808109115381
94.1579974171019
94.2004931355017
94.2503998529354
94.2442026535492
94.1890331230192
94.4135537621464
94.299924444456
94.2540773721173
94.2963626071682
94.1790591621676
93.981988019735
94.056601262171
94.3009340628264
94.2457907953324
94.1156865555897
94.2060980488519
94.2986712463532
94.4018541726346
94.3257571460446
94.306508500378
94.1900498572578
94.1213248797664
94.1925355713879
94.3384367144203
94.4320878357798
94.4967217634247
94.451662924686
94.3644434191172
94.2576118534438
94.2068252442002
94.2265409324174
94.3009049073209
94.1900169166299
94.128081166001
94.1353834123282
94.2657230797073
94.3054772314376
94.3182605211155
94.3476086097014
94.3097856638027
94.0905063955437
93.9416920156944
94.0749635313695
94.1626110008173
94.1799105840017
94.2723570775579
94.1196466392661
94.1945614452296
94.2050569478065
94.1265481916949
94.0650715726064
94.0112147192444
93.9570398346744
93.9462488209663
93.709738506686
93.6826475014532
93.6925769172093
93.7058354067987
93.7202437079956
93.7039610990355
93.5998273365885
93.5393827709439
93.4412461448494
93.3495599375792
93.2919516294747
93.2002459429285
92.9336029684715
92.9442837052133
93.0560873233684
93.1524771207934
92.9685178474066
92.7633674865783
92.5861007471462
92.4147629175755
92.3300934259533
92.2667490818443
92.0299496145823
91.8781627841681
91.8935359099814
91.9826388537311
91.9256721297289
91.7589146916107
91.5635263807006
91.4005235554996
91.2088531901674
91.1907644887271
91.1065922332748
90.9898088180331
90.7702401073476
90.5892126895102
90.352301383824
90.2680883153179
90.3400506400046
90.2966527537362
90.0686140383191
89.9133536457942
89.8498063478017
89.7833573390763
89.4731487693254
89.2488013268996
89.1651667316644
89.245709920718
89.1976754383448
88.9519257192493
88.7302071307818
88.7401328095351
88.6475345274789
88.4259758854784
88.2295646983375
88.1858608137488
88.094792136507
87.99434873748
87.823221978146
87.7760927769477
87.7325936782001
87.6331602364407
87.4323464577436
87.2018979585504
86.9850036852135
86.9780398414714
86.9255776518735
86.8816101019733
86.7290402675901
86.5862503794605
86.5255376700734
86.3732849146851
86.1430996433313
86.1113754043171
86.0315187236696
85.8309660143984
85.6587049520554
85.7190414838524
85.6676738627643
85.5611364503415
85.4953706210777
85.5116756984782
85.3286291903453
85.1621164039889
85.2039315875297
85.3787768837427
85.3422719450007
85.1693233310108
85.0263160909065
85.0022295146468
84.8914319033164
84.8985469074872
85.027479318722
85.1865800544107
84.9858924163377
84.7413872482
84.8078622337514
84.9446918990864
84.7562375237896
84.6621231594254
84.7332655435269
84.6421767300145
84.3290342249985
84.1236657411093
84.0446026644256
84.2643045936558
84.3889548676409
84.1741992799143
84.0315374860231
83.9716911642084
83.7209535645836
83.4040157385416
83.317187002702
83.5892177497532
83.989503564814
83.921085695277
83.2525520021606
83.0695012238759
82.7855288942439
82.5903784699501
82.6510795031316
82.5527807364066
82.6646789784465
82.9940614257878
82.6868617716528
82.404688861962
82.6352442075381
82.3955352834592
81.770439654936
81.7489672340206
81.9179196372454
82.0050221355757
81.7316135807841
81.2863427643157
81.272251809358
80.973010684593
80.4550294318185
80.5039827870875
80.3216285729866
80.0426337455225
80.0187283132252
80.1694030808774
80.0486548020978
79.8274111527364
79.5327598796718
79.4418177166459
79.5272796287139
79.3873468413234
79.3578071912388
79.5975966912622
79.5711332404762
79.4764915932055
79.1509059232574
79.0594027979748
79.1009093541468
78.9581943971713
78.9127054197871
78.9718341679527
78.9559237052952
78.7974535679746
78.4803431345462
78.4293446043963
78.4000098042718
78.2634501918774
78.235808210729
78.3709867883419
78.3835182329394
78.5296304835027
78.6191415193661
78.5925156973732
78.5137076200078
78.567447543725
78.6192189498881
78.6932382170308
78.674593982605
78.787974751881
78.7920556650073
78.8435854579789
78.9827804833451
79.0525172232273
78.9777093939651
79.0338914917707
79.2152765919058
79.4967334936429
79.6015372190123
79.6463734715979
79.6790445469425
79.7339827747912
79.7947269216796
79.9536232601866
80.0081688906714
80.0962498420487
80.2235063590465
80.3314878418661
80.3446789269908
80.5185152481203
80.6784951425449
80.7924441742826
80.923268677558
81.0115845469981
80.9052806504709
80.9853993995941
81.1660310627087
81.3183064655722
81.3681434122083
81.4086951213937
81.4623646882626
81.5863489844039
81.6618267432118
81.7079221577955
81.7128503225143
81.8071892480812
81.8311648629836
81.8344470922881
81.8555451386621
81.9705938735915
81.9772116408061
81.9446853771146
81.8691966554848
81.9146987416671
81.9548219846264
82.0116087253824
81.9747711508491
81.9289041744055
81.9789548859631
82.162589198569
82.2767177921114
82.358001353785
82.3690968807051
82.4548421795584
82.4979885514225
82.6418411280394
82.7113480051093
82.7698923989773
82.8769176664095
82.9814596933641
83.0382078425236
83.155113133225
83.2229795166664
83.355143571092
83.4819791595815
83.5843667218465
83.628344342828
83.7007436514639
83.773367313808
83.8995094831607
83.9388464797549
84.0462810773432
84.1486481416753
84.2668793500534
84.37103806697
84.4521032477282
84.4361552333576
84.4951343509391
84.5703084863326
84.6669520084301
84.7447561805549
84.868272801648
84.9430316012119
85.0480067931947
85.0226946885071
85.1053176684916
85.2667712100935
85.3699817906574
85.4090161092059
85.5438290461884
85.6296630311708
85.6862029370924
85.6989869525655
85.7832969640344
85.9424019925812
86.1453559944167
86.1982900305916
86.3634800230193
86.4669962778487
86.4203745111225
86.4292885748633
86.5524504088203
86.605885516225
86.7475127648815
86.8148047915385
86.8628675852216
87.0058103296716
87.1830228759796
87.1975074122317
87.2999628858739
87.3401395569621
87.3836526660927
87.4807269031472
87.6546303601731
87.739151118913
87.7727375679869
87.8056008074956
87.8940465082618
87.9956238832181
88.1212330048879
88.1503728690218
88.2637679875922
88.3425989132721
88.3936237808347
88.4080485149729
88.4999930186609
88.5285348272784
88.5897158446413
88.667812393816
88.7637367486932
88.8261615209057
88.8699567563613
88.8642639862612
89.0221667755241
89.142277685446
89.1184981704104
89.0891479292007
89.2341321533299
89.3382723347088
89.367613329126
89.3898537183052
89.4884522276534
89.4885572141688
89.4553545794652
89.5385977504141
89.717322755297
89.7577320094506
89.8427903178265
89.9472021025993
90.0275544194969
90.0250231959579
90.0296550718123
90.0586472120903
90.1433736664302
90.1508857371726
90.1548401815825
90.2240176327001
90.339536622804
90.3256764977554
90.3594352116053
90.4264142305975
90.470708171794
90.4737485072959
90.5834522651136
90.6729465632777
90.6809762810716
90.6541727737471
90.7167753176508
90.7132324657258
90.7649749905023
90.8470735040452
90.9270072814633
90.9151259774407
90.9386142628872
91.0200487150915
91.0633520689443
91.0812508056784
91.183227191886
91.1787283048675
91.1669890147949
91.204315247767
91.2379422883961
91.2258980655323
91.3081525907428
91.3524348051787
91.3662106783665
91.3482561999985
91.3801472941895
91.4054410206043
91.409062304586
91.4285494073989
91.5617625474216
91.6390929015861
91.687598713298
91.6953073387028
91.7027615390732
91.736133990649
91.8103394470743
91.7728280864101
91.7265202291159
91.7282602140888
91.8367737242154
91.8790196924157
91.8938856828922
91.9093240596985
91.9536448196677
91.9507158060771
91.9522770963199
91.9426808582836
91.9796034177357
92.0238754851237
92.1075966251473
92.1674230831442
92.1796552603587
92.1347378847315
92.1452667674526
92.1242205435245
92.1574605857533
92.1894656365074
92.256229366394
92.2642010899514
92.2490270926622
92.289253988022
92.3386481186118
92.3506531172604
92.4069055295198
92.4203513751647
92.4810865686107
92.49758841084
92.5033311627304
92.5039438289842
92.4972935199594
92.5171454062138
92.5365838928917
92.54404794473
92.6307750986669
92.5968723325553
92.5900066043646
92.6176752559989
92.6569185781129
92.669341732039
92.6895801679932
92.6793190012021
92.6777868950811
92.7169240202524
92.7545502201104
92.7151112538369
92.7770171601575
92.7994606750996
92.8108702788569
92.871174713866
92.8700818671909
92.8500427092341
92.8735436346726
92.9104045185474
92.9042463536358
92.889633562179
92.9461350356343
92.9718597155834
92.9924991246677
92.9948532760738
93.0268180574107
93.0151950619884
93.0108931318891
93.0157538471736
93.0343229415029
93.0658044467067
93.1313787322053
93.1274286001085
93.1540205520761
93.1869486298539
93.1885040736973
93.1312152035993
93.145425965871
93.1642020188213
93.1917397830012
93.2019751404291
93.2150569860658
93.2567467049155
93.2404704137495
93.1818053882921
93.1860548665433
93.2179680899677
93.2454254606137
93.2590235300665
93.2705948539204
93.2568417388382
93.2836156948086
93.3657322793677
93.4136152208625
93.3529913474192
93.2929110921448
93.2831401170516
93.3396036088419
93.3860500106861
93.4056186945255
93.4268749964461
93.4387099648977
93.4604531902968
93.4599349756982
93.4013749437862
93.4018034026614
93.4607750710034
93.4819453230286
93.4570860210954
93.4308232144777
93.4182696211763
93.4336638843962
93.4931654241311
93.5141780477281
93.4875841363883
93.5212936135928
93.544394649422
93.5562210743847
93.5740552158016
93.6137225936318
93.5973415938234
93.5640270204537
93.5286503219183
93.5133830631482
93.564386170564
93.58982959503
93.5725959770709
93.580366498623
93.5916228935487
93.6549219128471
93.6806529089841
93.6271785417592
93.5839531835599
93.6615768182808
93.6950623849645
93.6273098892693
93.6237275918534
93.6716423986159
93.6571876567411
93.6778903031987
93.6987268254303
93.7543496404735
93.746393107253
93.7080173686252
93.7209849793575
93.7754178226616
93.7609173653416
93.7309995344723
93.7717080970747
93.8063941910798
93.7756619918979
93.7737280671602
93.7614184502572
93.7580125506456
93.7623842409316
93.7946399942749
93.814405190249
93.8146702333655
93.8013688477072
93.7741099238685
93.7848375153042
93.8011886372567
93.8061703119326
93.8472725397704
93.8243199024499
93.7842710869262
93.721168932466
93.7234771175205
93.8237627389524
93.8716471717506
93.8360147707201
93.8583429944235
93.8915574415453
93.8753508491695
93.8549682604219
93.8688494038196
93.9007476969495
93.9448976745881
93.9152815610969
93.9092794919847
93.942772893862
94.0511648449758
94.0541210355551
93.9336144472066
93.8939788767
93.9878155697234
94.0493524482135
94.0800732351298
93.995096875033
94.0053395005453
94.0908156783598
94.1113866436102
94.1246721925775
94.1946825446421
94.1623944598151
94.1507162726527
94.1856160132822
94.2151990339454
94.2273607537698
94.1594887320881
94.1205620674799
94.2098691063031
94.2394470594876
94.2543167963547
94.2770527652884
94.3032629413844
94.3209207014398
94.3595212754974
94.3803170587616
94.3635486962417
94.3603012680417
94.3551549041274
94.3089411113549
94.3206468237191
94.3424153640992
94.3157258384423
94.2411083276752
94.3192333708395
94.4516086420304
94.4217448069483
94.3558080851497
94.402850432609
94.3725004460518
94.3806197843443
94.3876062262852
94.4684155542466
94.4790046858593
94.3977341928673
94.3278203698544
94.3709753134672
94.4524367052312
94.4455822798935
94.4304077566761
94.4158018676128
94.3541651908604
94.4013010453078
94.5216490646837
94.5221935055617
94.4443799750323
94.5215477614982
94.54683923032
94.5244905006118
94.4611352095942
94.3986661455771
94.4543318965903
94.5446485340494
94.520389761437
94.4588007182608
94.4395899545346
94.5097558233726
94.5675009817621
94.561527401737
94.533937339209
94.4398052434005
94.4018777919416
94.5128924981751
94.5396138662479
94.47980056122
94.4906786248176
94.6147024821143
94.5917863477038
94.5029923350049
94.4448063996934
94.4013444778981
94.4816252745692
94.5642677419459
94.4658082918093
94.4285213335223
94.4875725396449
94.5156093597766
94.5591937539959
94.5803154475125
94.5461662206135
94.4899883842475
94.5263810345211
94.6576937837711
94.7037003925692
94.6605719908655
94.5493948778065
94.5715417674806
94.5992986505389
94.5630127460173
94.5139030136784
94.4881520080304
94.5421858058995
94.5344932509516
94.5173222599754
94.5901418707479
94.6587681284685
94.6335129901974
94.5923723773675
94.5432829557977
94.541746890024
94.6223070293077
94.5808599092591
94.5371738800482
94.4906138333663
94.4162649701176
94.426823560366
94.4985596609858
94.5731833938579
94.5398017007773
94.4814430136487
94.4834918111346
94.4865742900527
94.4847443220815
94.4948417012379
94.5188623530653
94.4833040112652
94.4591532380902
94.4001960053888
94.4043699270649
94.4022949265541
94.3227808298225
94.3539804556521
94.4713220622236
94.4748026456912
94.5200242719085
94.5396231906029
94.5788112526622
94.6231041532069
94.6071614331038
94.5425077704511
94.5724899933855
94.5921750684197
94.5308427361769
94.53457127286
94.5505547866459
94.4243729314
94.278823029512
94.1847037075929
94.1200369552327
94.1947080243041
94.3061236704418
94.3109894356072
94.2940723574804
94.2930890572414
94.2641928395194
94.2626205432551
94.3120776362269
94.2939006371737
94.1743329270346
94.0491036715965
94.0358107203393
94.1088163190331
94.1640237112823
94.1254887044855
94.1914607639056
94.1792714804227
94.0837765877816
94.100637358345
94.1606834868747
94.072489693028
94.0097609867069
94.0958838834367
94.2453914495785
94.2473486924048
94.1531716342743
94.1418103923788
94.1810633299944
94.1848245070278
94.2769350604585
94.2877574732239
94.2401058103358
94.3581114078029
94.5268533576093
94.4287932059073
94.3749488015639
94.5727202922328
94.6309132610627
94.5266978195191
94.5371765862608
94.6393340500366
94.6968808504971
94.8236535314301
94.809149165371
94.7078472935082
94.7390382190561
94.856994494837
94.9717698828215
95.0230817622075
95.0384664780949
95.0370029626296
95.164016442368
95.2169130933942
95.1391317737977
95.1718164298276
95.2441034012926
95.332304548015
95.2339443511011
95.2803897970281
95.3519658319016
95.3740249698466
95.6045931727641
95.5791507141078
95.3968227318085
95.544491253925
95.6208214331576
95.5362325324791
95.5370479702726
95.711242597443
95.7877389453801
95.5536191707501
95.4451471830397
95.7344869584688
96.0130554524398
96.0248016748886
96.1033365196372
95.9634817204184
96.0172810095761
96.1595027793579
96.2059556152229
96.1155181832368
96.0835116153411
96.0606786260548
96.0491644571036
96.2757768147046
96.6490845853821
96.8698087119058
96.7736949091532
96.2476613017122
96.2538511156796
96.6840678591074
96.8626488907679
96.8455592899394
96.8591741196163
96.6676423405974
96.6886381276948
97.1541352494161
97.3366750454253
97.6780313852752
97.9299248217015
97.8622465243637
97.5364003613807
97.2234994191392
97.0262574726195
96.6525517241417
96.3160038238046
96.3807364604118
96.3148800910701
96.239079673047
96.1387072783724
95.9231459307751
95.7292275213265
95.8104194568929
95.8173740205297
95.4514834417747
95.3061753878579
95.2740383419377
95.30096524604
95.2309028911864
95.1622289619465
95.1014079330799
94.9870420894636
94.9840599502597
94.9277956242853
94.8113990723618
94.8310480468213
94.8833921170396
94.7959266856186
94.9401719550977
94.9742789274454
94.9385309262492
94.9713197050392
94.9980150831571
95.0109610769216
94.9973977447735
94.948499352274
94.9921028207873
95.1217859734907
95.244672348868
95.171483382109
94.9254230398216
95.089228965337
95.2993860224214
95.2400447155543
95.2202265882983
95.3541223777194
95.3449381489295
95.5347188498952
95.581397896075
95.4544251097171
95.3757904459577
95.4350050749875
95.4875041101831
95.4174038043601
95.5813266864705
95.7895863214704
95.8288849286569
95.7723919076701
95.9971063189783
96.3791172625214
96.6626857569999
96.4018113732563
96.2272836860355
96.6329350224822
97.1595462994166
97.0589077274202
96.8362391489941
96.8742727429945
97.3168764967887
97.3910108858843
97.2680294523826
97.3205545604589
97.3335121282074
97.1955665359871
97.0098775194
97.1989274273932
97.260558377798
97.1662783015413
96.8487905178889
96.9350024190351
97.419930301005
97.2492458046927
96.7533160437345
96.7259777577022
96.7140506659003
96.8806062734382
96.8635856093098
96.7776847841871
96.7041418541423
96.4902306298161
96.3128100834845
96.2450788672119
96.3376741180506
96.6103563258163
96.7436616781719
96.6454668070808
96.930387779977
97.3698771865495
96.9599628630461
96.6579706546776
96.8059853420681
96.8680356239922
96.862098705385
97.0007420224453
97.2259462396812
97.3082803779563
97.1049044224603
96.745394972741
96.4855214521051
96.1825430732246
95.9785549060862
96.0438791421104
95.8766298110767
95.871194219848
96.0372703514928
96.0915571474683
95.8895498596909
95.8202691350648
95.7455036830627
95.7282448630741
95.7741757481759
95.6397020461946
95.4209430103604
95.5526220848046
95.6467172863754
95.5391674434278
95.4296801588897
95.5105706860227
95.5833274729104
95.5414652692369
95.3867558274221
95.2787922571302
95.2977380764377
95.4016163024205
95.3131713645587
95.2734831497706
95.3348797156352
95.3646245952859
95.3275754244626
95.2626266449554
95.2686454594103
95.2142471328876
95.0983828007481
95.1449201054621
95.2019518965632
95.1777629114639
95.0963789236295
95.1141541887874
95.1768661971746
95.1325711754439
95.055005010317
95.0312929024356
94.9735225815329
94.8978686440627
94.8420011266975
94.9380816208222
95.0510873579963
95.0354132579354
94.9886511976038
94.9822951068004
94.937532566529
94.9480574159737
94.950869930937
94.9766514404807
94.9099777637672
94.863589555872
94.7760393609142
94.8333073512712
94.9199354774017
94.9405398090594
94.9174801714281
94.9050541231324
94.8778609217506
94.8309432423589
94.7155490012285
94.7917599878846
94.8396492447928
94.8455987296708
94.8461088088161
94.8559543133914
94.8950260819823
94.8580039398267
94.8311954193763
94.8083199345287
94.7565962994383
94.7519083834502
94.7499549972724
94.7761752648908
94.7933413447133
94.7629966760842
94.7435099135206
94.7300889237122
94.6945597215503
94.6915982226201
94.6117991599335
94.6183474801626
94.7441183145327
94.8266774217185
94.7548188145873
94.6859478352547
94.665991305977
94.6780991716658
94.7094853777095
94.6833603797881
94.6470873997478
94.5284062460799
94.6144480967675
94.6842675898834
94.7833865867255
94.7363437775558
94.6146938360843
94.5698650396692
94.6127704375722
94.6200080643259
94.6819691871718
94.6521041175758
94.5291724007402
94.4649541467123
94.4710750226433
94.5826208306764
94.617238023794
94.5621479737094
94.4498352557961
94.4359813314763
94.5043181925251
94.2980934703518
94.2132777959555
94.3240424359266
94.4866702747526
94.537101142711
94.4794774445406
94.4139619114021
94.3147220288056
94.2200714805532
94.0353773243887
93.9973798168081
94.1291342635425
94.3152087654683
94.2453592655423
94.1207640649184
93.969171378719
93.8335230719555
93.8127472839671
93.5947058318816
93.4249784148672
93.4220555965606
93.3792725568383
93.5890868957425
93.4489625915924
93.3090992640125
93.0248334940228
92.7639357579861
92.4355915425596
92.4125935107668
92.4259615838979
92.4393833284692
92.2282343693846
91.9095418512279
91.7568809633877
91.6148952690792
91.4427342468393
91.2977140077949
91.2309591153484
91.0397593226893
90.7617426606965
90.6266942861784
90.4962510200087
90.2773231230031
89.7979248955108
89.2697631119426
89.1551451073003
89.1612469376701
88.7435292564181
88.1130426971937
87.7103471013623
87.396121234299
86.8364805923761
86.1208871189211
85.3865057896614
85.09517912926
85.4187939222007
85.7347704386636
85.7158007861776
85.6388950542996
85.6247883442725
85.5564816641299
85.4577423079917
85.1704610360698
84.6243653582542
84.0735640730266
83.8079704125701
83.5619759463071
83.2053305597222
82.9784798249387
83.1521570344266
83.5900046322406
84.1768167051695
84.7762755548447
85.4386834310116
86.0736447740629
86.6306838082415
87.1685642532976
87.6871160607454
88.1083854642059
88.490218380266
88.8111430680439
89.1118319136425
89.3302314585924
89.5223324478973
89.6683226820176
89.6672146662714
89.821722755478
90.264227081304
90.4370038269516
90.336269088731
90.4190658325749
90.6106304309286
90.7126695811067
90.6460632313619
90.3527667313216
90.0053601357656
90.5867608341977
91.1433153156149
91.2027505888598
91.0394642229683
91.0547801430185
91.0599002438696
91.0272886534839
90.871672347735
90.6920009739128
90.6923305066551
91.2117595005662
91.5992091721504
91.5015851873687
91.366487674726
91.4124997652114
91.5188733840388
91.4091508415208
91.3913523863694
91.3394493692226
91.318987447026
91.4665584189223
91.645125964415
91.7281904464565
91.7266656284666
91.7428043060811
91.6161269428232
91.3571006237095
91.1837527841114
91.7075450753149
92.1506980298736
92.0747440104254
91.818354471812
91.6853951431173
91.8324365780413
92.0149931290895
91.981117798425
91.8144662844409
91.7917291893254
92.0294010015299
92.1189723127684
92.0556222459524
91.9725715949102
91.921730313842
91.873383863733
91.7498299153458
91.6783115207291
91.8501031431772
92.0493822341849
92.0407410155658
91.8218299860131
91.7731279275518
91.8201981997329
91.730363255816
91.3682945146964
91.3336753860392
91.659113285743
91.8249158536161
91.6674145143064
91.4930330211852
91.4152115726978
91.4619308829115
91.4987080683496
91.4551499582206
91.3207408540662
91.1411211889262
91.1474384822558
91.3145117130215
91.3650135814889
91.2169547271295
91.179467356295
91.1921962454338
91.1668048569655
91.1372965455136
91.0788782276012
91.0404288942994
91.1435605556456
91.377575867376
91.4270900684413
91.3699735227031
91.380859892556
91.4590900719987
91.5132651977323
91.5503906027711
91.632841552335
91.6822548634851
91.7125444329588
91.7512173421058
91.8263516541042
91.9241151054866
92.0900721246024
92.0968429664737
92.0448292156572
92.1192007752247
92.2842200500764
92.3586018281886
92.3375499212727
92.3598644559872
92.3717140912171
92.406422900194
92.4968151769029
92.6027163551171
92.6232144004201
92.6521341723399
92.672679746669
92.65055297253
92.6805335582182
92.7929822038582
92.8540409321354
92.8721681601705
92.8777553141335
92.8966122053071
92.9172094576215
92.9393497359449
92.9708696064591
93.0110025861797
93.0199393993195
92.9758289885268
92.9152425053681
92.9500771813203
93.0453529754231
93.0939049927653
93.0887299300111
93.0667358105563
93.0467842693201
93.0267643551076
93.0344992332273
93.0546488747401
93.0649220068807
93.0891908454583
93.1354916380435
93.1674331338369
93.1717072191136
93.180603593232
93.1867026051777
93.1875430512531
93.200103602274
93.2082410091256
93.211513508287
93.2211542007309
93.2079623711034
93.1845454864514
93.1805267854909
93.1915293100705
93.1703046876254
93.1558287825306
93.1569577212368
93.1427762498292
93.116369798936
93.0700446006727
93.02909995258
93.0070770057137
92.968168330532
92.9228778904209
92.8783757172438
92.8305744229065
92.7964555770658
92.7725143688157
92.7248442295264
92.6624177374768
92.6033098238985
92.5451669225753
92.5025457240266
92.4706935016587
92.4007453541316
92.3098960346247
92.2395209693653
92.1756544615079
92.0814921091207
91.9837043659673
91.8907060958879
91.7754006464064
91.6486250306403
91.522017085642
91.3678788855988
91.2000761119734
91.0307054916768
90.8463689257056
90.638947838698
90.4251083695574
90.2004268323294
89.9635401162162
89.7098039427041
89.4403391286132
89.1506225674568
88.8409518842167
88.5212552872098
88.1859269591357
87.8003660364153
87.3685928817941
86.9271492290883
86.4986566362469
86.0418573123345
85.5624712332673
85.0902002384483
84.6101862287449
84.1308207969228
83.6544824368866
83.1703377919168
82.6893967698158
82.1935439037741
81.6750128517605
81.1690274041157
80.6903467814009
80.1966213663751
79.7044117054754
79.2377138352507
78.7804223664541
78.3188305482196
77.8676149696456
77.4199318507387
76.9833550267518
76.5588589913646
76.1375845521792
75.7175218138127
75.3189790942686
74.9194026021171
74.5076800152247
74.1036780688032
73.6937911064945
73.2836868666537
72.8940032816395
72.5069934457931
72.0923624148336
71.6710025066448
71.3044964809282
70.9719010672954
70.688754768918
70.4822339198855
70.3521345072335
70.2681840084869
70.1662323913248
70.0468493610109
69.9600547897805
69.8547073613025
69.7319998058798
69.6796695059533
69.670047402
69.6127161437883
69.528516035942
69.4581337359721
69.4278107518663
69.4381873906403
69.4928619013845
69.5937754959822
69.7486725656224
69.9933288360949
70.3531586218695
70.7686240315223
71.2209569710619
71.7266724344596
72.2628897349516
72.8235305920728
73.4116707452505
73.9470919393001
74.4269611306564
74.9286987142674
75.4649275987964
75.970024321198
76.4585189356937
77.0031607921533
77.5906018502752
78.1441889075114
78.6940191351768
79.235587792654
79.7776205625455
80.3289415120355
80.860080873353
81.3639203843638
81.8548507979205
82.3216037975424
82.7402388385925
83.1214516949154
83.4995710533693
83.833955761967
84.1421995154317
84.45556334963
84.7401653394989
84.9821285649797
85.2110162197575
85.4070826515858
85.5829930929983
85.7616345457544
85.9347434419558
86.07041261466
86.1856154845944
86.3036214384227
86.4054184681422
86.4905883093026
86.5969950506102
86.6892533805893
86.7436393431763
86.7772295390618
86.8263553373999
86.9105107640909
87.0015162465017
87.0623124379038
87.1016574820667
87.1445115905523
87.194695521414
87.1757741840607
86.9272311249616
86.5490790098803
86.5993521501692
87.1034114102551
87.5735272742155
87.8835420100501
88.1148987419878
88.3033446020076
88.4814344892323
88.6550899028033
88.8137589074141
88.945545230323
89.0769371946234
89.2231471459193
89.3590067213021
89.4519205790648
89.5471807078896
89.6499025089116
89.7337742051601
89.8051994781138
89.8704601720375
89.9409962772759
90.0380503347636
90.1033907442335
90.1845351949175
90.3040117722064
90.3663586270136
90.4077220403213
90.4728870951217
90.4773538744967
90.4717803771236
90.5437784665315
90.6377613243272
90.679720173507
90.7270485712253
90.7825966657313
90.794867260521
90.8095995051262
90.8579973206261
90.8958595349672
90.9284292766237
90.9447339310914
90.9881921720274
91.0574031266008
91.0815582877755
91.0957260288448
91.1369663411623
91.1474135769429
91.1241962492217
91.1508079355598
91.2107967329263
91.2440682703843
91.2727771173004
91.314692692046
91.3582367309997
91.3761656128495
91.3587468026551
91.3218490677374
91.3443621821523
91.3476631290555
91.2986891256781
91.3097000872748
91.3634485123749
91.3536415781195
91.2792862062895
91.2363514236776
91.2694671510714
91.305455037574
91.3216439607721
91.2968113698927
91.2473389105494
91.1885077708786
91.1543187787983
91.1768606633661
91.180928741702
91.1093952240098
91.0465217449724
91.0565112539448
91.0714630710821
91.0508275004889
91.0561884976458
91.0966726313808
91.1297913530862
91.1440497655335
91.1401135788467
91.1472604463552
91.189393602782
91.1942554208098
91.1692070081653
91.143775100495
91.1377201127943
91.1507329109352
91.1434805647629
91.1014803244316
91.0724494059896
91.0115174418403
90.9822777628361
90.9768528366993
90.9258743325825
90.8913096675401
90.8785195190517
90.8835583653957
90.8653136756484
90.7588177977971
90.7127667293666
90.718127846317
90.6350788659205
90.5657695308448
90.6086466103486
90.58860774524
90.4900241180023
90.4218510940634
90.397550152269
90.3430327489648
90.2634705479259
90.1931835056278
90.1414791287435
90.1189702159936
90.0565722105858
89.9559600309714
89.9193641627793
89.8926533111803
89.8286336350946
89.731533339497
89.6722507070358
89.6345374781446
89.5729683866455
89.4675388157972
89.4168102405875
89.3471021420778
89.2256655489191
89.1199590703271
89.0539846548969
88.983137816652
88.8892570784974
88.761668506064
88.6392810982945
88.5051933522478
88.3941326174801
88.3334942417539
88.2423917391138
88.0474979455378
87.8793778395652
87.7391761954676
87.6090455999422
87.4938098045117
87.384347619434
87.2732657517358
87.1136118753828
86.9113722424659
86.7427714443233
86.5850988071493
86.4293092670526
86.2969227175969
86.1875635750981
86.0130893203324
85.8384451671959
85.6450044136333
85.4560325500681
85.2932565061991
85.1376043628066
84.9825993866141
84.8573449507698
84.7247670067786
84.5409046101757
84.328321636818
84.173155668735
84.0603852667125
83.9195538121532
83.7203037244133
83.5696327569932
83.3863302539979
83.1390420827343
82.8977287256106
82.6799672790254
82.3507553720001
82.0293439263363
81.6476558925914
81.4831697796986
81.2931177815735
80.7964011489415
80.416665322612
80.0418245099905
79.6600226147088
79.3971531733548
79.1549166400497
79.004173501145
78.8692277445085
