1798
3999.43349933624
650.420452594757
1
128
4
95.101880515286
95.0139264484961
94.9716356829771
95.0432220707878
95.0986672322067
95.1029775619213
95.0748123753102
95.0888903305896
95.0908750999718
95.0698159262086
95.0059160715912
94.9944773483899
95.0699614187041
95.1863415769658
95.1319382879359
95.0722263859405
95.2024418853036
95.1796304525973
95.0636039728117
94.9776902472271
94.958759385888
95.0544958011036
95.2384853128306
95.1979018448458
95.0148686340906
95.0377956255789
95.032558398573
95.010376972855
95.0598244537772
95.1319297478577
95.1706573276041
95.1819053516229
95.1305614497654
95.1122730731277
95.1465703816898
95.0755764424628
95.0559953100143
95.1088419126481
95.1662908839109
95.102318508769
94.9929096404412
95.062842929504
95.1445004012649
95.1467134959926
95.1955782429927
95.275839014204
95.3519536151556
95.291265690853
95.0986166477631
94.9109737250871
94.8222085018789
94.8101764423168
94.9230675111136
95.0641909325697
95.1683343613662
95.1713577288408
95.213046742392
95.2121059689241
95.1121828650951
95.0516504039047
95.0605485476008
95.1530256091653
95.2147540819165
95.2079259374416
95.2334571593894
95.1188062470889
95.0359665494318
94.9123863020131
94.8724120251692
95.0115778755774
95.031094712223
95.0390215330963
95.2838975836776
95.3477122446377
95.1556039764004
94.9447291817692
94.788179715357
94.8611564940375
95.1103454384659
95.3690669024403
95.5342139257642
95.5032924975567
95.282644918322
95.115462583604
94.8755385478791
94.7713593239832
95.0076944801435
95.2036793594128
95.278994783092
95.4253055645877
95.383693015599
95.2371189970121
95.1768747302619
95.1479413655753
94.9978143731621
95.0170519827863
95.0895745800834
95.2037278664184
95.5219514714354
95.4968628604053
95.3158629183397
95.2879817011783
95.1916417509952
94.951418734533
94.9777336961499
95.2429302386931
95.2589526192121
95.2777132168075
95.5522718957747
95.5932597437522
95.4461000842473
95.4153423843604
95.3877345263456
95.3931206106572
95.4309012343078
95.4104757394873
95.2872112401093
95.3488591550762
95.3786964526484
95.3115403174502
95.3266360037663
95.4178965650889
95.2744682928693
95.3362804612054
95.4776752048006
95.3754714307486
95.1923940426079
95.0782958256354
95.4089601139188
95.3147096345237
94.8080680685984
94.6276171263455
94.6849319212173
94.8506852959953
95.1563998608759
95.3149047041145
95.3521237210017
95.589519246649
95.736379318006
95.4225137553645
94.8445304104792
94.6405019355119
95.1614853074964
95.3478604886261
95.0712740164426
95.098840774066
95.3460109228604
95.2782232590627
95.4365461498294
95.3755540350383
95.2404919370574
95.3184157283386
95.1481283961926
95.2825230517959
95.6344178518605
95.7137623522967
95.674909738371
95.5093832164891
95.3203547861061
95.5173600317399
95.7492652191767
95.5583856392659
95.4398445403615
95.2582076874296
95.0869507440014
95.2158418397457
94.9722353661254
94.7684786121637
95.3534570072437
95.6413941282469
95.2674093442721
95.0987018420897
95.0057187449306
94.7579162252558
94.7815374137474
94.8133005474245
95.194869525534
95.6646341584257
95.5460771965901
95.4539983113877
95.5588402429642
95.4273480820836
95.1068808599561
94.9135238503593
94.8186575614122
94.6558277040077
94.549644339287
94.6696792594235
94.7800863181164
95.0282095015855
95.3301697920789
95.3089793505727
94.8998031305223
94.6637288440047
94.5227468755364
94.2720146588367
94.0190163011995
94.0294024298054
94.2104009992015
94.3318219897849
94.3099475436663
94.1451084440874
93.76578159936
93.6563930400004
93.6565806637303
93.6035524951762
93.4594015488643
93.3656679961505
93.3962970077634
93.2875645331261
93.1179349955812
93.1072782168703
92.9452746252042
92.7849443233421
92.5877996472299
92.4611672558117
92.4444337304263
92.2840140651907
92.0945871766683
91.8945659163863
91.7907465569406
91.7469629715668
91.6323331314534
91.5057782636774
91.3308460759225
91.1904200257212
91.1456711257474
90.9798469091019
90.7710859720075
90.5586495908783
90.3499697573322
90.2903431712611
90.2895598027382
90.2159514165378
90.2481580374512
90.1807752318578
89.8325076219754
89.6299606008293
89.5875061220862
89.5136908813093
89.3280690913048
89.1452366056711
89.0924835822701
88.945302288957
88.8270048174813
88.7113303226654
88.5022115362058
88.3512037927154
88.2316086651417
88.0386615346811
87.9316482254249
87.8624200064071
87.7710694896418
87.6210895387649
87.552272101585
87.5466021380423
87.3388843570154
87.1685244415755
87.1051846954969
86.9850870526751
86.8034373140707
86.5798699577908
86.4759961360128
86.3713146254255
86.2631957942683
86.2214972577685
86.1409279095654
86.0822320068273
86.0317662854917
85.9273266996806
85.9028462539002
85.8871341937986
85.8182450706846
85.7941274337574
85.8069927977583
85.7550623199785
85.6902886124571
85.6896291047055
85.6605974055114
85.518415011818
85.4311472300266
85.3748024201321
85.239019767891
85.1221241671798
84.9912722449435
84.8366655000001
84.7807233029095
84.6669891945161
84.5623657494872
84.3792781728684
84.2129301997762
84.0948721872841
83.9674139758847
83.7428182968703
83.6426254783505
83.5141438417076
83.2538830859136
83.085939727036
82.955609989232
82.9301430296774
82.7832469721855
82.4690436328836
82.344076624619
82.308626141819
82.1683524742057
82.0030224678489
81.9693312680015
81.9043087062668
81.6297524716286
81.3322268863843
81.308589616591
81.3013245549721
81.1370583749997
80.9768216794622
80.8210941116927
80.7721475324488
80.8088507705603
80.6792869990492
80.5083373204894
80.3802770106613
80.2280697212435
80.0988292503068
79.9609565503997
79.9013551006697
79.8178740296112
79.5685760210091
79.3920501680802
79.4066253518633
79.4034744134342
79.3111300159079
79.2878434084779
79.2640539072184
79.1608300859878
79.1051998634583
79.1338479524144
79.0757670175756
78.9718126155082
78.9078385037281
78.8879867134065
78.8374667716968
78.7823095076717
78.7565122112411
78.7823039669141
78.7250023750161
78.716073114764
78.7550568324423
78.7355662568967
78.7127885411969
78.6562660275305
78.63860793119
78.7421239707512
78.7909187971738
78.8549425829813
78.8617727100557
78.8964928539853
79.0177710923071
79.0952118998063
79.1821596620624
79.4227882685933
79.5466700403647
79.5742933653033
79.655474990898
79.7541339798649
79.8265664818156
79.9798908765896
80.1547307846683
80.3254830170665
80.4320790784873
80.5796772680007
80.7778680315035
80.9346179252828
81.0396187650112
81.2772198089722
81.3981803391569
81.503244115705
81.6601637571773
81.8566865754241
82.0353781131422
82.1226805572993
82.20363820046
82.3332299789849
82.4510532007511
82.520649795414
82.6412942704128
82.8963516547107
83.0758594524679
83.1736701261059
83.3325160653213
83.4487463275316
83.4945991234738
83.5801197758191
83.7101843855108
83.8191339881316
83.9210878819243
84.0381020687376
84.1652509595846
84.2369626077727
84.1854034599192
84.1778393434623
84.2308489251369
84.2595606735895
84.2128434098483
84.1544169128102
84.1110344225301
84.1017486328426
84.0467703919041
83.9479571338465
83.9390315262016
84.0634112556775
84.1591319206572
84.203255869576
84.4011723920705
84.5842915787952
84.6722864203145
84.7485451776716
84.8758722871875
85.0708818054726
85.1642998055934
85.2621029515664
85.4087377374466
85.5291467610635
85.6225744904541
85.7277895663737
85.8654989137023
85.9933830194841
86.1623219538465
86.380851687974
86.5221432276855
86.4993089780227
86.5754735978754
86.7456900743514
86.7866966291493
86.8185950553326
86.9396967344516
87.0806992492386
87.180265519181
87.3014728928153
87.4027545696316
87.5405333022286
87.7056793348434
87.7105875229933
87.6257272016044
87.6559837025115
87.8353641002478
87.9312268587659
87.9365584512882
88.0200072026051
88.115286643234
88.2049710668508
88.3140771974608
88.3828992931838
88.4374200739737
88.6038656198929
88.7953584907672
88.8929717022927
88.960882818794
88.9990391179468
89.0870010055929
89.1276329409881
89.1754673111677
89.3431597669817
89.4679610897907
89.4958075822823
89.5741441408285
89.6673985544224
89.8358936578966
89.9392649831132
89.8937132024806
89.9424020912401
90.0537512335449
90.1590588690375
90.2518598841777
90.3345249441238
90.383705702364
90.4334743818842
90.5210201320515
90.5822387839314
90.6311275020564
90.7173786098178
90.7323434185491
90.7805483429539
90.8975787728511
90.9347675702963
90.9966439253722
91.0549686746368
91.1652880931346
91.2383647703809
91.2646945164409
91.303273935242
91.4108699955788
91.429646036714
91.4288572868915
91.4690374274821
91.5629805696285
91.6884047046169
91.7916376249921
91.7588329999455
91.7981697581189
91.8067384729924
91.8030745859724
91.8636536198636
91.874465640482
91.9226466868449
92.1005735521855
92.1790124162736
92.1648845350854
92.1038030709573
92.1108630033385
92.1346314912407
92.1942574952043
92.2779241771898
92.3481201558371
92.4592631405194
92.4790652799133
92.4303595252586
92.4936698004198
92.5342920670437
92.5460774567974
92.5313300773992
92.6071833686711
92.7921365355122
92.8608830236353
92.7526133230173
92.74601129531
92.8349070073776
92.8618699948098
92.843318417123
92.8525801084603
92.9494985780961
93.0091671089681
93.0164068644487
93.0626519174162
93.0623495779439
93.0587634607518
93.150577305726
93.1754300423143
93.1251460963518
93.1337454888326
93.2274706800277
93.305146694349
93.2927308904154
93.347722356333
93.3629742786294
93.3515738447283
93.3108915959104
93.3285739912525
93.3868101475246
93.4605326437111
93.4379258912764
93.4422858496481
93.5525800429009
93.6030546062903
93.5932330533947
93.6603900555044
93.6091644251338
93.5699623976697
93.6180321585496
93.6925348628734
93.7204876870402
93.7128402804312
93.6568716239095
93.7009464099596
93.8175100874865
93.8452480200124
93.8175417688245
93.8299909589221
93.8431554944002
93.9142540641243
93.8925428563173
93.8431841178447
93.8689083404319
93.9043741047794
93.8993612826108
93.9017822798041
93.9404059401566
94.0806719439467
94.1386478941386
94.0798351449437
94.0321025020917
94.1082004607334
94.1176032034452
94.1190011882475
94.1680702370672
94.2195448792886
94.2275820952198
94.2217867818505
94.1741563667372
94.1900698638069
94.2172204772844
94.2358629580768
94.2042767888
94.2321883671259
94.2934191208747
94.2984559968825
94.2658032012785
94.2246931404457
94.1781220590046
94.1920148513785
94.2282399617101
94.2042863723651
94.2483466274314
94.3268440980223
94.3148493485735
94.3237389866328
94.339051287111
94.375905285119
94.4191513042064
94.4220945062118
94.3971310839435
94.3817658237858
94.3561602327607
94.4016315109543
94.4449078671789
94.4781460700845
94.4709335904029
94.4771514142438
94.5003951698647
94.5456173225986
94.561306200772
94.5245350870385
94.5047309343011
94.5190359594484
94.5305149847574
94.5632594431969
94.5307724244005
94.5751209996787
94.5999909062571
94.5720774360404
94.55158287905
94.537035478914
94.5610265565225
94.6341242998918
94.6526663997877
94.6299085460579
94.5930169157961
94.5913096497688
94.6216144858482
94.613914388519
94.603757512544
94.6683036485731
94.7295840785876
94.7549879241579
94.6925175423285
94.6800068144227
94.7459790975897
94.7906811994844
94.7597075637473
94.7329835413376
94.7097823748922
94.7141631327825
94.7138283621921
94.7682774719969
94.7639762970532
94.7312946240955
94.7229884944168
94.7248993510114
94.7724945602466
94.785020901964
94.7280498155763
94.7743316920117
94.7962896231261
94.8005219102497
94.8090281638056
94.8338513529271
94.8178630007053
94.8347167314221
94.8513185258858
94.8572357979981
94.834690024208
94.8513798346079
94.888691327385
94.8690896684133
94.8203821613199
94.8055908690223
94.8520463615125
94.9284796603203
94.9239920417238
94.918520148198
94.9132635666517
94.9659927419768
94.9649598303236
94.8736176963081
94.8371775687246
94.8853126953893
94.8995839924982
94.9350338052608
94.9692249854789
94.9924163605217
94.9264274984207
94.8996598166924
94.9480207819834
94.9663168023819
94.9395740385868
94.9409208357198
94.9407466380079
94.9648077108765
94.989895437724
94.9877259091812
94.9771627351343
95.0162133086646
95.0799784484815
95.1070338801778
94.9990803516246
94.9494035809326
94.9680202010365
94.9642580795793
94.9849057111972
95.0306487674304
95.0179826463538
95.0204069424256
95.0836782623374
95.091247710516
95.0482961384981
95.0608648408257
95.0710687732681
95.0467402403605
95.0152007650184
95.0085028334926
94.9905940726244
94.9504254956709
94.9114477519734
94.9292694803326
94.9210621357785
94.9151901957585
94.9340426791172
94.9146828022431
94.9012152959237
94.9316431448779
94.9307263901949
94.9353942753548
94.9455740379893
95.018329139942
95.0520103980067
95.0144516002905
94.9805365066997
94.9968276804895
94.9709383939805
94.9904285393034
95.0193083918358
95.0788522551764
95.0863539430389
95.0384443229548
95.0722866136755
95.1325763331437
95.1338784969241
95.1941010637825
95.2129272116709
95.1795963678817
95.1492197882493
95.2194769682897
95.245659817965
95.2042977419708
95.1966687152428
95.2034182227079
95.2011564011951
95.2618401883943
95.2334637702516
95.1588678690632
95.1948047927524
95.3123267606014
95.3029510474125
95.2674116744958
95.2818388852775
95.3462833280973
95.3512480757661
95.3932849031932
95.4631385400537
95.4664119944142
95.4174399658721
95.3220863965188
95.2947597214891
95.3812108912444
95.3967377948878
95.4486013490341
95.3846418837896
95.3330542264065
95.4005184642858
95.4371077529857
95.3802137819947
95.3796841051691
95.4435520444367
95.5282009890051
95.5746785623606
95.5433774978045
95.4422019845106
95.4099435838371
95.4451240974749
95.5329997789932
95.5082706974344
95.4290371886452
95.4689638719914
95.5621479109546
95.5531470760863
95.4687478894582
95.4211502574349
95.4883312034593
95.5884176664753
95.6726427001158
95.6306175907736
95.5819060161166
95.5397459558484
95.5486458465762
95.5142870824983
95.5030156925973
95.5173689630626
95.4921521911435
95.4997299709512
95.5304601684359
95.5054304961409
95.6027383328225
95.6229352303747
95.5703977908388
95.5983015398273
95.6510383703414
95.5943102588303
95.5986176380309
95.6145028745095
95.648302954274
95.6425196340213
95.6035274322499
95.5785849916763
95.5031122667445
95.4643401639089
95.53313789579
95.533362159537
95.576463876067
95.6178837482998
95.6263757684253
95.5614750337325
95.506947191555
95.4835046860619
95.471226183996
95.536686696009
95.5387401370459
95.5374989857334
95.5692917458496
95.5478653604035
95.5951774721991
95.6128880191739
95.5955528164834
95.6021734838561
95.6009786538079
95.5682635835092
95.5730758938567
95.5016827921433
95.5510156144015
95.6238647805532
95.6333141074676
95.6226046875339
95.6165385754554
95.6641367262219
95.7190879344986
95.6298109875313
95.5666874411816
95.5635438120348
95.618960155275
95.6655691638975
95.6583364582991
95.6288238356903
95.6173019079604
95.5919632966756
95.5847635223506
95.6033368913041
95.6847163963622
95.6796971388311
95.5938353805288
95.518952897037
95.433064390969
95.4198680343259
95.4954307511349
95.4744727479828
95.4314805445239
95.3555537396968
95.3367437743082
95.4867941060664
95.602963325824
95.6127453574116
95.6329096376704
95.6203228504491
95.6205733230581
95.7004957830458
95.828348354783
95.8906234022294
95.9171290656128
95.8401135028165
95.6719234987181
95.5168270105906
95.347880146297
95.2182175770238
95.3010061796923
95.4861557083677
95.5662628278234
95.4858434479208
95.455571682015
95.4578163450338
95.43845572222
95.4080588198059
95.3366874991155
95.1819592341388
95.0298781983798
95.0064818992794
95.0544437040933
95.0376416081546
95.0730498066947
95.0734800063435
95.0929794728491
95.0732139701949
95.0148047909247
94.9987536192629
95.0029034104138
95.0606835189251
95.1781497870608
95.1225677063022
94.9989002552026
95.0312581001657
95.0859107325813
95.0145356050653
94.9885523490312
94.9609139305091
94.9601136737811
94.9253435797204
94.8972210376049
94.9415614790666
95.1441946614022
95.2217185922654
95.0915781493004
95.1134592889436
95.3127191071436
95.3317210320984
95.390957548287
95.5972074232937
95.687191892082
95.5588813620872
95.4462403336157
95.3186467498395
95.3136800132
95.3457195686643
95.5071810038855
95.6172497004511
95.6628077335123
95.6401700620322
95.4805173843261
95.3759313221745
95.4634917847533
95.4708565560575
95.4171197171336
95.5568823024004
95.899219713697
95.9936484399894
95.8900078063515
95.7028115651463
95.743397594641
95.8707400179205
95.9213627832051
95.8209964126966
95.8637318958048
96.0054633988199
96.0673757387609
96.0919956254227
96.1680258582297
96.1289746836983
96.0885105429714
95.9387948781919
95.7608975320662
95.9038678344515
96.2169851163013
96.4048847502633
96.6603919238098
96.5791639938332
96.4012196798055
96.4019111393845
96.2391386384384
96.0383806222297
96.1883078788085
96.0939388086921
96.3436000562909
96.9667438436667
97.1729396615794
97.0011135005702
96.8768690653764
96.8367298926073
96.9935617596349
96.9019079019664
96.6709760328038
96.761061145716
96.9392039030522
96.6887755835777
96.9897630334669
97.6278961569997
97.8541293165698
97.5684885128368
97.2521657661537
96.9090905484889
96.7868588489348
96.7791242208306
96.7556649784182
96.7336056839375
96.7255228162259
96.6327229977799
96.5013751411016
96.589726698098
96.8074586806283
96.7091199105541
96.6076877521683
96.3602831276123
96.0395599898781
95.7607864346084
95.7580920724585
95.8443484300407
95.8048055613476
95.6510064344343
95.5554478454027
95.5351144816889
95.5700190660893
95.6061219877091
95.6602199581749
95.6978617846095
95.7121866502546
95.5718623501622
95.5466204021302
95.6056794027002
95.6602413128942
95.7054434916678
95.6750316395215
95.4953715829451
95.59793533464
95.7914602139655
95.8384451988348
95.7735322296662
95.6539406506402
95.7129621245727
95.9207013125993
95.8889758892115
95.8033927940979
95.8151533666627
95.9974998146087
96.0530519409523
96.1560294647183
96.1491637105982
95.9425031504099
96.0313618622514
96.3335186456721
96.2170942564972
96.1133273753997
96.05488005537
95.9846085169478
95.987435955464
96.0983401474977
96.3498634705546
96.6350681081137
96.5904522152924
96.458992376261
96.3093455899885
96.6322423099955
97.1540857747363
97.4869160366202
97.4158670853371
97.1131501758664
97.0760563643162
97.4133086016626
97.4510410280044
97.3791127181992
97.3702920640241
97.4646274064388
97.4041684461228
97.2321783482105
96.907521782115
96.9365497339272
97.1942346293962
97.3560870611653
97.1578655809562
96.7952225512128
96.7148983963902
97.1330550432252
97.0815546067365
96.8619538296905
96.753153187619
96.6229708892703
96.6402054885193
96.7820290663137
96.80199806294
96.9902429091848
97.0316946786688
96.8098021217614
96.6461937016204
97.0024491509515
97.0496739876106
96.9423279833512
97.0788264858028
97.2458976937663
97.1537013971393
97.0726174317364
96.8236181210853
96.7537141888571
96.9056720844614
97.001646216652
96.8557303267641
96.9781169138993
97.0264985579449
96.7869416981501
96.466668903066
96.5422853662596
96.7727480634937
96.7584636950764
96.4977740926588
96.5809767085937
96.6386008706967
96.551155002828
96.4753595213657
96.43805701773
96.3959898252858
96.4599061524789
96.3557370325853
96.1987161174936
96.1671278853792
96.1428462673438
96.0384205400227
96.0264073520793
96.1337913610879
96.1491005042455
96.1137038460736
96.061664728308
95.9480395355104
96.0282792584822
96.0842305256466
96.0046677475094
95.9794590127685
96.0804678381639
95.9798986733102
95.9079994841059
95.9407997740182
95.9617811291902
95.8540596036135
95.8844571926413
95.9631907499533
95.9547708582708
95.8845332609936
95.8525373206741
95.854136063589
95.8637372347396
95.7819067961474
95.7064305242999
95.6890301527446
95.7329046446201
95.7781782712759
95.7944954338034
95.7591572748849
95.803684256682
95.7623509742101
95.7326699010448
95.7414313232248
95.8250913572652
95.7953294819271
95.6715600624799
95.5267936315816
95.4907840833794
95.5293921297189
95.6883820041942
95.8461280736423
95.8152769488594
95.6654665780043
95.6199784106567
95.6113748087255
95.5089607206954
95.4150598982507
95.5196970788066
95.6546683201467
95.651001914979
95.6875122306305
95.6836690123935
95.6618404422647
95.6885918499216
95.725249520489
95.6648072722032
95.5655168950535
95.5441007025366
95.58670002292
95.5997212954687
95.5338231086219
95.474826508036
95.4896722628467
95.5477624962961
95.4782577076174
95.3512192658662
95.334559573486
95.488310578976
95.6693659590341
95.6353654660008
95.5247809232964
95.4907914495934
95.5777513153127
95.5456916006265
95.5025917046352
95.3439480212908
95.2694844133508
95.2513046539532
95.4513131324196
95.6412146143319
95.6341113325494
95.581638674594
95.4431445435869
95.4336770883568
95.5101609881058
95.4807869065275
95.3654497805602
95.3393480277078
95.180390686692
95.1951725778711
95.3639523614918
95.4727199806765
95.4539562699338
95.3570483462768
95.2972549189319
95.238233272331
95.1908876775248
95.0359878514456
95.173135486282
95.5995865835567
95.6051974916945
95.5557617379966
95.3794401567978
95.2413962394379
95.05539164485
94.8920458482731
94.6885335314496
94.9904602821695
95.3855285923103
95.47041451228
95.3112987426892
95.0558200638195
94.8111247099911
94.6640464076333
94.5872850768946
94.4737893479952
94.3788341309934
94.8491750578659
94.8959842931775
94.9862486896083
94.8532778389126
94.4666491877328
94.1138212964935
93.8874700021124
93.716356957031
93.9626534372665
94.2552289013087
94.0316400232837
93.7727678565873
93.3672757174071
93.3379512868351
93.2893670458583
93.0751038426148
92.9775358686936
92.8386949491225
92.4388417257712
91.7826943909521
91.1031904323569
90.3037784205945
89.3930598655097
88.547254423491
88.0988018456762
88.7326557607011
88.7948736663122
88.3941850060425
88.3566603822786
88.3779124663913
87.9980188417738
87.3321503168174
86.6533028592892
86.194077645275
86.3760101798131
86.5981735602348
86.3359835738608
85.8394279907065
85.254257661385
84.708337193059
83.9919869653994
83.4550611886464
82.906045060709
82.36103255054
82.2926927611606
82.5018451346812
82.4683328118125
82.5276059285634
82.9135055453197
83.635932976821
84.4853125902745
85.3405554831357
86.2039793659389
86.9845716402124
87.6991601855555
88.3541953166388
88.980360061768
89.5079599686047
89.9622804508693
90.3639930655432
90.7364928301422
90.9688166969517
91.1787741357645
91.3419111087612
91.4300696646139
91.4515267826471
92.0117060408061
92.3938984686096
92.3198027035544
92.3078018419231
92.5804804718795
92.6040634084433
92.4995401442037
92.1953368194797
91.6118282833823
92.3536309748646
93.3660526424063
93.4423516447371
93.3964074163923
93.2445904054805
93.1115423568506
93.0184887171259
92.6930264367088
92.6426487236585
92.7123607023257
93.3097916422669
93.8490829577143
93.8442696711404
93.5377721284203
93.6456863008709
93.7159653963979
93.5373959377893
93.3840313018344
93.3547055728018
93.3358132469061
93.4589376974273
93.893845546467
93.8714592803813
93.9491834405848
93.8973425686647
93.6182883416736
93.3657292739602
93.1901240097942
93.8473700393663
94.4616215865883
94.3656138519438
94.070060512719
93.8741103928377
93.9395867451057
94.1763753583329
94.1836097811647
93.9100811517573
93.929030081637
94.2034661521746
94.3874778488981
94.3833185219815
94.222340869279
94.1188608445277
93.982692038073
93.8058464549243
93.8511667907931
94.0165652800892
94.4138500145397
94.4497703596063
94.2598343561096
94.0833883844843
94.1373651014582
94.0781738602036
93.7926351042078
93.7142679100001
94.1877741727415
94.5066763057786
94.3770026866942
94.2602800333316
94.1122494479751
94.2209133075744
94.2682735240339
94.2047633793518
94.0721729423328
93.9579474568204
93.8573039176892
94.1789398017859
94.3229052282401
94.2118942289981
94.1577146315294
94.1657578601048
94.117178447546
93.9959334287662
94.0167086174746
93.9066899485217
93.9998745376163
94.3559009586953
94.4209916797075
94.3684629512947
94.2756483569564
94.2829426134639
94.272878103528
94.2573708982415
94.2966454568109
94.3017498114201
94.1561772997427
94.1852245815899
94.2491600953274
94.3308488652534
94.4784256926129
94.4363152617472
94.3439442521303
94.3659133501508
94.5357400332219
94.5471988781284
94.5082812264545
94.4390217523801
94.4053205438732
94.3640717001548
94.383011848985
94.5234197218711
94.539534513014
94.4910182964332
94.4544475212701
94.3792467569569
94.3577000319608
94.5138226942788
94.5964683975022
94.577880081132
94.5488085760841
94.5478096303624
94.5343477620076
94.5321461432329
94.5379506129232
94.5168702559429
94.4713460404186
94.413714346057
94.3342106252278
94.3932419225393
94.4937663551617
94.5470337799582
94.5540619437663
94.5370594099722
94.5146974454308
94.4940547139025
94.4672719256427
94.445714866884
94.4335760363844
94.4101346367153
94.4234236320946
94.464341313441
94.4623106326907
94.4635606904266
94.4531019264095
94.4120267025258
94.4003647726256
94.4090386063046
94.3975753515627
94.3757043842345
94.351813880491
94.3356000204668
94.3320815978008
94.3204802219477
94.2965889492518
94.2829510052047
94.2680883169762
94.2371177439178
94.1962786090897
94.1727261017717
94.1513750638683
94.117726333655
94.0584270647813
93.9957782266632
93.9147920735246
93.8380737429377
93.7913993865515
93.7223661434869
93.6295024533113
93.5598820122317
93.4812997651438
93.3921179703315
93.2932686415957
93.1802373052406
93.0613105350896
92.940719285475
92.8246483787471
92.6979923721527
92.5499837873591
92.3999958812354
92.2540062963174
92.1098484784199
91.9431521221904
91.7896034136889
91.6279365852443
91.4648359238199
91.3055087015203
91.1238694543745
90.9271657386961
90.7592238505688
90.5804348616691
90.3939000693209
90.1919011076185
89.9981268736888
89.8211976527282
89.6354716673093
89.4267287995011
89.2178478026239
89.0108945885831
88.7925775472563
88.5507928673837
88.3109810885164
88.0552592677485
87.8097664275152
87.562956817138
87.2885852697712
86.9910647735829
86.6965026767644
86.4084722624865
86.1000113240312
85.756578016083
85.3991257324219
85.0498096458096
84.7167804382682
84.415296326794
84.1159733304419
83.7799239746335
83.4553023430966
83.1386961350545
82.8352424706069
82.5542858671079
82.2868305424707
82.0251420058996
81.7729903931645
81.5143533746085
81.2804468128671
81.0452097869748
80.8066954892982
80.5675008172447
80.351168494868
80.1417755630274
79.9344794618959
79.7287754354468
79.5470953420172
79.3675409777078
79.2069134225439
79.0721012215219
78.9329853605162
78.8028295039918
78.6911396509289
78.5689658895185
78.4755667553722
78.3952747964693
78.3311761202861
78.2599318941621
78.2030256349397
78.1640262905116
78.1625146793748
78.1604493322293
78.1615061558865
78.1775896623068
78.1926582651588
78.2190480606378
78.3001621175392
78.4034521190028
78.5515891352687
78.7260318654068
78.9119592262296
79.135642141261
79.3845154096802
79.6336771528809
79.9183655924833
80.196570903794
80.4716894013315
80.7503519646387
81.0496233627155
81.3546841461843
81.6806987276162
82.02616141754
82.3744255525306
82.7119185482025
83.0751605894088
83.4699075381651
83.8623635792545
84.2306204564949
84.6210213607356
85.0240581872614
85.3956828918676
85.732628962584
86.0809865996591
86.4254987456913
86.7171080294237
87.0033851975041
87.2780234382866
87.5378176025702
87.7635343497843
87.9151379381832
88.0733261051635
88.2355817682336
88.3542884016393
88.4709670345452
88.5786644891658
88.6393096414622
88.6985147053422
88.7577604080181
88.8504520021502
88.9546185888619
89.0075415902191
89.0509401775105
89.1214272535519
89.1875007691802
89.2446015194029
89.297610309228
89.3488407731822
89.3976635788826
89.4777530358824
89.5531296485504
89.6021549176427
89.6396409047503
89.7385343873686
89.8581823351943
89.9378702677686
90.0048925932365
90.1450364852045
90.3085962222635
90.457625215525
90.5740424266488
90.6648439039073
90.7724156403354
90.8962957622291
90.9896797176392
91.0502099457544
91.1362358709448
91.2588475174892
91.3446367659475
91.4057522582979
91.4868673365512
91.5554708091434
91.6149776427397
91.6709424561505
91.7061488894628
91.7571936931701
91.8277688662291
91.8855289579108
91.8990591532671
91.923188945123
91.9664270708739
91.9997697699964
92.0349649321912
92.0842688184333
92.1225700787571
92.1530131771441
92.1690554758314
92.2309522786357
92.2847285482792
92.2831434872789
92.2692003739509
92.2979608539173
92.3197945739668
92.3502922926117
92.3699355018908
92.3837432106845
92.3668553684423
92.3688052465395
92.4360256048974
92.4740654227643
92.4669844289753
92.4951210800298
92.5305108775917
92.5511582140194
92.5357850410576
92.5211837486796
92.5417919400374
92.5895346474998
92.6363515616481
92.6342018182827
92.6262118170542
92.6478588488744
92.6600507842876
92.660906534619
92.6631753885029
92.6597986219943
92.6745804056554
92.6951808692748
92.6737252183678
92.6488077433536
92.6605003874037
92.6739723397251
92.6657871506462
92.6795439363939
92.686061252866
92.6879246673392
92.6825013914111
92.6845797120864
92.6905068430391
92.7026139781391
92.6958219871612
92.6696533598841
92.6187910026621
92.5947065991885
92.6319007264649
92.6742396179633
92.6640379925687
92.6477312930708
92.616589551239
92.5913528349918
92.6100157844492
92.6026492605417
92.5748310400057
92.6023695708329
92.6264642259641
92.5936320995826
92.5532956025937
92.5169328889094
92.5030452923714
92.4922701701585
92.4628402766362
92.4349401124765
92.4273090806439
92.4431398438949
92.4286869686836
92.4120437375795
92.4221999488348
92.3823564899501
92.3586610312496
92.3428967328744
92.2847362236627
92.2731212496758
92.2398629105648
92.2242192128481
92.2411690005593
92.2071010364127
92.173882170775
92.148880121392
92.1026342908353
92.0742482177362
92.0340156890154
91.96776020656
91.9384020043119
91.9000607344896
91.8280951731401
91.7953189732174
91.789496249454
91.7434337502897
91.6831798388526
91.6431821901554
91.5959783423496
91.556759312555
91.521336732599
91.4537170185667
91.369472554213
91.3035476781133
91.2473096926442
91.181250347376
91.0737224479314
90.960521672106
90.878151477839
90.8439408180427
90.7888977171213
90.6609896710174
90.5220644082475
90.4634161497986
90.3997862755944
90.2673411096713
90.094687573401
89.9535205089675
89.8083864046691
89.6634983492534
89.5452778576553
89.4141036644292
89.2509774556012
89.0815556127678
88.9471319457514
88.8105002507868
88.6496628334391
88.4841567786903
88.3174249325479
88.1445610055155
87.9569157028957
87.8109211818462
87.6546112700738
87.4750655477507
87.3121804746586
87.1720586246738
87.0208651147853
86.8157367267149
86.5917033763544
86.5135680222426
86.474177703683
86.2914365983997
85.9513831766636
85.6952059221893
85.5216079011274
85.3538039059996
85.1152781069601
84.8523251131766
84.4376685714949
84.08010336166
83.6876357363115
83.6414928032038
83.4867473229137
83.0655646110042
82.715888208616
82.3695274931
82.1075990958252
81.8149105157341
81.4988346679018
81.2716022863732
81.1133501368491
