1798
3999.43349933624
650.420452594757
1
128
4
97.0049005749836
96.9558786077705
96.9459180532554
97.0110467720329
97.0440436469771
97.0997322032845
97.0817218281664
97.0004246789139
96.8418243109272
96.9021878464762
97.1183526960209
97.1876122129509
97.0552399050114
96.990918604432
96.8181304606053
96.8573587239083
96.9486102188463
96.9973919841991
96.9508722038466
96.9835393016874
97.0101779642688
97.0490030853599
96.9335742668485
96.9404894043703
97.0806474689409
97.1156074790263
96.9305002876578
96.8298322711505
96.9578512419858
97.0359853488341
96.8707975425836
96.8589911674572
96.8897284412903
96.9671027226563
96.9567561975534
96.848315530385
96.6855949269364
96.7511137907668
96.8703886090114
96.8553847185452
96.7734215780621
96.9223078809903
96.8821596499855
96.8248876314223
96.6279842724128
96.9007656237827
97.0666826487903
97.0053810296861
96.9709174840122
97.0058587042105
96.7495089668297
96.6986450596785
96.8608200477685
96.7157124979219
96.8131496510151
97.0773854758284
97.1284886800618
96.9570010555542
96.7002533041035
96.9991170899886
96.8248036094269
96.5972029639687
96.8143801860875
96.821062879947
96.7914725488456
97.1113436825799
97.1111583011023
96.8932776253068
96.811873717643
96.4637060984446
96.7554626742524
97.0751146492507
96.8657701235378
96.795888189269
96.8654659459592
97.0734901640871
97.0362818110201
96.818595947381
96.1346618215637
96.3914609200452
96.9833045119958
97.1869287422319
97.1456963939963
96.8976459580986
96.8097427828402
96.8707757436167
96.6752720616708
96.6743856793158
96.8837241127399
96.7714518953653
96.5498027799963
96.8366160028791
96.8721868618505
96.9152851209255
96.9391656419026
96.6874890401415
96.6942691490291
97.0538186982494
96.7911295995011
96.8968996994795
97.0732239907436
97.0977626595765
96.973163679774
96.8212631368112
96.9250639926567
96.766877030931
96.4069761112851
96.7253622685265
96.6929393128158
96.6013397838628
96.7517271733609
96.7812120664064
96.8027456204929
96.8882041524858
96.8631861837441
96.7855510055369
96.8746444256549
96.7597252641984
96.6023235663333
96.8370639284204
96.921680088758
96.8632113686498
96.7226354745721
96.6589758995753
96.8306047522941
96.8562641253539
96.8972627355045
96.9496364238078
96.7509659089456
96.6575636380674
96.7038653369859
96.8854259673309
96.9054090307755
96.7719563235686
96.5259743799999
96.8340408019943
96.4857238847788
96.1719420243481
96.5300616756793
96.803052160591
96.7558578656553
96.3974343451753
96.4245171655915
96.412372324765
96.7855880098689
96.932795929529
96.6713911776893
96.5577656450679
96.5797177135155
96.6852426122298
96.6815401941402
96.7000241267343
96.8359343206897
96.6844855280855
96.3594013954089
96.3519402279487
96.6134215280511
96.7977973244038
96.7217427132687
96.426730843587
96.4308415941296
96.6916067523153
96.8440156713516
96.7881112375886
96.8235768045386
96.7949514526577
96.4456169955918
96.3985299708101
96.704205395384
96.7185296546465
96.7946407556565
96.628111638782
96.5711212989992
96.1993284785792
96.0220676076634
96.1648059745593
96.2068975990807
96.2101088856754
96.3162337050915
96.3939211714133
96.4137230341506
96.3900941052877
96.3330021292165
96.3112563864503
96.2116542343301
96.1649626589754
96.1497302011117
95.8957343943709
95.4590007222839
95.3568363108231
95.5944044616514
95.7625136164004
95.7748392253059
95.7237346234049
95.5961170925952
95.3845284240993
95.4926801299505
95.4896980965094
95.1277057737617
94.9469518545056
94.9829327092341
95.0044617835661
94.8271398750948
94.5894918322837
94.3666841034773
94.1861378065234
94.0851075438
94.0556653905643
94.0189338179736
93.750277011212
93.5210615883947
93.6068768821585
93.6095113329812
93.4034596814584
93.3920146892948
93.3210579673976
93.0603183107477
92.8856412497852
92.8976819067245
92.735406523061
92.4984032940927
92.2230007662838
92.081723048522
92.2115871359707
92.1244892376743
91.8828336468524
91.7536438089995
91.6784067983327
91.5975132692241
91.5633763922183
91.3665372976414
91.0546273769123
90.9135796849078
90.8670301270306
90.7792265762923
90.7421180394793
90.5984401008921
90.3892359026086
90.3066425309843
90.2137605718542
90.2131869337261
90.0906094544056
89.8536522308766
89.5894061470286
89.3545715728221
89.2240992529243
89.4369062676398
89.4754148003353
89.1188164253605
89.0604514688878
89.053084723961
88.7237352448146
88.6707098154595
88.6919877895245
88.4788276860861
88.2075591755318
88.0912328310999
88.1236499392023
88.0693698037101
87.8418594329647
87.6481592472271
87.481941412563
87.4923416133713
87.4386210508333
87.4021794385693
87.3295811927161
87.3095345886211
87.3439089657815
87.2694034810198
87.0517316996944
86.873779484588
86.8996555249451
86.8989442416395
86.8284941885127
86.9490808846005
86.9041169496255
86.7174793662648
86.5535029300128
86.4166562754847
86.4145033559384
86.4862484039434
86.4736160291015
86.4098180286457
86.2634636514287
86.1109624382985
85.9564300605741
85.8485083721325
85.76585215806
85.7333751307505
85.7510030643702
85.7022679614475
85.5560281945011
85.4044344619694
85.2793957073831
85.1814811123776
85.1448989388539
85.0916872387288
84.9669670279288
84.8502655479325
84.7505134348518
84.6857702320382
84.5587138483457
84.3644486362738
84.2363640195831
84.1716290233553
84.0061540148655
83.8221066397693
83.7433711528605
83.6501325324996
83.6140088493362
83.411269428886
83.1012798587551
83.012791746111
82.9411978486596
82.7590125312281
82.5187616328096
82.3959608638435
82.2984367198246
82.1930357278924
82.1292838891753
81.9566973519623
81.7601127530444
81.7410423031755
81.6204103813999
81.3181357458932
81.2535832801832
81.2526134579425
81.1160020698476
80.9454229312613
80.8341341527019
80.8250949585776
80.7439881743508
80.6109291046935
80.4635057794956
80.4090194918009
80.402097138794
80.3905025871082
80.2759028144432
80.1633577213603
80.0508004853058
80.0251700849745
80.0851740619179
80.0735046165923
80.0507065208475
80.029948926257
80.0564867351102
80.1746820734164
80.2086424752282
80.1273564852916
80.0259579208829
80.0475296042949
80.2275604609091
80.2884234332048
80.1707245905329
80.1466100858368
80.1779175329899
80.3125942138354
80.431396759607
80.5160949779815
80.5384414789597
80.5070432940869
80.4233147156714
80.6036801928994
80.8500140173291
80.9464852474268
80.9676034056961
81.0507579413293
81.1511104652025
81.2403077908086
81.2389281491603
81.3953228853732
81.5133378912327
81.4333863745548
81.5657949024976
81.8646342114924
81.8915610155095
81.9476718948971
82.1722183460617
82.3211820849941
82.1957311202298
82.3111381985786
82.7402004446228
82.8327311955575
82.8401869068123
82.9467618540456
83.085488376763
83.1223514813064
82.7868686489506
82.5949226710958
82.7791922923981
83.0204295116738
83.1554394436659
83.2708801676679
83.3784272017529
83.4168811089883
83.3483139074117
83.720763382872
83.7730436348065
83.7229027232551
83.7768513974952
83.5718916632597
83.6120814884855
83.8603734697122
84.0626391974109
84.0663397153931
83.6610340870714
83.3112489547602
83.1458919824297
83.4142837178416
83.7998344168436
84.4999085356988
84.6058514978754
84.0231676642778
83.6522858896285
83.7116333315921
84.0434784570343
84.1746323276597
84.0341190755959
84.1281886499107
84.5382560636947
84.4985117598212
84.2640340427702
84.6705146123136
85.2604475787347
85.3614197007386
85.2073854258104
85.4115384246354
85.5128578183115
85.618490640328
85.6667359784526
85.7127996329129
85.8584242297846
86.0333662413345
85.7157096359191
85.6586178761984
85.8944902574514
86.2189094294653
86.6866873004698
86.6452682836798
86.184653149743
86.0250846978222
86.0953091208485
86.5188899693179
86.7211852972487
86.7936357593651
86.8738911563565
86.79054773425
86.9252007420757
87.2760877036411
87.2385026840426
87.4552085456832
87.7083392655266
87.5154237979907
87.3576529900059
87.737823565789
88.3291609924848
88.2679828997497
87.682211000826
87.8148151155161
88.2682116476979
88.5029889253325
88.5771388404162
88.5703032255804
88.5389315526451
88.6991933482158
88.7691201033221
88.7768461823025
88.6626923706667
88.6232073215914
88.7918659392723
89.0578761082739
89.1788212404428
89.4707669754621
89.4698177717362
89.1923689001524
89.26745207795
89.5815131838965
89.6450125031036
89.8391545255458
89.8203922829707
89.7314445383077
89.7603795994786
89.9909816787543
90.0412401725404
90.1220188862561
90.0905211342534
90.0154125252009
90.082031710887
90.2940106171748
90.2350181082591
90.2698273097768
90.4701319527036
90.5958589391582
90.6089039253587
90.7924714430276
90.8487219841615
90.8699508954554
90.8205652746856
90.924042738069
91.0021576207124
91.0095335834738
90.9682033160315
91.0454252106235
91.1745972896818
91.3146386011928
91.2711482835698
91.2527716692337
91.3188737195446
91.5106129762538
91.5539269186712
91.5295142335751
91.518633505639
91.562349858306
91.553418186202
91.7111715519538
91.782219265561
91.8192114593946
91.8128217277593
91.8804738320304
91.9620378582106
92.0882404254884
92.0320070405566
92.0080295427485
92.0505285001785
92.1309964784188
92.083478054072
92.0913386249325
92.17148858096
92.2316827760683
92.2317089227513
92.3556711500753
92.3747187847481
92.4467609870534
92.469006404681
92.4841380991916
92.5203354272413
92.5479794086918
92.5009461233901
92.6318447185604
92.6780677303094
92.6519642441927
92.6258516632083
92.7114384171742
92.7631611006934
92.8193300148269
92.7659399470832
92.8077923024471
92.8237354627753
92.8569477056178
92.8957539033324
92.9760377224015
93.0106790840196
93.0419362058046
92.9952884169884
93.0510599680222
93.0811646244435
93.0873703777556
93.0817490108903
93.1375208026459
93.0868339202544
93.1315523762825
93.2360493158101
93.2943527007314
93.2570628290994
93.3209929190308
93.2719208275096
93.3193510537876
93.384384677583
93.4345491447401
93.3898493697181
93.3545962066991
93.3209556984261
93.4381280794982
93.5474013593153
93.6586539086373
93.6189106132023
93.541059879729
93.4804821127503
93.5747514030596
93.6563904209839
93.7052080870048
93.7031272016507
93.7450959390352
93.719353931922
93.7955645283497
93.7691336194883
93.724176034933
93.7193080093987
93.7552036611286
93.7504074956691
93.796081538661
93.7646538440598
93.7804713270089
93.7949357838037
93.8498324662698
93.8637733508164
93.91463307334
93.9026344778746
93.9158185538668
93.9305444884429
93.9587162959456
93.9121438056905
93.9381800549365
93.9525879416118
93.9931948040519
94.0164657741245
94.0972874296644
94.0503346564859
94.0159094996838
93.9989978980668
94.0195092130184
94.0297992290819
94.1038543770715
94.1223809171751
94.1327324541372
94.1114140909157
94.1574190360044
94.1833580030643
94.2151543810699
94.1993544020805
94.2155610477299
94.156580309772
94.162293739681
94.204680721488
94.3110661530607
94.3035313485209
94.2628093132231
94.2294377009683
94.2555211918588
94.254763362646
94.2876253398145
94.2972843965359
94.2939471596362
94.2764601400248
94.4053727853629
94.4531080045702
94.406998049773
94.2775021043085
94.2184726507132
94.2545476004218
94.3497520831516
94.3904643697716
94.4427046712919
94.4241017731762
94.4078039581246
94.3660943152236
94.4075129172795
94.4507365201203
94.4838017151415
94.4819111348748
94.4834369687521
94.3923325583007
94.4484836373036
94.5623569808002
94.6065057528706
94.5461556173906
94.5254213528517
94.5030905261592
94.5112542433607
94.4972912812135
94.5217909932101
94.5681846612602
94.6598139175829
94.623646867292
94.6194854883197
94.5925909386734
94.5447899102229
94.5926693056961
94.6950111678612
94.6404461225043
94.5846849735401
94.5749682148725
94.6096003042797
94.6135407657789
94.6418021624264
94.6392178581073
94.6655041123072
94.6503891335725
94.6601168074904
94.6685403469587
94.6785680926606
94.7013508954308
94.7325674869895
94.6642131186126
94.65413671181
94.6717883929214
94.7020550728493
94.6673524499281
94.6871071558457
94.7019958598851
94.7289698109385
94.7279809946057
94.6995399073373
94.6798842299705
94.787117241071
94.8030498191549
94.8146091282348
94.8157878145306
94.7816523544881
94.7155477064665
94.7159609229114
94.7639805649434
94.8206837768224
94.8079669795195
94.8144919216259
94.7613044830656
94.7313737113261
94.7351703080211
94.7802722292726
94.8028493980731
94.8304332309972
94.8155892206564
94.829471562971
94.8074253025227
94.8272280115506
94.811560879247
94.7909885171006
94.8096127069534
94.8510313828692
94.8382287840739
94.8541606196907
94.7848656628877
94.7280542994528
94.780817578488
94.8516276605673
94.8097037244629
94.7826604306342
94.7462708228758
94.7201175439938
94.7388837082647
94.839659307233
94.8528955505033
94.8286861145915
94.8052268406471
94.8108118879912
94.7895843841262
94.8653620557027
94.9625243084684
94.999095338686
94.9056116739576
94.834104455096
94.8498310591099
94.9158872200643
94.9193540114179
94.917631066013
94.8846295433908
94.9424447039012
95.0022716944139
95.0170605767135
95.0098969893662
95.0781970971286
95.049388147609
95.0534501852029
94.9915359665731
94.9010140999013
94.9461279431412
95.0549245291051
95.0581348045238
95.0321668292976
94.958951357241
94.9987510705528
95.0490371658312
95.065993672783
95.0738898906804
95.1323416712519
95.0779236815891
95.0775968614006
95.0726131996412
95.0425772839298
95.109297202209
95.2757926444935
95.2732303234929
95.1496735731365
95.0517469851315
95.1816008550642
95.2864291633379
95.3058992854664
95.2479733644877
95.2890864891857
95.2745236165283
95.22445561327
95.1343961487751
95.1901204136013
95.2351877268537
95.2219226222593
95.2144430469802
95.2504912908392
95.2348681038956
95.2706860090235
95.1719355562016
95.1271076092171
95.1761660606141
95.1997491287532
95.1870923595161
95.2106122286891
95.1779307903178
95.1575338489678
95.1632639314581
95.2711230203574
95.3153111630116
95.2847376349272
95.1436230081741
95.184346236151
95.3680809636333
95.3871690144177
95.2531172388884
95.200438332799
95.195234706967
95.3224844796519
95.3717325508223
95.3072125282009
95.1171732764887
95.0841136199654
95.1828772847739
95.2191302666832
95.1837529338583
95.2028794910481
95.2667193862194
95.3549138370026
95.2369764949393
95.1705540175924
95.2149657952016
95.2241686989161
95.2807553733105
95.4006369213085
95.3382346253618
95.2859612041377
95.1683462971113
95.0956454946006
95.1306046435777
95.2304707301099
95.3181768426113
95.3691717609529
95.2466672597284
95.1162347103282
95.1660909680759
95.2673417329474
95.2240347050013
95.1507962898569
95.0829312013969
95.1366436955313
95.2123078632001
95.2284266458692
95.185293943199
95.103551007522
95.1763256929057
95.2938832687537
95.2709248026551
95.2636729568548
95.2351174045703
95.2439627922971
95.2554536301599
95.203685497854
95.1094263560165
95.1599654822607
95.2047833895691
95.2032373480892
95.1871803798932
95.2124291185056
95.1639179668221
95.1677970206721
95.1684476198886
95.1254905782647
95.1104164862105
95.0912174265206
95.0695024749726
95.126981647896
95.1211090847078
95.1725765938563
95.1811426922606
95.1325019281215
95.0733065790675
95.1291836804485
95.3325408629947
95.4060159825821
95.1758670502786
95.0210872614621
95.0785104309834
95.1538936389282
95.1505920052693
95.2108690780657
95.1650019954896
95.0968833555119
95.0276270008372
94.9109128569134
94.9583363826878
94.9994805688932
94.9737355528174
94.9343490074763
94.900005592081
94.9557161377406
95.0280984344075
94.9305381666547
94.8804420910963
94.9374485442311
94.9418363781437
94.9009741243043
94.8571769108125
94.8267927975142
94.7334556886147
94.7015992695936
94.653495374355
94.5941976566246
94.659551742905
94.7790819722051
94.7419254542894
94.6729346291652
94.6855331741108
94.7027050346101
94.6745131354332
94.7176084757747
94.7201778731149
94.7295968452477
94.7466713420065
94.7499505175678
94.720929136997
94.7251545217606
94.7619613736242
94.7532789081629
94.6885363912352
94.7897160033067
94.8495594488413
94.8705570395995
94.9072520986653
94.8432370972327
94.9517891714026
95.0289105714493
94.9720652065418
95.1166849910522
95.2472582086663
95.2099324935147
95.1112600377649
95.221553052083
95.3484434803596
95.2327466937319
95.1408087917357
95.500924119332
95.6116707896313
95.4461361762237
95.4209579933987
95.2586946397781
95.1697636213249
95.464734641821
95.582830353587
95.5649204908484
95.6223820771615
95.4952159356787
95.7332583260491
96.0571212638085
96.0750723138482
95.9682543557959
95.4853778921935
95.5118928608482
95.8888121285239
95.7770116279274
95.7476858840896
95.8827268129863
95.8415381633383
96.0552468383815
96.1102233414651
96.1061484544564
95.8559402432989
95.8408956419151
96.3504307389507
96.5001708933223
96.4061859901987
96.373444206568
96.4432758241432
96.4113497039586
96.3038652507222
96.5143874198697
96.5737873464676
96.5120205732709
96.5607053972098
96.5677420284981
96.450110605068
96.3944545428336
96.257951720642
96.5259473932234
97.1490849560247
97.2846204688318
96.6015873427269
96.7263167525635
97.1272348301945
97.1066268692004
97.0064647386198
96.9416597721655
96.8566137145581
97.3442069973931
97.5033627956153
97.2527708028124
96.7031903196652
96.317829824911
96.0690787378064
96.3848562211568
96.7175935442806
96.2893538172643
96.0167064696924
96.067657511533
96.0284067055949
96.1103814089186
95.9868168575811
95.9735026497644
95.8816678475904
95.6553927805576
95.5856245625729
95.4523359077016
95.3596599557832
95.4714459363526
95.5953285590578
95.6833078498582
95.4194413829899
95.272414591307
95.3155926178998
95.4510839715974
95.4155268130619
95.4129381337664
95.4485793741597
95.2622099154229
95.2209576487398
95.3894452831231
95.2301669374445
95.2976477249949
95.3631583543221
95.3406906726085
95.5036592320283
95.4504740421092
95.3489111836169
95.3604856498363
95.477278421552
95.6265832478411
95.5263594167991
95.4408801626407
95.4381476524643
95.5890024841655
95.6117726291506
95.5051146691777
95.6115952338318
95.8026583584023
95.9176362172384
95.6110163486131
95.4410056507998
95.7509006645044
95.9964245035636
96.0280040512665
96.0130893583369
96.3155982361806
96.2987509734485
96.1509975933007
96.1639818670164
96.2783774716704
96.4598541278675
96.524710045301
96.4775125359508
96.89724545732
97.2387643818532
97.3129443992732
96.8634666277784
96.7487120871619
97.154742663068
97.2708405080466
96.7668245942513
96.5353587277931
96.7702020919654
96.8196172691838
96.3790241473278
96.5246697784598
96.9510042812372
96.9546972687368
96.9976317616186
97.1016070032014
96.8888206397999
96.4553075218951
96.1628748074314
96.471377925109
96.5339898860782
96.5565497431207
96.3194873562266
96.1593124778042
96.6234421896399
96.9749390465795
96.7298674847562
97.0168870725009
97.2300063155405
97.102877499299
96.6349210224692
96.7297822134355
96.4975827052861
96.4573919732937
96.4279414567783
96.5575530555718
96.675532987174
96.6253051881
96.3985129100772
96.4026512003918
96.1170683820876
96.335024582663
96.3032738881144
96.1884047746749
96.268139930742
96.0097421782931
95.8866677282412
96.208433265565
96.0029281447343
95.8761834804691
96.065814833182
96.0202445641183
95.6834187577107
95.6453710949964
95.6869029324587
95.732603295663
95.8392214594854
95.8724418023252
95.7695069845373
95.7272264772889
95.614824082834
95.5503937370982
95.6316900313133
95.6814130754816
95.5473826703221
95.5448781653315
95.4293132113616
95.4106479182528
95.5101417912591
95.5358193008387
95.38034032345
95.4416921449609
95.5523315544191
95.5996860776767
95.5449730042945
95.498321081241
95.4389077531201
95.4661809333632
95.4700747271896
95.5002652292355
95.4453204485027
95.3675720167264
95.417551933354
95.4744750205128
95.3680417934365
95.3639717853056
95.4058977520307
95.3292278596577
95.1535576743141
95.1296277465424
95.2145314088675
95.3998536947265
95.4078953469773
95.3298583642025
95.2892591599877
95.2760727125291
95.2216496647279
95.2955466093363
95.2191355408892
95.2797053837095
95.2611705155368
95.0877355746938
95.0985535510418
95.1772784944185
95.2661147914178
95.2874888384145
95.3076288231707
95.3476792529883
95.1792853268386
95.0817202435762
95.1440799706237
95.1479795005673
95.1658955476646
95.1817001665828
95.230313128439
95.2484378391995
95.2850177044863
95.2543329867285
95.1899723345578
95.146253814233
95.1135319375485
95.1126527882412
95.1885322351405
95.2398201465576
95.1642165679937
95.0501813333099
94.9894651347861
95.089871172259
95.1274994557649
95.0010946996811
95.004342280302
95.0812422066046
95.129085741441
95.1342912106253
95.1293150482038
94.9963948832999
95.057224520291
95.0782210554841
95.1199672777669
95.0056795623796
94.9863825260277
94.9353312859876
94.9402678935003
95.0710575714639
95.0735995301369
95.0440404228653
95.0133678729652
94.9498153220948
94.9205057234345
95.0299363287381
94.9725903561362
94.9264469422509
94.7586343207312
94.833639556695
94.9308206287595
94.9489100212067
94.9356002668646
94.8130997402238
94.8656697182698
94.7681155490287
94.628141579561
94.6613387224465
94.6176308710315
94.7512582376801
94.7390771951948
94.7580264493066
94.6817519915103
94.6871323249782
94.5101967280365
94.4258145257022
94.320190078645
94.4633844969089
94.4435062331655
94.3918594771238
94.3497809321633
94.1591076185412
94.1056975381304
94.0304131209118
93.7632753373522
93.8133146888704
93.4606344302274
93.6361377360951
93.4819708730643
93.4225622979828
93.3052765550209
93.1633347358858
92.8614683853387
92.6155835338231
92.4526690680619
92.421633772517
92.4712536104564
92.1564295220152
91.9891984782496
91.7862937103577
91.6016462732571
91.4070226863514
91.2940529209154
91.2245896195177
91.0117004127261
90.7419549240778
90.5075002067181
90.4088183792614
90.1379887011928
89.5753180938029
89.1201382038828
88.8445375715647
88.5660073430956
88.0574087884663
87.4609016592087
87.0763378953176
86.6103288267797
86.0188933551907
85.3207925306512
84.9278012547421
85.0291518858513
85.3192341552231
85.5331636237256
85.5890343611419
85.7382345032713
85.6945706497207
85.6664863864448
85.5675455493725
85.3227905112615
84.911858147734
84.6987979834536
84.5991426795578
84.5963266924542
84.5728898949976
84.8515289904014
85.2885239044726
85.82239691653
86.3757451396138
86.9819523135813
87.5477914578394
88.0064210152534
88.3852799304178
88.7773980084174
89.1390899560212
89.4379981524032
89.6826307393289
89.892742493915
90.1023839421988
90.272767180827
90.4614997116585
90.4322607884018
90.438297161624
90.616417432825
90.8368142624295
90.8222041274913
90.7949127975843
90.8935708385125
91.1191691440997
91.1749351718098
90.9801594973024
90.6452975747637
90.7148789782377
91.0815765068547
91.3851005369124
91.2579949958673
91.2853665618418
91.3271318074508
91.3138370420739
91.3527522621071
91.1038416825427
90.9411130590147
91.116809396758
91.5286080793155
91.5895441885095
91.5873535877699
91.4892993853983
91.660877667314
91.6260888552116
91.5884767062407
91.5500513085247
91.5210810438797
91.5873482963612
91.5383455105602
91.7413565832906
91.7277164586146
91.8305335312607
91.8617460088994
91.6348731617607
91.4709707889693
91.6394362937479
91.8737734078267
92.0429111578565
91.9697257887628
91.8083849879781
91.8512838982061
92.0022491410037
92.0106519866753
91.9192256064463
91.767475154391
91.9087338561311
92.0234671820131
92.0227580712742
92.0207724475813
91.9572535767949
91.9153581032155
91.8550921207771
91.7011839787308
91.737345788343
91.794208992289
91.9434575754633
91.8185853407396
91.7302628620745
91.7012063124839
91.7696178219745
91.5230118616882
91.2975127087236
91.3226505785814
91.5170752530145
91.5868158374079
91.4225522750637
91.372179057981
91.3078674968559
91.3188136278269
91.2640558184922
91.2157164041132
91.0878695695881
91.0209981756934
90.9397645448628
91.1087789370167
91.069016086472
90.9827053817263
90.9689964005445
90.9805085427066
91.0095273289331
90.9122321443823
90.9069975112289
90.8433667038162
90.9718819645425
91.1451548208909
91.153050530358
91.2360695032093
91.2744713003722
91.2998677065332
91.3279058975368
91.4030038323676
91.4743486521727
91.5775278439444
91.5406639962141
91.6323168171222
91.7318954025056
91.8828209316368
91.9942504559497
91.9935741791412
92.0403900672763
92.1392765876838
92.2715968895521
92.2697029353432
92.3548829906245
92.4165303628994
92.432988248403
92.4430111090641
92.5595708897748
92.6591368836325
92.7066961261236
92.7587530528509
92.7508068515613
92.7219750284549
92.8283103539866
92.9773027774532
93.0393103184279
93.0244815790071
93.0017500212892
93.0588953936713
93.1159623474503
93.1041058493138
93.1019050765851
93.1316835110483
93.1166582297265
93.0618667517607
93.0692322878842
93.1842460292498
93.2279963948683
93.2401702579532
93.2355253704634
93.2381626532599
93.2481325113136
93.2622536089053
93.2668058537957
93.2531095663067
93.2711713704542
93.306535185108
93.3250695926449
93.3492484935578
93.3651897183937
93.3991374338359
93.4190984943605
93.4181666827625
93.4137788086175
93.3866606617721
93.3793041606789
93.3951987818476
93.3973656370406
93.3746324308321
93.3376819835423
93.3190493424926
93.2992841497729
93.2842435348643
93.2818616130023
93.2642088557404
93.2074367581022
93.1711320322651
93.1585874618413
93.1346545274156
93.0829092683638
93.0361910369175
92.987623894777
92.9526568591369
92.9033728179774
92.8191806572338
92.7622892298332
92.7045145577852
92.6239240039927
92.5732771261092
92.5301047761692
92.4526817176356
92.3693103029679
92.2954961543017
92.20253494647
92.0694033390387
91.9231562649775
91.8139366533637
91.7101781098605
91.5425594174669
91.3239472680781
91.1093103397081
90.9110351808013
90.7105645674806
90.4870198086185
90.2423523821857
89.9881837978433
89.6849534876071
89.3744711851664
89.0818799006191
88.7283849922173
88.3651507380273
87.9892489531753
87.5791062974828
87.1810757838028
86.7775428006536
86.3122228244742
85.8136744829261
85.3398646006373
84.8415449329257
84.3028383325382
83.787412854179
83.2872973193393
82.7537746757092
82.2204861875976
81.7097303035856
81.1552852533858
80.5928869129879
80.058281691046
79.5158578295183
78.9589094834683
78.4362691112668
77.9401890691635
77.4211066646998
76.91169069922
76.4201887101212
75.9193365407546
75.4208846394151
74.9641195873095
74.5456771316161
74.0876644696997
73.6484653349521
73.2425709490031
72.8061034605271
72.3500008768645
71.9401786736992
71.5745790169702
71.1671776780957
70.7142658072456
70.3203858502515
69.9674146045736
69.59174818114
69.2325004907388
68.9245490413415
68.6645659819507
68.488151834827
68.3934240813084
68.3394743020824
68.2788962588397
68.1743188788812
68.0425555069607
67.9355472589172
67.8876010501598
67.8733372333548
67.8524081271946
67.8050227174355
67.75008730685
67.7021985751505
67.6821701492433
67.7054311520664
67.7528413656006
67.852996115389
68.0204679599595
68.2629679485412
68.6194076394789
69.0541255940976
69.5340391619934
70.0230060413538
70.5178620609445
71.0472112435427
71.5897425365956
72.1143853863259
72.5851568616887
73.037963580012
73.5473291498965
74.1181093069392
74.6947858330853
75.2405630887341
75.8447574907475
76.5266719903016
77.1794643480008
77.7784864015726
78.3785274626817
79.0388285521301
79.6835802568316
80.2864257111902
80.9020688141495
81.4664292955042
81.9502798501253
82.3775492442592
82.7673549172721
83.1971795733173
83.6136610695129
83.9168749571911
84.1962863686853
84.4967752213895
84.7772017725312
84.9880497773319
85.1485537602332
85.3069129643713
85.4837364726258
85.6577663896581
85.7770284510332
85.9108394671769
86.0380646941813
86.0858188784929
86.1646841706529
86.2788128267692
86.3454444325571
86.3828060319163
86.3935055522433
86.3993029558731
86.436837578968
86.4444719460401
86.4721452238042
86.5614110591118
86.6052432058262
86.5848240657004
86.4120091392695
86.1985482337831
86.4064742066185
86.9324641221963
87.3453504323257
87.6273647328657
87.8738329874081
88.1011230204433
88.3078275927519
88.5012723455708
88.6713412494801
88.7600586537536
88.8867211302994
89.0784136730495
89.2391057418319
89.3687891976842
89.4545945218009
89.5281504842679
89.6176454014228
89.719878255247
89.8393258612677
89.9389155125049
90.0244300007062
90.0694815754361
90.0788645438409
90.1458521568593
90.235923096023
90.2886546458202
90.3774439591188
90.4547141714836
90.5090359852082
90.5494802970181
90.5729840579815
90.611642910346
90.6871051277357
90.7672853328388
90.8210523136064
90.8626589101064
90.8919089617262
90.8941901503441
90.9285378511684
90.9806915426718
91.0129007253083
91.0266703267852
91.0172757619068
91.063222308156
91.1385224886021
91.1655912872644
91.1965415037588
91.2293199507543
91.2468557698457
91.2274306322004
91.2363318136399
91.3002740089551
91.326087282271
91.305058139002
91.2935389558045
91.3501433892738
91.4123666718564
91.390186178496
91.3872918402661
91.4015192874799
91.3558268956149
91.3293578247505
91.3528959194753
91.291260153698
91.2174462917862
91.2140074266064
91.1918146794672
91.2135893255028
91.2172181956373
91.1076181719133
91.0517859478235
91.0468114069963
91.0785712035562
91.1072411813764
91.0988493920072
91.0916445222069
91.0222985029349
90.9646823577901
91.0291321788967
91.0654428852873
91.0572229689385
91.0674893512814
91.0769663157405
91.0673030436854
91.0947809409029
91.1183202645909
91.0848939805504
91.1404343621079
91.2330471882316
91.1633741944764
91.1229950886123
91.1441178014211
91.1181153639276
91.0513811180278
90.9843729465773
90.963492668665
90.9455088857822
90.8872336994086
90.8946623050438
90.9091745763602
90.8519073236624
90.8064249850714
90.792728106039
90.7577718474088
90.7325191897465
90.6980400754431
90.6383309917298
90.5710989404471
90.5320367086887
90.487819738515
90.4656819451329
90.4156073420862
90.3190993304814
90.2584451456291
90.2488011744823
90.2445500230432
90.2158168547211
90.1406550175031
90.0286464169407
89.963902227302
89.9640196149145
89.8750235737401
89.7571288520248
89.6738495378889
89.5711818270372
89.501427225169
89.4645231700436
89.4257550923996
89.4045852073538
89.3213220551715
89.2123812227137
89.1260935972384
89.0696105653737
88.9888007860905
88.8412057729396
88.6679335373516
88.645152121018
88.6140495162002
88.4561898424376
88.3719637513424
88.2506256731641
88.0323959031668
87.933175694141
87.8295203846337
87.7222311428374
87.6440592052499
87.4882501426111
87.3111879324546
87.2030746567542
87.0237806749124
86.8524334188373
86.7602165008721
86.6277464268921
86.4073389626043
86.3003236634834
86.2218031776956
86.0369295588604
85.8954855399297
85.8226033919883
85.7215379978958
85.5386857053793
85.2702441534366
85.159742090518
85.0781148940992
84.8667135344175
84.7133529617155
84.6516938420609
84.4620184809724
84.3011235416077
84.0868485105017
83.7803778338515
83.4487172364713
83.1078552902034
82.6305392534687
82.315125656702
82.0081690748345
81.4438604612173
81.2845839225489
80.8545951508815
80.2891256620742
79.8342761154891
79.4627965798154
79.1459083715895
78.9968671598091
78.8363790619039
78.621901232714
