1798
3999.43349933624
650.420452594757
1
128
4
95.2930282702373
95.2623298530972
95.3017705927277
95.3281986383353
95.3372671478538
95.270477098791
95.1562359255922
95.1714121011659
95.289434570795
95.3825647561658
95.29508336204
95.2778724593509
95.2925715672924
95.2940304335962
95.3338001596719
95.3477263075202
95.3024059801115
95.2592215053752
95.3136268131143
95.3390654304304
95.2765280350628
95.289123211431
95.3246813805826
95.411450404493
95.4234198250874
95.3935847917458
95.3433921000082
95.272926697985
95.2389009958771
95.2293589862287
95.275033972774
95.3412892733206
95.3206971854127
95.3983334231362
95.4284351863851
95.3334545834905
95.2968497085519
95.3633609222222
95.3961521391434
95.3793563596033
95.2695573250788
95.3099362661881
95.4557004020038
95.4793228022114
95.3559102423472
95.2794231535806
95.3893085048506
95.4886845921383
95.3927456328428
95.3339853686385
95.2956861109188
95.2884830222931
95.2346968704144
95.2681380342452
95.3491174889025
95.39962999639
95.4016408402083
95.3676159765075
95.2582968143408
95.2165095609608
95.2850422027099
95.3416610025543
95.355488135622
95.3019755237552
95.2777151260492
95.3574565182812
95.4797152409185
95.505021579661
95.3476833297919
95.4089317838613
95.4694474754779
95.4681657504129
95.3911223727441
95.3917229615257
95.4773911361367
95.4840030894227
95.4174694482426
95.2825574401478
95.1768140117277
95.2790592416759
95.4480428878829
95.500384423434
95.5032190325691
95.4843827681064
95.3902301048352
95.3156682321026
95.3614704693143
95.3932744153929
95.4133049101885
95.4689159132617
95.4728571677006
95.4650002291861
95.4833076913932
95.4273710431789
95.319899715097
95.4089418387063
95.5484640303067
95.5450569432461
95.4208368516702
95.3329735460811
95.3570710290809
95.5787725621835
95.6909503507977
95.5616082508053
95.4395508583868
95.3921206325703
95.4231817011841
95.4729505384111
95.3817630074874
95.2987761679247
95.3631076697876
95.377786114968
95.4214243816839
95.4928076720335
95.3813228110782
95.3654025820164
95.4446047510339
95.487483746414
95.4693034608521
95.4790006263664
95.4785510495482
95.4567547383312
95.4515910047928
95.4493875875557
95.3116996671435
95.3438221175921
95.4361119650817
95.3969365810814
95.3949419506485
95.5497642368933
95.4859357626998
95.4159356408858
95.3450952058913
95.2575035973573
95.2309760906265
95.3615777284084
95.4968921035842
95.6046754185163
95.6118992709475
95.5124962471619
95.3767739770208
95.4210751160982
95.5738369042511
95.6521225958797
95.4933997839823
95.4937635471313
95.5927894394703
95.5296844503206
95.4820471158926
95.5542774798647
95.5774870301614
95.4681788517075
95.4798397867189
95.5209494208328
95.4789789055337
95.4282058309104
95.5030123244431
95.6255827794931
95.5757157976455
95.3843257475238
95.3541883898281
95.401923331333
95.4510909885917
95.4707719192905
95.418848335062
95.4818224298938
95.5106404573995
95.4611000610712
95.3752540199438
95.4534264928346
95.4659663582326
95.4518764961832
95.4371633594108
95.3747500357151
95.3463450527472
95.3976713823866
95.3738664212865
95.3715392362537
95.433561543027
95.3899977893084
95.3710288567554
95.3649501478589
95.2868896680076
95.2565278762729
95.1443083727259
95.0681612673776
95.1104086031916
95.1541119047449
95.175330584201
95.2884076553936
95.1751584377491
95.0157919095702
95.0572217419726
95.0426144108201
94.9048515755821
94.9127971394852
94.9750261145186
94.863013865858
94.7555774417356
94.7442434749534
94.7183517353637
94.7612151194659
94.5747735238649
94.5701219673725
94.6097840965019
94.4751200588448
94.3864518200854
94.3495572605008
94.2486672626808
94.169592936015
94.0970231773164
94.0349092933127
93.9542857608798
93.8918584571505
93.8932953782517
93.8581083129675
93.7029768749159
93.483139840867
93.4731348161903
93.4395491361003
93.3898861247664
93.3643442859506
93.1981880878654
93.1211660814277
93.1804856901032
93.193402993674
93.0435406353913
92.9982880329687
92.8908446938362
92.7561449954898
92.7057336322439
92.7008379413076
92.543946178324
92.4910894203698
92.5405632516948
92.5433077772673
92.3162256108933
92.1689554971801
92.1598904062927
92.1729449981935
91.9973114280726
91.892379129875
91.8847060422884
91.7865358872374
91.710590945852
91.5945665339105
91.483738384125
91.5811458133849
91.566877227565
91.5030064283413
91.4252939155263
91.3238211923263
91.2489077665556
91.1389635723872
91.0099911251311
91.0360151905456
90.9716255739131
90.9471474916465
91.003498301292
90.9234211866513
90.7364844494572
90.6144269116772
90.4454477550946
90.4561397035905
90.5167557953473
90.4832483000266
90.3953479532498
90.40965977468
90.2964064984879
90.1522987324715
90.1349284351375
90.1433222754215
90.0258579282475
89.9414651472739
89.9041671122483
89.8526057598284
89.7800620235501
89.7870145571624
89.6576454890998
89.5910980571006
89.5259333591931
89.5292488002535
89.5489562770582
89.47284712355
89.2821934385287
89.1335943882868
89.1088945763191
89.1527520211221
89.1054593046545
89.0168161992481
88.9085067376296
88.7700492027328
88.727691535241
88.7718719107544
88.6691718098707
88.5220620023855
88.363349100826
88.2818529533688
88.2670547189586
88.3247755518641
88.2299971190316
88.0690667142851
87.8589185566043
87.8522351340645
87.8639245413694
87.7868968716221
87.6009689369607
87.5430089454463
87.4188555436579
87.3071242568066
87.2833877495511
87.2324937120822
87.0822488419879
86.9614787284805
86.869809620789
86.863440501197
86.770025277787
86.6061938083306
86.478942890677
86.4232023646208
86.386314530555
86.3442049120473
86.2047855569966
86.1228542092844
86.0589370387363
85.9615083874379
85.9253768894522
85.9619650869103
85.9365388393322
85.8945343299927
85.7879244504958
85.7423740870483
85.6969197376459
85.6469778330582
85.6270749363223
85.5745246583477
85.5495885176363
85.5995693017931
85.653183908616
85.6031916245481
85.5072734415481
85.6047476451473
85.6759161246445
85.7491368000026
85.7640691992017
85.6730242959524
85.5981514233456
85.6384838476775
85.6798386452479
85.6739623183629
85.6419221295241
85.6644798468252
85.6992934188564
85.8361305543002
85.7959005818232
85.7997171259489
85.8848188287397
85.9284825285967
85.9334217046434
86.0435199502517
86.0359675782035
86.0457719010121
86.1428678550897
86.1712730469742
86.1032032919062
86.2368786545082
86.3398954649383
86.3966875101022
86.4309772244001
86.489719679337
86.4916946364359
86.551521906621
86.6167292563169
86.6723033214025
86.7423158111541
86.8436899185872
86.8773907169112
86.9359732903962
87.010330312647
87.0095559944971
86.9802028938997
87.0434813470413
87.1103887780852
87.168352859515
87.1425632051496
87.1649432984543
87.2592841450135
87.3311686501957
87.3837644257524
87.4019454931673
87.4278083874655
87.4948004888102
87.4418320746615
87.4450468496786
87.5283179026732
87.5996310929173
87.6150794614334
87.6394161335108
87.6336644288863
87.610638629035
87.6419010078865
87.669801511573
87.6394303700776
87.6039908022937
87.5322509259245
87.4848573210095
87.5765943424498
87.6230108635148
87.6213295123258
87.7022750721645
87.7327856452476
87.7907103312167
87.8200409955046
87.8417217173224
87.8440812707303
87.854992074556
87.8950369037552
88.0413222858527
88.1144893977775
88.1182742239808
88.1471538356945
88.202234250704
88.2751494420983
88.3908535816386
88.4960380317846
88.5469921889431
88.5883256727846
88.6649736762998
88.713291787577
88.7009462310116
88.6903892263132
88.7980285417809
88.8960427654158
88.9430020402307
88.9889175621753
89.0236239013181
89.0562152299604
89.1759074470633
89.296917523089
89.3073948578165
89.2376250378738
89.2882707194285
89.3893006991787
89.4564180462674
89.4558985892364
89.4209765528916
89.5341248665866
89.6896758626536
89.7457291554526
89.8282317572662
89.8873157933547
89.8870204042308
89.8709867288867
89.9536172985812
90.0558440590868
90.2230758875018
90.2580458816823
90.2613198945931
90.3102965571033
90.3433014618569
90.3631450530702
90.3920670572248
90.4660451772362
90.5903782919728
90.6865540232025
90.6573533894612
90.5602317401438
90.6175163780701
90.6667147416806
90.6885023024805
90.7103264515544
90.8072429409685
90.8863787585903
91.0120289454544
91.0681092533825
91.1087666862837
91.143035849666
91.1288876982998
91.192328882455
91.2817875558932
91.3055910220577
91.2523714121792
91.3139625859689
91.4701663068082
91.523232782881
91.5158873511055
91.5543823983188
91.5998235414772
91.6021963828494
91.6156438032994
91.6217287846907
91.7241304125785
91.8468314550916
91.9354700424765
91.9000439667202
91.8318134245475
91.8446809279024
91.9022839132272
91.93224343364
92.0198907127837
92.0372577531753
92.0107802535312
92.0422125758458
92.0809864962225
92.1059255033678
92.1418625146502
92.2320813425294
92.3387559063712
92.3152826604038
92.3630265466897
92.4006861179014
92.3350373370756
92.3389137978088
92.4108705176684
92.4682307054159
92.5176645136022
92.5451762971145
92.6150743663448
92.6541287297518
92.6415616960365
92.6372000510905
92.660198362281
92.6198362120795
92.6554122120601
92.697843658711
92.7266374062661
92.8367103934561
92.9307339625867
92.9227972397069
92.8829079888257
92.8677742284912
92.9178288313201
92.9629233309288
93.0196291002713
93.0229674944292
93.02096403889
93.0570795369585
93.0510505442919
93.0050258500607
93.0231575532262
93.0613727553454
93.142692465694
93.1504602381933
93.1299031897832
93.1670418042626
93.2481666888039
93.2699761613539
93.2628697588851
93.2907358935807
93.2740396446419
93.2487693201782
93.2944017416444
93.3175631993296
93.3469878036465
93.3254342646066
93.3276079284066
93.3742893733984
93.4123961875855
93.4346900374818
93.4643009765009
93.4632710897621
93.4503093809538
93.4677883578928
93.4569922903363
93.4588376528893
93.538349770676
93.5710217321795
93.5564310608976
93.5521105773315
93.5417163805084
93.5538103717913
93.5803996197114
93.6243534511718
93.6677313524747
93.671709136767
93.6495953110531
93.6679278492431
93.7240825742255
93.7572143815679
93.7279936629956
93.6557132930905
93.6951792077587
93.749702536111
93.7554816900775
93.7652140268843
93.8116354252338
93.7761555745542
93.8195214532699
93.8524058112267
93.8553026011689
93.852261412717
93.8442129276023
93.8117347385389
93.8229791595359
93.8840105406803
93.9468614692776
93.989166350887
94.0112602646794
94.0303325090725
93.9863894853823
93.9927988143728
94.0540574670092
94.0148026525326
93.9662358653783
94.0081938440552
93.9995894622954
93.9710325022021
94.0304754375702
94.0798474712458
94.0830924170921
94.0888434405188
94.1101985118067
94.0701766065263
94.0486663357067
94.1023764017309
94.1251354588401
94.0829425437011
94.0828898692528
94.1344361497099
94.1541593844177
94.1753411665262
94.1849186420546
94.2070907231036
94.2862992360287
94.2991489876957
94.221030951421
94.201934403016
94.215036248974
94.2650175379111
94.3293340096502
94.3542937376828
94.3186131359852
94.29093653716
94.3076178661337
94.3172357253105
94.309412109632
94.3050202756405
94.3361077492149
94.3697008874221
94.368413533876
94.3413145561644
94.2846495150368
94.2637677527959
94.3111653795335
94.317599002521
94.3492021746778
94.416091231382
94.4235537685945
94.4308722639153
94.4110861158635
94.3530543090454
94.3978889746504
94.4040289485403
94.3526620795603
94.4116950426985
94.5068718399505
94.474868622011
94.4577688301767
94.4726529054513
94.4535123952114
94.412346211434
94.4154098222057
94.4661239553977
94.4721347929497
94.4664760482425
94.4912613515882
94.4900066490405
94.4784880875933
94.5069858630471
94.5243341526145
94.4742868921808
94.4830976136622
94.5295182166231
94.5499921033586
94.5009542491985
94.4900770749241
94.520047787606
94.5152844528783
94.488904110471
94.4977329584841
94.5170584484271
94.6002335924106
94.6499158806292
94.6340651410656
94.5843946258867
94.5947003760882
94.5971046894725
94.5790429343344
94.6017943834765
94.6290208958917
94.6250195132828
94.6424278678824
94.6607456897459
94.6222444223938
94.6195380828857
94.6593211220057
94.6499835205313
94.634267624895
94.6507155962172
94.6167333759053
94.5724697865086
94.6003367608296
94.6200679299679
94.6421396086789
94.6873632908642
94.7109655274916
94.6957715700171
94.7034452475859
94.688169129014
94.6414183901747
94.5921751087111
94.6310943955744
94.6745082452731
94.6705209885
94.6428114865299
94.6749667875663
94.7066913430317
94.6856320041471
94.6180355013411
94.5902267872853
94.6339052440675
94.6180068975676
94.5755701998657
94.59390506821
94.6048754828302
94.5898919029648
94.5974733530075
94.6096278796394
94.5999289766823
94.5972008557492
94.6108527935315
94.6262906718542
94.6023872728115
94.6375782960965
94.6905211770195
94.6790510285121
94.6644964876574
94.6523584113874
94.6750803616542
94.7230435930855
94.7604766210374
94.7624422933374
94.7396383417467
94.7238661291207
94.7854491545202
94.8177642820934
94.7819371395083
94.8394903889521
94.8055561579607
94.7507982334803
94.7692746288206
94.8360351301189
94.8591222957774
94.8441108898277
94.8436023889003
94.8445984194042
94.8845147654797
94.9364164226422
95.0000112153535
94.9609392725622
94.9219633317476
94.9728999096014
94.9833682408575
94.9872149677362
94.9761927964383
94.9539931063935
94.9160682225418
94.9233572601591
94.9673207419173
94.9522237426705
94.9675103420863
95.0053351033651
95.0213601324928
94.9480157979369
94.9746072782928
95.0520966288714
94.9799116022962
94.985093682287
95.1026450064197
95.1139494896084
95.0855244068423
95.1121107788401
95.1149595789732
95.1161525586422
95.1116150711424
95.1199023215489
95.1197744971563
95.0839119691753
95.0989972776055
95.1461676000371
95.1641689073645
95.0442076311618
95.0473645034773
95.0788056920128
95.033486013215
95.0257596388335
95.0495995404142
95.0951298102273
95.1258712217038
95.1391315351483
95.1081473263642
95.1356795541923
95.1100887637488
95.0832464853367
95.0463493259402
95.0204973672208
95.0169441912805
95.062235535751
95.162459744158
95.1806137397312
95.1237872219292
95.0861837063035
95.1274250816622
95.1912165353969
95.2334322312326
95.1517525165249
95.0364809209914
94.9935003555324
95.0561460309676
95.1259739044579
95.1110066211696
95.1198629866918
95.2122754102257
95.1859887282008
95.1409581475614
95.1902428037664
95.1287017882422
94.9757259810952
95.0113996242831
95.0402420183564
95.0325241713365
95.116944044841
95.1893727669589
95.1712551739776
95.1160067035079
95.1511374016003
95.1727100552822
95.0844450496236
95.0755534952607
95.1060137709266
95.1497510421602
95.1639915204753
95.1444765509253
95.0786296504076
95.0894104221161
95.100491122982
95.0903442051805
95.1574921457205
95.2163592934441
95.1907075714713
95.1398069201303
95.150642030926
95.1339905902999
95.0372105047692
95.0567476554289
95.1136895692854
95.1714996812307
95.1891283486404
95.173708202736
95.1345204163634
95.1052834020645
95.1582163295613
95.1784492243213
95.1392409754834
95.1646718241384
95.189415429699
95.1825646820548
95.079006977154
94.9983228871736
95.1209126362129
95.2144856049508
95.1481018758932
95.0627113936868
95.0659179841252
95.0520004961151
95.0753397392301
95.1282753590074
95.1363421416796
95.1244594228509
95.1203222373409
95.0563192434884
95.0876237418451
95.0721573833088
95.0175968895198
94.9951475200802
94.9580731450078
94.9506301987576
94.9056669576132
94.8679188220667
94.8779370692355
94.8813436951413
94.876706992136
94.8768941530554
94.8635705943324
94.8735996088904
94.9058973277962
94.8758197857137
94.7849177234873
94.6263273555069
94.5408578904784
94.6471711100771
94.6849330027974
94.6317920350109
94.6412465785355
94.7282173356942
94.792180264709
94.7931995163829
94.8183419027621
94.8425093971427
94.7954091281883
94.7881256359137
94.7956168162237
94.7628227607813
94.8239062810878
94.8476657989838
94.7264895415826
94.6829225359071
94.6892141155567
94.6473575990414
94.6928243803737
94.7433611684496
94.7896064623857
94.8055477790875
94.8575061237969
94.9685265192204
95.0190013147564
95.0873016570431
95.0952891715113
95.112421920681
95.2424427872452
95.3180191090021
95.263278498033
95.2681610444585
95.3522732020909
95.4208539725775
95.555670760723
95.5925671846541
95.4722631060128
95.4636621304722
95.4577879738382
95.3690178080722
95.6091077196541
95.7762960934405
95.7060468050474
95.7148443386821
95.9637581098923
95.8530041496076
95.7407450535345
95.6379746104107
95.6706373738476
95.8495480336431
95.8465179416524
95.7953869281854
95.8326512135536
95.9705906245972
95.9483799514739
95.8601398961579
95.8591371108402
95.990668693053
96.0381799318972
95.9617722885964
96.1300353433245
96.3114143071574
96.4084153584198
96.3548374905877
96.1292627467086
96.0619475472191
96.2650497540386
96.316496458
96.3906884819777
96.5893742298346
96.5150665165929
96.4576597871901
96.464548974963
96.4496786929989
96.7380401419424
96.7853213328622
96.3453738387964
96.4104565106934
96.6791340305988
96.6539353160991
96.7605643864955
96.8464345369959
96.7064313494965
96.8967678444188
97.0376372365928
96.9451047653444
96.9689349323881
97.3321352020216
97.4075201018983
97.1070671241731
97.1031985329851
97.1090224433003
96.8489676729574
96.7892296529717
96.7130382267137
96.5944001571745
96.4763420673967
96.3426293043328
96.2790726254164
96.3234956084893
96.3273098749124
96.2471886863874
95.9831747298846
95.8684038376712
95.8887589495683
95.8518446954473
95.6522844202264
95.588889092829
95.7296819986032
95.7562108376598
95.5518593868415
95.4118356201797
95.3349824129513
95.4134135547658
95.4106436989879
95.4856201588263
95.5963101320236
95.7209034241958
95.6510431539181
95.366571052912
95.3241623188445
95.5750964397918
95.750547241534
95.7575651243157
95.572028549406
95.5245679079584
95.5818415248837
95.6560112414399
95.5975964627272
95.4743729982655
95.3447828195915
95.3907631580291
95.5403674540734
95.6939946720345
95.7178463476351
95.676815177946
95.6733626066063
95.7435259117587
95.8651139683168
95.9855294125264
95.8616404499976
95.7489437831161
95.9104981189307
96.010750381547
95.824777008637
95.8376404445604
95.9811952027922
96.0272550105948
96.0081120403931
96.2714148885335
96.7580092878645
97.0978962316071
96.9944697803204
97.2149256701227
97.3953481131802
96.9904207012077
96.9433314945216
97.082058937895
96.9008802312605
96.906767820092
97.0058137043817
96.9309705856371
96.8627420940239
96.985848047841
97.0726337458098
97.0446691782891
96.8970145540223
96.7196620722983
96.6763302052788
96.7848501249295
96.567824486329
96.3912261439288
96.4420330985315
96.6266541314708
96.7633589114028
96.8180970861394
96.742950509414
96.6777926110836
96.6380032421873
96.4446026206381
96.2026636223977
96.3571680273878
96.4148674109993
96.3554824078532
96.5322552839444
96.7891432251333
96.8519926392622
96.8614069511154
96.8066906208188
96.6023124398569
96.4903322436308
96.6796266544968
96.7946153369685
96.6570939058444
96.6745716336203
96.5560414368164
96.3987755804023
96.4179225933726
96.3470833187377
96.1749258048625
96.0308117144554
96.0313066188879
96.0944853256841
96.1367447001795
96.1746104318821
96.1049275064765
95.8946521409631
95.7579296780732
95.845506414421
96.059983924021
95.9931308301149
95.9193489954906
95.9069219595097
95.8103295076907
95.6605686004968
95.5213836146566
95.5079745621792
95.6338152440328
95.695719200649
95.7816367687561
95.7365608990047
95.6284930110818
95.504721484426
95.4475455132591
95.3893750016481
95.4356434759908
95.5295939470853
95.5777133981572
95.6533704861355
95.6144414277655
95.5124851372989
95.5266520897414
95.5194932308363
95.4936885128483
95.4790856311744
95.4165221909231
95.367808104902
95.3637791012491
95.4576481287086
95.467451676535
95.3292901422108
95.2649723112292
95.2177395343214
95.2867194637548
95.342085916417
95.2929125535572
95.248368628062
95.2905979425408
95.3516522762217
95.3558344781195
95.2630871789544
95.2667609739525
95.2994188485028
95.2502789298863
95.2292521686079
95.2230650578219
95.267208940489
95.2925494807045
95.2731180897672
95.278226357842
95.2792523861519
95.2207561431474
95.1628848150951
95.1944079924712
95.234255139773
95.1890076267969
95.1886644593618
95.1805302423169
95.1738393103481
95.2005241473954
95.2379286217166
95.2683928740758
95.2268267882203
95.1923460088379
95.1874643635746
95.1977579442293
95.1914152036373
95.1563236792164
95.1058142189687
95.1118512199174
95.1189623428431
95.1257311469718
95.0863743087236
95.0346191730097
95.0928450735864
95.15474340739
95.1127511623606
95.082011274258
95.1081281014024
95.11629690483
95.132906951254
95.142288725371
95.0952239314669
94.9937133210942
94.9733111689261
95.089072617949
95.1312249304303
95.1460369138989
95.0864091364615
94.9729420472686
94.9862599619307
95.0273717536049
95.0248843733806
95.0369438555628
94.9491951379979
94.8737800693065
94.9277925504286
95.0190081752138
95.0237855606665
94.99402020553
94.932450557975
94.8656976016506
94.9509691141591
94.895878186092
94.7035776487901
94.8898889259026
95.0103718854941
94.9937251450398
94.9225117383181
94.8217802356749
94.7477427228729
94.744573126517
94.6028487854083
94.4373721905143
94.5507514757398
94.6951226996655
94.7451960533496
94.6998794772339
94.5575511793852
94.4103519087473
94.3768475883006
94.357042175314
94.1357955368063
94.1729973179811
94.1495891621456
94.0945542598859
94.1645507861615
94.0265133981247
93.8048228306008
93.6318877984039
93.3840022655604
93.2018901286525
93.4073327044273
93.3849487599207
93.2022597421744
92.9102573084289
92.6921631369099
92.6602949699131
92.4531062491443
92.3257551662198
92.3561735947629
92.1508952642561
91.8193166287161
91.6438326145731
91.5732314421829
91.3723152503978
90.9934121991623
90.4538015126495
90.2743933337604
90.3768047066813
89.9232075807205
89.3961487422203
89.1149067939471
88.7789436532096
88.2568572895318
87.7418243666914
87.2051961396741
86.9227025212244
87.4011047774891
87.7343117738372
87.7699240004608
87.7886128574972
87.9932535809444
88.0929166583145
88.2460691796882
88.503486569407
88.4287323987539
88.262346735007
88.5282546917872
88.8098778421842
88.8752668633596
88.9515343080009
89.1931451723504
89.5103785445575
89.7583488750734
90.018170082521
90.3004992370047
90.5400154720826
90.7393796001858
90.9375047489326
91.1358289974583
91.3263923053796
91.4826730572716
91.5797201455245
91.6600705342695
91.7631214151028
91.8564227999203
91.9133807940969
91.8494173831297
91.8662062722112
92.2281801610474
92.2943659034436
92.0893166222843
92.1294686136347
92.3082587045486
92.3348445505292
92.3287552860639
92.0647103857583
91.6774964466868
92.2671522681589
92.649202717915
92.6193574363537
92.5509734388521
92.4437961457884
92.4864233780343
92.4423649289819
92.3375194996315
92.2537886599629
92.1908811727339
92.5693090827621
92.895515113438
92.7158098780237
92.5849730462818
92.7480925760352
92.7492178467412
92.6505098157119
92.6206533412542
92.6184669290493
92.536743154421
92.6862504157065
92.8167572503168
92.812458831647
92.8641556134392
92.8315854023813
92.7959775470878
92.6222715743473
92.3922655420303
92.8402947248568
93.1274457245817
93.0242237636351
92.8554724268224
92.745701732199
92.8557737766954
93.0274135540366
92.9292110535491
92.7607189835073
92.807808369197
92.9074465371686
92.9509206808153
92.9046793893736
92.8603600248591
92.8551199227378
92.777895169816
92.7079699020373
92.6282655869776
92.7352184593602
92.9570541288248
92.899385547811
92.7256232398585
92.6784840761812
92.7872602381565
92.7035946441581
92.4222216761773
92.3266096927665
92.7276824808202
92.7537139682546
92.6422970395456
92.489709941492
92.4299822417034
92.5045460327626
92.4963602406816
92.4232217898787
92.3484005078455
92.1764953497177
92.1447304920443
92.3601896476939
92.3779564902464
92.2892832526884
92.2743508828688
92.2929292255633
92.2495404212851
92.2702092373664
92.2287018808415
92.0886757339799
92.2566987832979
92.4464991542161
92.4696364082814
92.4321580055987
92.4297762544157
92.4642117406462
92.4481185560121
92.4845794531849
92.618844585547
92.6352165876591
92.6094545828046
92.6908646701058
92.7485550523861
92.8710920807273
92.9748427423732
92.943490554805
92.9174136915399
93.0124645532865
93.1220176960031
93.1513679357341
93.1487482260174
93.1452841241307
93.1700139470735
93.1848459776674
93.3024582485754
93.3896304156343
93.3819056927802
93.4092210645065
93.4465401194627
93.4351959491504
93.4859309487371
93.584004604601
93.6108095920376
93.6153876493567
93.6301179243278
93.6681692327168
93.6969082851034
93.7056502130727
93.7385232169201
93.7495101367434
93.7346174079542
93.7103784552803
93.7171495512115
93.7639260004467
93.7988244029049
93.8210705654589
93.8160536735481
93.8296405970223
93.8187766317663
93.8147979212214
93.8417538889894
93.8532125540346
93.8364706425784
93.844271755328
93.8865992296447
93.9170331811672
93.9367023510667
93.9355466872879
93.9404064491468
93.9449944587858
93.949547761136
93.9488676341296
93.9573608430555
93.9685239901233
93.9683862612963
93.95646047151
93.9496290960981
93.9449047153349
93.9325749261781
93.939796683842
93.9414175649989
93.9174218075103
93.8943862356743
93.8701990731467
93.8408441262622
93.8060001569275
93.7806779132619
93.7712197007659
93.7431401755358
93.7066969593881
93.6709853755671
93.6275102987377
93.579251187524
93.5494187373737
93.5063373492445
93.4456088291415
93.3895350573014
93.3249068291945
93.2564556166936
93.1645001520632
93.0823335000319
92.9945518757713
92.8971200031128
92.7983782119675
92.6839395570523
92.534761089894
92.3590804808845
92.2000638328178
92.0186753227246
91.8125008337364
91.6081040388848
91.3728101723151
91.1365839381223
90.8840596148367
90.6097333415157
90.3340433777334
90.0473400413528
89.7405579743234
89.4310870685275
89.0945808578478
88.7327152828899
88.3681545767565
87.9774391242104
87.5534814677403
87.1389730089079
86.7332994006583
86.2990891251849
85.8298251444755
85.4022426059651
84.9957080830107
84.5595119004966
84.144378828141
83.7377156240674
83.3227320384388
82.8843288823329
82.4468629801799
82.0252235723593
81.5875337995353
81.1553111094231
80.7493873187283
80.3384717087234
79.9293123452558
79.5648178343709
79.2002350220242
78.8016819984955
78.4485563713291
78.1231320300837
77.7940973815449
77.4515136002937
77.1405347580821
76.8505958023151
76.557139203815
76.2477766899582
75.9310040647786
75.6247613236514
75.345289490758
75.0638729081314
74.7472981742883
74.4428725605178
74.1811773960802
73.9397847377515
73.7647705989437
73.671340868326
73.6805524939085
73.7210094403594
73.6995666067485
73.700121439613
73.7109922129466
73.6954666872743
73.6869913859261
73.6922621192783
73.7003591788202
73.6900931156833
73.6805844331001
73.7001843571833
73.7085071419622
73.7209613318757
73.802069316311
73.8955632656944
73.9961968535463
74.1362360029064
74.3322084834897
74.6020639437466
74.9455017998904
75.2924852831369
75.6566138336413
76.0504290909704
76.4522023915048
76.831822033627
77.2058743155191
77.595220176702
77.9909123755045
78.3899540029179
78.8355951411431
79.2959252882017
79.7550323665896
80.2342479774133
80.7282074416216
81.1875699310427
81.6581302214036
82.1491840435465
82.6271097543144
83.081922243602
83.5300025804942
83.9282536026422
84.3117383369338
84.7235282676857
85.0531144650503
85.3263622195832
85.5996670625581
85.8451136544402
86.0693910726441
86.2789036253913
86.4704735799846
86.6492476098685
86.7910368218337
86.936531326711
87.0923363742357
87.2335631146983
87.3436362506109
87.4321112745421
87.5303500525552
87.6272506883818
87.7192990586742
87.8290615745524
87.8962331105643
87.9323008787554
87.9658622503351
88.0113096856225
88.0607771660948
88.1238323252501
88.1582788940447
88.1874106002919
88.2152464534166
88.2202760513469
88.1289933001026
87.9400002193167
88.0643699457917
88.4924941363791
88.8628350638748
89.1249582385303
89.3190563629078
89.4801793157355
89.6350881894064
89.7673632119199
89.9070265805082
90.0502401304382
90.1533538243677
90.2436182212964
90.3600905090115
90.4806595103372
90.5878926692791
90.6747709324207
90.7637420453918
90.8415611976355
90.9033186744883
90.9852626029171
91.0536116629717
91.1200752487769
91.1586951249289
91.2272913598019
91.3334414301518
91.3786275492892
91.4081531026012
91.4697076591011
91.5528986938466
91.5964687838826
91.6015738874247
91.5995200897997
91.6352540115084
91.7134091389811
91.7807490338482
91.7946232065341
91.8352701123068
91.8787432825152
91.8949345203123
91.8979260248693
91.9444298463801
91.9907017849781
92.0038228686944
92.0071277168781
92.0330221709168
92.0524805059656
92.0773467192103
92.1471325249566
92.1902354284397
92.1907273039574
92.1901402791894
92.2099643297903
92.246837953078
92.2465721557283
92.2491621916038
92.2748512292473
92.279611429486
92.2941089968601
92.3148161609851
92.3011947795618
92.2759379421223
92.2708631680777
92.2545759265745
92.2378971051806
92.2249712261093
92.1795989896451
92.1677592766485
92.1962296872624
92.2019414033145
92.1673445763841
92.1192982658806
92.1332308101139
92.1307578382456
92.0629955934588
92.0107408532175
92.0481143293701
92.0816921716874
92.0701591418055
92.0956688296739
92.1394324869391
92.1557521866801
92.1768989571233
92.1866848583838
92.186670311213
92.1963813736635
92.1733663087224
92.146626023313
92.1628142348744
92.1787298130531
92.1527173037699
92.1520260552166
92.1423108553542
92.1038291659122
92.0811603035682
92.0615161617424
92.0273229850414
92.0000020049205
91.9849889582136
91.9067400041653
91.8949527018848
91.9080796915378
91.8964408050406
91.8729187245245
91.8158874807116
91.7554677569569
91.7143858167609
91.6824437000372
91.6427098118412
91.6280046860058
91.6045886552044
91.5728268130196
91.5313557444885
91.5122394724095
91.4976882142109
91.4214122462311
91.3360049055031
91.2972530502697
91.2840304309771
91.2670484571279
91.2218807239267
91.1296239900553
91.0836206516481
91.0303659315073
90.9532520138509
90.9091758242359
90.9049483897758
90.8574641053946
90.8277630424974
90.7562118759096
90.697610597421
90.6506123530609
90.5676177711248
90.4917723035389
90.4071731195943
90.3227111148977
90.2531160529525
90.2219990152266
90.1846124472839
90.1254351249207
90.0005955873093
89.9217861048861
89.87659438306
89.8034920979624
89.6957982487674
89.5835635449934
89.5277785121563
89.4606745537978
89.3322971878949
89.2615310246107
89.2009228592108
89.1036692570892
89.0184442683807
88.9011377198151
88.8207513706983
88.7128827354642
88.646733594147
88.5974151457292
88.4513454344693
88.3060082022563
88.1836071251315
88.0520770847419
87.9326797585228
87.8746367706913
87.8179402433642
87.6992577192015
87.5719875295178
87.4421886711856
87.2462917113731
87.0881015172815
86.9532147147885
86.8113228893597
86.6100817116929
86.3402578800781
86.0180223362372
85.6965482878659
85.4184307439511
85.2924825630078
84.9088780003275
84.3906970427801
83.9371385625286
83.6102828760715
83.2744511478672
82.9278187694502
82.7041831777002
82.5090903089618
82.3219063177519
