1798
3999.43349933624
650.420452594757
1
128
4
94.1686028694897
94.2389524023037
94.2605807175184
94.2584084976828
94.1823925232629
94.0950912939268
94.0753817058697
94.1538193977882
94.2336436807247
94.3394027308173
94.2628255324778
94.1176149655607
94.0913206150523
94.200761709053
94.2047910391389
94.1668653584936
94.1424082202064
94.1366707892038
94.1425995488295
94.2249175224433
94.1995997255436
94.1328658527416
94.1378519698713
94.1987682130236
94.2134022000302
94.2460015347597
94.1976197731635
94.2056710435818
94.2107875420473
94.1624188635819
94.0528239576585
94.0191984683115
94.11076804728
94.2289627948667
94.2028920721022
94.1292473197322
94.0845994457189
94.100080627894
94.0651847328022
94.0554011864921
94.0603144843661
94.1476182496025
94.1980266568608
94.131476493254
94.0227019779859
94.0797910003899
94.2095640693386
94.3648269596895
94.4647583857507
94.5006410889386
94.4053798355555
94.2496294417126
94.0208946321745
93.9739270458602
93.9726794496341
93.9061013155171
94.0217136835403
94.2956679608104
94.2155808721163
94.1022120549581
94.1921690342785
94.208240527257
94.0631915472617
94.0110479383058
93.957674097854
94.0252562711205
94.1728724700813
94.2496933557446
94.2018292249603
94.1283973582057
93.9873214985661
94.0233117558542
94.0499459971414
94.109903070717
94.2576225114034
94.4037154044749
94.4347436279118
94.3330477246788
94.0239437965838
93.6968112961131
93.7237871462874
93.9478476835678
94.1674123544499
94.4496637873237
94.4908093952431
94.3065737598766
94.0971937504331
94.0458165162645
94.1193020863637
94.1634158371829
94.0790034756396
94.1257788089367
94.3109214574022
94.3609223063372
94.27849184175
94.2778714278501
94.1960557739455
94.0404459841196
93.8903920434611
93.9382353582158
94.0558325564632
94.1951324270023
94.3342873452741
94.3433487820591
94.2766398647624
94.2878604912179
94.1625777594409
94.1622599313561
94.2126747347988
94.1527539120747
94.1866078393264
94.2579923715839
94.2256463826128
94.256242380667
94.2599689991427
94.2382504052239
94.2801214720517
94.3117691621992
94.1749333833513
94.1355464445372
94.2287214771895
94.437418172969
94.5220016541175
94.3466933173396
94.0976776131018
94.1013937969308
94.2339389956362
94.3606832053003
94.3999326541453
94.4433698970327
94.4373683873244
94.4086471430464
94.3856901419817
94.3961649380097
94.2801557345234
94.1277837300135
93.8975217922634
93.7318435398505
93.9229383031248
94.2649629326704
94.3604769897352
94.2083389618299
94.0006293845039
94.0238530697737
94.0582703699281
94.1046226479392
94.1239297585244
94.161984650854
94.1414125367369
94.1527111680169
94.2704520166533
94.4075568115938
94.4019770280521
94.4481595386859
94.3240920919485
94.0552936125175
93.9419847092886
94.1250732398854
94.2407020186509
94.1613810939909
94.0876074761942
94.1875832850195
94.3032599337585
94.4262682353292
94.4265790789827
94.2753586187758
94.0749246294149
94.0091850064712
93.9859382963292
94.1674234944741
94.311710136083
94.3529528994858
94.2948114921081
94.2188253955281
93.9671809662689
93.8097092038255
93.6050691406331
93.4155894439228
93.5452399023018
93.8199068328151
94.0703924478425
94.248601559542
94.2484233694137
94.1943322120972
94.1099510746907
94.1625310316236
94.1614865062227
93.9459067907402
93.563382533466
93.3254025727142
93.2968988574697
93.4610097231142
93.5706737321034
93.5753114706582
93.5407375671641
93.6180724164934
93.6264428380248
93.5137996426741
93.2502638635232
92.9737104994863
92.8762191937818
92.984938071584
93.0745368617699
93.0366257624989
92.8569469602359
92.8181469727976
92.803467449808
92.6180600094937
92.3632790852228
92.3270988916097
92.2979551936234
92.3520023158803
92.4041565013935
92.378784378328
92.2247800604831
92.119888245972
91.9781678263839
91.9182581240974
91.8948734125465
91.7182942554118
91.4073560684228
91.2428109156646
91.290922385446
91.2976761205997
91.227938963333
91.2676930748123
91.1727015547094
91.0351172376623
91.0240209207455
91.0801882254869
90.8549770396352
90.5723762229967
90.3989157509115
90.322991645233
90.2152241853655
90.120640269307
90.0983301355172
90.1938824046205
90.1635226792873
89.9715731329989
89.8080280243197
89.8510708608522
89.7973534356316
89.5677686764049
89.315851006371
89.3045491727589
89.3656156687624
89.3607062658414
89.2799080025596
89.2563705345492
89.1615653072492
89.0750053223653
88.9623297289195
88.8737267603942
88.7920596513016
88.6954901235456
88.5065434764636
88.5157062417523
88.4885658487501
88.3285146209397
88.1956968426041
88.2377605691468
88.2388519342489
88.1342208654859
88.1110680818974
88.1294051994385
87.9489101724431
87.778691646636
87.6534672843028
87.6521372584643
87.6138234545936
87.5637959395024
87.4702133103848
87.3259868239572
87.3762719593782
87.4494396517562
87.211954203386
87.0019869321204
86.8792673068966
86.8536611143374
86.7897617736537
86.7614876594309
86.7187835933432
86.5807387604997
86.4525771657372
86.3798585457678
86.320308551244
86.2904106867476
86.0842817542954
85.8970593120692
85.7806085658529
85.7145095898259
85.640185803126
85.5759779131914
85.4661180702086
85.3353226410916
85.2381518815762
85.1443329448679
84.9953972023334
84.9438988182383
84.8760659937632
84.7589347248594
84.5586871716035
84.3949508166256
84.3863865528514
84.428947011743
84.3107615274499
84.1602264680558
83.9394692634839
83.7581375683515
83.6555221444293
83.592722351254
83.4155961098026
83.2794119365866
83.1014747201896
82.960289468702
82.9239527057224
82.8899081822379
82.8362474400262
82.7596463031806
82.5709398635525
82.5344694374447
82.5210776746113
82.3821140826936
82.2220149242672
82.1647643443989
82.1542807734641
82.2008175644383
82.2015272871047
82.1313241085841
81.9541689158612
81.8947287429739
81.9463709831217
82.0731702062693
82.0817921029249
82.0082559106433
81.947618364801
81.9004557607357
81.8566912783073
81.9619317254599
82.0719291348329
82.0980585034631
82.0584562789321
82.1600350222023
82.1943281525816
82.1507634407844
82.1358274299318
82.1403237617779
82.1437426119452
82.1778813242663
82.2103163961369
82.3324518215189
82.4208262370085
82.4473556121407
82.4316759058841
82.4788428929288
82.5215366736109
82.5525172810623
82.6056996695835
82.7062251767431
82.6299298615732
82.6342262947805
82.7272602244816
82.824653540268
82.9508974935087
83.0343878901823
82.9690885286577
83.0184836751365
83.0938746210668
83.1311177972491
83.1492804822813
83.1605384430716
83.2297928589371
83.3817407256709
83.4442786203037
83.4725479555267
83.4400335778862
83.4836915965557
83.6076205904308
83.6636709344592
83.7077474236449
83.7891166812753
83.7559803752203
83.7541941996747
83.7863745263166
83.870816309756
83.9191524122927
83.9583834836983
83.9818928841338
84.0818282995524
84.1281257099523
84.1719733028375
84.1917230154978
84.1765570718161
84.206537784849
84.2654816300897
84.2571780225168
84.2206749698699
84.215403225577
84.3106379254727
84.2779073903769
84.2266395355103
84.2118595483966
84.2021289149496
84.2012081483885
84.2342715484694
84.2938229739528
84.3891833294796
84.3753580161687
84.3481438203508
84.3024454054083
84.3385625965956
84.5118156280086
84.5982248553407
84.5192020361429
84.561479697443
84.6681215057393
84.7965853091823
84.893959291508
84.9915560175942
85.0135710319556
85.0137039526994
85.0244115382115
85.1362791538154
85.2423353044097
85.4048711154957
85.4742098783578
85.4517731706895
85.4249249865744
85.4851611735699
85.5790316295747
85.7509425740369
85.8282171559856
85.860695627496
85.8816119531971
85.9517969193562
86.058926568176
86.1128511994539
86.1365224060762
86.2315859501815
86.3162703082963
86.3946717898415
86.4806696371345
86.5670967928596
86.6026375734944
86.6756490744115
86.7465676356276
86.8848272717547
86.9322264924331
86.917716140029
86.9328312033133
87.0587257444447
87.1149853820089
87.1120876091287
87.1644027581954
87.3113996987399
87.3767524907674
87.3748078232072
87.4234182126878
87.5772101048229
87.7126088409669
87.7547754133028
87.7830045058905
87.8702330331553
87.8867391136554
87.8876247475998
87.9277658896468
88.0618460636396
88.1355242120349
88.2050755724986
88.2771339182125
88.2987128679785
88.3031201507917
88.3715814601563
88.3481673966407
88.3679228115492
88.5494083129909
88.7060356741082
88.7150668231763
88.7932766383689
88.8492499275982
88.9174887139902
88.9562908719757
89.0239111775464
89.0999825215376
89.1416689829201
89.1119148008473
89.0821458244184
89.0902752719153
89.2363037586645
89.3950039167299
89.4534969386754
89.454411676881
89.4854265428441
89.4934702609765
89.5741972487468
89.6408167250186
89.6937627103953
89.7151054210567
89.7909268978194
89.8329186746639
89.8290026142175
89.8573140078699
89.9213571792937
89.9232356639973
90.002544383317
90.0988956486294
90.106446497824
90.0828477346124
90.1163556975712
90.1733218904321
90.2360348557823
90.2757820552423
90.3700200997668
90.4019658674118
90.4024542662971
90.4210452860036
90.4833326671688
90.5201254107036
90.592182448087
90.5961926159864
90.5495732349232
90.5695698998313
90.7021905773935
90.7593582639401
90.7382570614289
90.7878679666406
90.9047818467845
90.9273941565158
90.9222179364766
90.9017435983799
90.9205210558873
90.9717747131413
90.9860212841252
90.9820455580516
91.0401603338348
91.0549279718166
91.1146077379298
91.1578265308523
91.1865591631837
91.1647602471311
91.1618198863437
91.1789367064206
91.2580340661771
91.3025148784843
91.2800024963396
91.319000982599
91.4357509759728
91.4314920788773
91.365799386569
91.3655215689423
91.4175334882457
91.4679262489261
91.5261493353101
91.5676221599859
91.6375041178321
91.6254877719324
91.5925654623282
91.5681351704531
91.563862560465
91.6037940105233
91.6374380673663
91.6560373917606
91.7199060135732
91.747742696586
91.7860459004382
91.7922962483027
91.7878824158083
91.7974736328547
91.8097844058744
91.8215208118491
91.8979366372863
91.9381243491785
91.9824208307577
92.0027293038771
91.9449892966776
91.9521081359349
92.0333996494152
92.0203662675531
92.0085137309758
92.0209886377639
92.0278926263004
92.0443073546827
92.116988925661
92.1282889925515
92.1403674393435
92.143208902264
92.1753488718732
92.2358322031028
92.2396753955814
92.1804072266362
92.1388858593775
92.1739651821502
92.269380416226
92.2519373219959
92.2537182284269
92.3148154921488
92.3603146173048
92.3474137684692
92.3560983811068
92.3927229615708
92.4308419902274
92.3987144851959
92.4026917190352
92.4100158331107
92.4286813982631
92.4323095341924
92.4293289718727
92.4399528952906
92.4761164288953
92.4907367631416
92.5280954351844
92.5812623419141
92.5708970682889
92.5260563712489
92.5659196277885
92.608819170567
92.5884266121982
92.5116507700219
92.499821906676
92.5678559274863
92.6397628823356
92.6748636062356
92.7018737860331
92.6735642739331
92.6787788956323
92.6799041036671
92.6724251335561
92.7017310133272
92.70798606955
92.6725890033032
92.6947538183327
92.7292837130154
92.7372918432228
92.6934660673557
92.6715809437927
92.7136792617406
92.7809498964617
92.7915113848709
92.8077423817329
92.8037655487348
92.8001150355492
92.8414708715219
92.865408068487
92.8743369584678
92.9150342670948
92.9330611534553
92.9464690328984
92.9260316311655
92.8953640508434
92.9014752816523
92.8980077974843
92.8869436807031
92.9120391257636
92.9022540399973
92.9201249335911
92.9425207991617
92.9294047243236
92.8773568842774
92.8768617460689
92.9013585412301
92.9080050517991
92.9539696316295
92.9925306377234
92.9700587725347
92.9506597700329
92.9519601805416
92.9907739118005
93.0198082801379
93.0294734357185
93.026826239266
93.002323596328
92.9769075240892
93.0262425272914
93.0617909634741
93.0965633649159
93.1082137292201
93.0978059807908
93.0812386566319
93.0812625305581
93.0875207887516
93.1007189641066
93.087323635341
93.1010230127138
93.1278172940547
93.11646675035
93.0787078798097
93.0633758859171
93.0401086922347
93.0194328835721
93.0838729553857
93.1893291473535
93.2010191757491
93.1696697190904
93.130431153336
93.1182829613839
93.1084107336733
93.1338821233346
93.1669524747319
93.1832133698908
93.175190749549
93.1669239287613
93.1762570480745
93.1688157727133
93.1477888839883
93.1818535379038
93.1918765925676
93.1646012888856
93.1530507011077
93.1934711705193
93.2251506180678
93.2290632610965
93.2323541345584
93.2374358723875
93.2283861208729
93.219652269441
93.2308683351298
93.2436317898367
93.2358144103513
93.2381922304894
93.2131678885042
93.2246911472658
93.2231219726073
93.2070899121882
93.1955218849123
93.2177634478692
93.2614213380574
93.3097353946557
93.3283135783392
93.2970223057209
93.279578601566
93.2783759226433
93.2875943333208
93.3440842114398
93.3386793668581
93.3048902845063
93.3390653849639
93.4241044325122
93.4373311882147
93.4086120335049
93.3591335465474
93.3636825303391
93.424811940352
93.4549377464282
93.4923947070035
93.5699383380348
93.4961384495912
93.4620650817866
93.5688673853128
93.5756776511816
93.4449872177401
93.5075422268192
93.6136492117369
93.5783656348172
93.5385106305121
93.5714787330906
93.5705195147298
93.5519046295347
93.5557681756274
93.5950844987758
93.5639144556739
93.5200641490828
93.5612499566658
93.6078595672722
93.5876433270224
93.6346001459806
93.6872692799994
93.7219233888743
93.6911098217276
93.6209458427242
93.6659870630318
93.7753480989133
93.8238623661846
93.7716512950357
93.6910143048859
93.7117044313933
93.7062190923368
93.6760025573032
93.6814126730171
93.7870025628226
93.8226131572832
93.7056474803219
93.6310201074028
93.7695160678246
93.8837772467714
93.7885425495455
93.7280960879529
93.7612250501342
93.7393093413007
93.7240172627644
93.7045437614793
93.7243194618612
93.8281602852831
93.8600172782563
93.8886023074909
93.9473530831522
93.8377854581429
93.7212791280215
93.7052739103075
93.7755499895124
93.8339279047139
93.7887256013461
93.7628371428918
93.7482974322494
93.7212206948865
93.789387341988
93.8052060276105
93.7926616336847
93.8313356460647
93.7818681336613
93.7253427664302
93.7335236459076
93.739427757601
93.7366949910487
93.7803616009548
93.8114313011848
93.7862425735541
93.7898820621446
93.8168724579248
93.8137340323303
93.7849814140083
93.7820204373795
93.7424447274511
93.6686516452067
93.7258800807827
93.8204391000773
93.8375706503668
93.8832662138464
93.8374365137169
93.743750045111
93.7316284152754
93.7035066436718
93.715035566049
93.8561345284412
93.9435656086699
93.920667177863
93.8233891586801
93.6947045181659
93.7250966292995
93.809826678838
93.7937559452709
93.7913057611158
93.7755049007007
93.8302607059534
93.9069069171489
93.801111323378
93.7143355811976
93.7121810720842
93.7544842076516
93.723246513513
93.6947100409187
93.7890127001606
93.8639406115881
93.7548182187413
93.6968566402814
93.75180141633
93.7341465577196
93.7251481912889
93.713616862193
93.6759857364332
93.6343040557773
93.6101612675402
93.6052787648731
93.6216315942996
93.6482251475359
93.6925977456046
93.6636113438887
93.6522843367661
93.6818222931292
93.7111747017686
93.7109003091239
93.7148595419016
93.7065418677394
93.6850094178332
93.7110406180486
93.8083302000899
93.895472441619
93.9053279770143
93.8415199873899
93.7404612711299
93.643777753205
93.5787239582323
93.4989070530491
93.4803280240013
93.5233682971287
93.6021598454966
93.6069388494845
93.5762329218256
93.5680193930421
93.5304695321507
93.5332601489226
93.5372957173272
93.4655802448905
93.449029701564
93.4379582811545
93.4603825176729
93.4866509442165
93.4239019644368
93.3251340528644
93.289720521974
93.3271353760743
93.3817288730621
93.387841289028
93.376829603374
93.3890039964855
93.3626631624102
93.3188055819911
93.3518976222785
93.4286737329812
93.4942494310019
93.4671570557053
93.3577772524424
93.3626740854627
93.4837067162051
93.5547951660088
93.5042119445438
93.5038310686975
93.6096616451887
93.6419379612537
93.5794120936481
93.5386199587011
93.6231248949431
93.733970146021
93.8412705954147
93.8781635773124
93.8518085015988
93.8572389799734
93.8246595917436
93.8665274607304
94.0683408526797
94.1966653487839
94.1292368766206
94.0755169493368
94.1396776697549
94.2720649575237
94.4276673663228
94.4440786388681
94.3603955654336
94.3476912751808
94.2669863642944
94.279247080736
94.3836035156654
94.2182154840701
94.2353060383505
94.3944346728982
94.6055981919415
94.6245931849545
94.5844434196397
94.6312624620951
94.5588036392322
94.6007449958046
94.8460647889359
94.9344423400712
94.9305006954534
94.7341916633696
94.6032306451566
94.6267708863369
94.5875330448386
94.7597333252086
94.8902284353429
94.7762020784833
95.0868266268895
95.5552679608009
95.361644248807
95.0292490907105
95.0339996129875
95.2642298416891
95.3296672216441
95.2338620328935
95.2329290590078
95.2205524759561
95.3633925765235
95.6519265625553
95.7105410770266
95.6123497485903
95.5721716650967
95.5797465100968
95.6401005334769
95.9756228762015
96.1718417665111
96.137725916463
96.1231197944057
95.9115554629917
95.6894917355667
95.9772286674287
96.3303681512123
96.464020909914
96.7310855944574
96.5755160466802
96.3296740146935
96.0081408804215
95.7016607149378
95.6689775444491
95.8388859670509
95.6447994524122
95.5022027093102
95.4367085453483
95.3002048965756
95.0875420371582
94.8404673617071
94.8159951371985
94.7976937125522
94.6212293830167
94.506843721126
94.3220680153
94.1228198844627
94.0601304251277
94.1478335710791
94.3685886072135
94.3779719443182
94.2101249413536
94.244282619951
94.2925972303774
94.1915992557333
94.2872434796201
94.2517454774456
94.2319539750598
94.3332545879093
94.2523436256332
94.2637109752076
94.3036477379815
94.2749133127673
94.2348508883405
94.3760561035068
94.3885713624053
94.2646615707093
94.1604913851515
94.1254612610466
94.1656585707634
94.1615908372877
94.2262983209996
94.4521217333981
94.5549457076454
94.4206137035115
94.42645697469
94.713323185631
94.9235460195618
94.7951094854532
94.7476085709066
94.837147938374
94.8326957351679
94.9023709484995
94.9270550402618
94.8540907044965
95.0675200619243
95.2057846200349
95.1699443421975
95.2460714087889
95.3823091952183
95.6449938221742
95.7354582011554
95.7692097301111
95.7760813688332
96.034506513811
96.350855871315
96.3455700332969
96.114663545286
95.95592606142
95.8851685188795
95.8830761378535
96.1562990265442
96.1512775820489
95.9591062424028
95.8744749749441
95.6171251498906
95.8858536861478
96.3220237575694
96.2758576154681
95.8203129722056
95.5606698664729
95.5182334763322
95.5509265083641
95.739520649196
95.8743441814828
95.7916172010343
95.5254326977335
95.3128516670473
95.2807925741956
95.4772237917097
95.4171399788934
95.2540582594041
95.5621891770143
95.9206766263692
96.0139120975367
95.9520299079352
95.6483297561701
95.6417279722805
95.9195588921695
96.2010429251503
96.4379023902388
96.0754942573419
95.5811181152203
95.6039975083707
95.6075684301624
95.4341034047219
95.1936470024308
95.061454934579
95.2040904109712
95.5375806253431
95.3283130382441
94.8621472510085
94.7100577488724
94.6659986147792
94.6250627855267
94.6450339363892
94.7745772184374
94.7383937880489
94.6297193380469
94.6155787080739
94.6599002359243
94.4703141907679
94.3748903277005
94.5007248947936
94.5732429454517
94.5370439893397
94.4714043198818
94.3655168287633
94.312562858051
94.3602989755158
94.3259656102756
94.3133525999015
94.2887922284606
94.3048183239945
94.3049280185804
94.3264557095792
94.3354494970968
94.2968933156111
94.1729773770659
94.0363322711281
94.0997341818846
94.2034265628848
94.1425413310928
94.0506245801197
94.0737401374684
94.0060858698977
93.9959441265654
94.111878585625
94.1371247302991
94.04042577887
94.0000635825422
94.0078191519792
94.0390658549516
93.9759885175777
93.8680125294431
93.8992168893886
93.9265498847911
93.897252831061
93.878209483005
93.9002332758797
93.9452237802928
93.8777108635675
93.7991244080225
93.8096140652103
93.9399527309362
93.9618625857267
93.8581564799854
93.6373624611348
93.7448783095031
93.8516694648812
93.7796407220352
93.8016517326056
93.8919668842056
93.861083487616
93.7794469926259
93.6264197692193
93.6789512662856
93.6514427175128
93.6565709908408
93.7311048912151
93.7364305090231
93.7556476253128
93.79477180732
93.8260660140327
93.7855055435063
93.6954852310502
93.7157566997498
93.7495910137307
93.7542361058698
93.7287295175767
93.6540619509618
93.6204446255639
93.6777881491997
93.6739534972549
93.6106137677815
93.4539023940151
93.5375231433309
93.6850722146906
93.678923098742
93.5924668783179
93.6218548992435
93.6034244533546
93.6186569016125
93.7391343336625
93.7241165820618
93.5754148915825
93.3427742232244
93.5202274405823
93.5730085920597
93.5883558103616
93.616042151953
93.5450473316455
93.5215203700618
93.590465929155
93.5044935553467
93.6358376150375
93.6729750389129
93.4185407460551
93.3134262866627
93.3415511264713
93.4161151612826
93.3797978062809
93.3869369543429
93.3967911572367
93.4263704987591
93.4828848248057
93.0381256603755
93.0244101298455
93.2004024135658
93.1832789602783
93.2626365447079
93.3473149392481
93.3793406708003
93.4022604349967
93.2543378280666
92.8398604889574
92.7744001507011
92.8477576203204
93.0045330053567
93.0270208563176
92.9565523091554
92.8528277687643
92.805475125883
92.9308187876174
92.5392202482752
92.2095907098307
92.298784161348
91.9771392277257
92.2114576424327
92.2249606631686
92.0767450946019
91.9518409593971
91.7452074353026
91.0126474669623
91.1069156447255
91.1661116740426
91.0537757278386
90.8925471712684
90.5977227233178
90.5576848710773
90.266365836225
89.8636746224479
89.8644290477157
89.8196179273364
89.4414235314088
89.1326590407314
89.1111237398356
88.9126966685999
88.5968944478189
87.9089566335036
87.1703788164898
87.4080176992493
86.9696874667026
86.0287553785415
85.6428368001412
85.5063199966315
85.0546676713403
84.5116419664936
83.9725720724957
83.4554696694255
84.0203237426219
84.6354825382173
84.8486277999394
84.9749444031339
85.3255896630989
85.5789544669129
85.7717817982688
86.2073815333119
86.3120727765744
86.0991244114364
86.4160541650524
86.977617570702
87.1178215423724
87.2547212721176
87.5292221773493
87.9071771403527
88.2046082748397
88.4743142335343
88.7258230918574
88.9862844890421
89.1848059750994
89.363316435561
89.5308372295678
89.6955631990693
89.8551211554563
90.02638658839
90.1183281379797
90.2595344025298
90.4193127065105
90.502225046267
90.396281263229
90.179166684176
90.5392694035272
90.7619044448075
90.5114533671812
90.436861995197
90.8073857640505
90.8783620153969
90.9846500424113
90.8672346210446
90.1157674904346
90.2813903807051
90.8483997457753
90.7769651341377
90.941079424231
90.9258136278551
91.0872220194586
91.1833347980931
91.0370436699264
90.9190177961221
90.6361187606498
90.6798131819303
91.1997119497791
91.1982190120291
90.923706578038
91.2643818356416
91.4425078515761
91.3989608490309
91.3120946569951
91.385703851254
91.1804064588083
91.1580398931473
91.3796312164875
91.243084656144
91.492867587691
91.6080072116971
91.566248713538
91.3896344874252
90.8946912931761
91.1448261442105
91.753844444212
91.7611883047151
91.6012104089662
91.5270758824387
91.6098037623724
91.8528482674847
91.8363249011485
91.5058224091465
91.4919412755952
91.6668114952143
91.7524700840769
91.7556811447291
91.7637945031902
91.8826319783983
91.8347389069377
91.6519736686267
91.4565854420578
91.3304414342309
91.6805825963189
91.7382213630939
91.5821588851593
91.4822736218478
91.7452996787417
91.7249694490453
91.4149984898316
90.9533707774323
91.291836393973
91.4669768943382
91.3868305721503
91.3142213003679
91.2349366439465
91.3228393437833
91.3914156602672
91.3769537918021
91.3718371821377
91.2459330823532
91.0122870530071
91.215916850097
91.2571952073959
91.1513840555361
91.1304206752416
91.2512223371447
91.2581278450477
91.2351927936748
91.2736557577814
91.0242911175584
91.0439218991707
91.2818815959397
91.3677937022992
91.3924449918864
91.4213414054878
91.5010007777604
91.5233759890889
91.5223042678018
91.6322739376182
91.6844719521486
91.5756051379721
91.6236959047209
91.5587038277694
91.6537340376714
91.867193924784
91.8857493698796
91.7760697903244
91.8168743955363
91.9829256525745
91.9947654744181
92.0273541067304
92.0572435718103
92.0988195319669
92.0110563862952
92.0270330190739
92.1624206229357
92.1872947174432
92.2178968280462
92.2875679732822
92.2076257628228
92.165878310655
92.2988260551133
92.3536728063752
92.329988854185
92.3500945336143
92.4060696828432
92.4292775457379
92.4289675290302
92.473125407633
92.5164122179137
92.5302819027576
92.4633733545742
92.35730714393
92.3885587702651
92.4420602065332
92.4827964413258
92.4852875157798
92.4940531964185
92.5219318489339
92.5267309049289
92.5406455986092
92.5615454467399
92.5531184831116
92.5206641791092
92.526903223473
92.5644018251444
92.5754031323328
92.5877971397226
92.5961456513128
92.5898319789189
92.6133137998329
92.6298794413762
92.6371154224091
92.6437900593488
92.6339870212285
92.6106586168552
92.6011509861349
92.5800877181192
92.5663698974064
92.5472471355265
92.5176402162563
92.5061938444816
92.5229908355791
92.5244211568686
92.4871375486533
92.4486291040206
92.4151176598884
92.3712629638584
92.3219582588557
92.2940339608918
92.2791073607864
92.2529663181413
92.2051102303091
92.1393417319403
92.0690588371559
91.9923469559351
91.9358475944973
91.882305456899
91.8011853814104
91.6938071911366
91.582211854687
91.4707304506098
91.34830414582
91.2019256939261
91.0273555668762
90.8558850914104
90.6902784314784
90.4997020376524
90.285883953847
90.0435353029025
89.7815119400901
89.5440407737838
89.285238147866
88.9903093464245
88.7126905149699
88.4242209791967
88.103420986987
87.7907027845856
87.4577113428579
87.1032405544453
86.7623745031817
86.4299642876052
86.0485303000487
85.6478465928748
85.2643602835912
84.8731375223671
84.4634845996175
84.0830500432645
83.6983137504837
83.3034870062087
82.9344339766959
82.57274336366
82.1751478295313
81.7900109580709
81.4252138252931
81.0805251225582
80.6940992503157
80.2935975532186
79.9321809355539
79.5687203528405
79.1698407761806
78.7899628527036
78.4144355270097
78.0545127796201
77.7005447996453
77.3256979198755
76.9616554717599
76.628405900417
76.3009890378194
75.9835356935828
75.6760275296011
75.3864646371435
75.0997537613668
74.8136997526497
74.5148535743661
74.2328826244935
73.9802720709541
73.7430922288081
73.4968306967034
73.2793749613882
73.1026929132635
72.9470467564252
72.8305494591697
72.7569962106783
72.6717750168233
72.6004631078772
72.5416985087717
72.4796840078584
72.4445477230202
72.4303126396018
72.4493357218032
72.4974681072494
72.5347262416596
72.5676672318573
72.6345344931325
72.7571313333921
72.8629692478953
72.9651112710207
73.1158064348736
73.3227179748688
73.5364100263481
73.7545776737061
74.0189680172864
74.3384144786681
74.6737315486913
75.0164675384704
75.3893177993113
75.7886941564223
76.225670286826
76.7069119271334
77.1681804855579
77.6127440721646
78.075233818712
78.5688501419188
79.0979358763334
79.6166345146802
80.1108307962003
80.6165104617866
81.10568663565
81.5799469577934
82.0432121578955
82.4777516735464
82.9121834846802
83.338980183153
83.6993099642351
84.0463382162831
84.3540164136646
84.6086320671157
84.8464847114702
85.0994983046259
85.2962417924183
85.4678623328461
85.6193053448965
85.7357264347718
85.8654327685722
85.9910106783966
86.0777240214877
86.1602703484255
86.2410263957202
86.2981800597729
86.3802497576585
86.4958459769885
86.6064657577388
86.6832746309583
86.7528568533606
86.8535660163331
86.9292442386072
86.9992350629856
87.0635404634215
87.1258239895489
87.2086215411219
87.2765301661689
87.3135295799478
87.393182631805
87.5046672931103
87.5636977837828
87.6051007074647
87.7243579248312
87.938952538309
88.1250042901997
88.2866890879198
88.4445422139277
88.5699946940828
88.6911609280737
88.8071316314274
88.9282238981878
89.0619638535333
89.1768497918792
89.2815857009573
89.368779492897
89.4664482025506
89.554703739489
89.6191798317538
89.6904018189252
89.774445427133
89.8405685378869
89.9321925171574
89.9958890484821
90.028022930859
90.0977885755372
90.1872586230265
90.2730601301009
90.3172781937241
90.339875025143
90.3807116388613
90.4264594032594
90.4463149817016
90.5076108502777
90.5831885061932
90.6345049860659
90.6599289586965
90.6935719777353
90.7073325829764
90.7342267830903
90.7980837003179
90.861916322761
90.8912063779594
90.9248739756258
90.9318849091789
90.9247374488293
90.9713939306231
91.0142033930597
91.0342094005928
91.070419783289
91.0844791293978
91.0906892994847
91.1153658498788
91.1674634588782
91.1834929819037
91.2093594379461
91.2209524773955
91.2407385876822
91.2445907001527
91.2428119315681
91.2509410838514
91.2621611035379
91.2987595681669
91.2870996536048
91.2292963278718
91.2114709103442
91.2359729748237
91.2095186168242
91.1611945224152
91.1335187844956
91.1588718536316
91.1793874317345
91.1445045069344
91.1241647465712
91.1143469458134
91.1057357338533
91.1282658732339
91.1215521494704
91.0671917612799
91.0388483472126
91.059569230341
91.055633433802
91.0356153105762
91.052607218248
91.0978098401213
91.0842924752984
91.054118522693
91.0846567293303
91.0844725543967
91.111181849582
91.1288691285006
91.0727658166433
90.984785954806
90.9726369615365
90.9525429200655
90.9021142838748
90.8935132346645
90.8799585517732
90.8309727077061
90.7727278508109
90.740225389022
90.6704187246692
90.6011882909409
90.5840525023295
90.564940003706
90.5351466774056
90.4928150346637
90.4492905779813
90.3897439052349
90.3445089228177
90.3405485288607
90.3128988358128
90.2407092823931
90.1400066864702
90.095535079727
90.0793436015245
90.0231931609875
89.9564409241309
89.902760370026
89.8359966300469
89.7888159566686
89.7673801509407
89.6939557352663
89.5991830064491
89.5204877475198
89.4242477599384
89.3460580635639
89.3087280309062
89.2501830813809
89.1759306473357
89.124240395805
89.0593531938382
88.9679690349559
88.8934310851836
88.8014458765056
88.7285745619102
88.6456610847798
88.5512427740526
88.4889403131718
88.4100415416905
88.2743627009687
88.185877504506
88.1252385604624
88.0348011734384
87.9544204012926
87.8697601922308
87.803790403593
87.7016915278596
87.5683852017025
87.4348008701688
87.3287527587967
87.2804984611766
87.2154762058853
87.0884291151763
86.9571869296848
86.8590324549735
86.7814750036391
86.6876539472789
86.5144179050551
86.3776930004259
86.2936799989842
86.1899978547178
86.0737630431811
86.0391139043196
85.9213767369032
85.75560627492
85.6122329581574
85.4905606542145
85.351346346124
85.2315662799893
85.0665673996785
84.9039657791626
84.7263230839311
84.5354023148548
84.2911779140587
83.9635369574822
83.6041538959097
83.3430243164193
82.8927886224153
82.6308754259118
82.468199597683
82.1433425431093
81.7848416796228
81.4290346646355
81.1264925799656
80.8356726047101
80.5946874623702
80.5141917711813
80.4190082246593
