1798
3999.43349933624
650.420452594757
1
128
4
95.7514805992756
95.7591871181953
95.7766380101905
95.7904320556815
95.6998936799692
95.7226462660829
95.7468577063883
95.6892801110959
95.7156192686613
95.7967308324256
95.8440374122191
95.6795394781896
95.6334861702677
95.7466768877979
95.7977298705334
95.7190570111341
95.7045383246113
95.7486590745082
95.7307966933456
95.7017748784678
95.6614051828135
95.6609089921089
95.7537939465658
95.7508966949385
95.7150717918079
95.6923856402768
95.7095351659585
95.7075883554147
95.7346466484848
95.7431926465578
95.7256891291897
95.7499950409845
95.7686885930176
95.7578535424159
95.7481361028692
95.6980885687404
95.6939916905742
95.7778883949236
95.7788546098632
95.7647459735017
95.7617701694669
95.7150762440864
95.7144356696672
95.6901069819542
95.7145734343596
95.7212808990967
95.8301579047096
95.7981451553053
95.7343720444674
95.7043982985973
95.6236226102104
95.6116743938921
95.661552311967
95.7866488412849
95.9489251789792
95.8376500187582
95.8433040128508
95.8265417063068
95.7918896804863
95.8116627284044
95.7256019871881
95.5837043312753
95.5934482962777
95.7166479456735
95.8449163682169
95.8725216485053
95.7232361453463
95.6374526916712
95.7125358305631
95.743145243762
95.7587231487721
95.747263714173
95.7773228671697
95.8346559064601
95.9409559303096
95.9186085622279
95.6783410457096
95.4710143346551
95.6146322448675
95.899713071265
95.9650828417736
95.8702632094414
95.7722784546375
95.6882466908092
95.6375008701541
95.6829494436165
95.760318760268
95.8351384847012
95.9509512120293
95.8708471264564
95.8140112859498
95.8536992733655
95.8945924742573
95.9093424334276
95.8758019353382
95.7518895386114
95.7803503259886
95.8426503476784
95.9351504925851
95.9649609153508
95.9537201952281
95.9122252845996
95.8136354835734
95.7197377056794
95.7531695296317
95.8947072098656
95.9153633539117
95.8512596264655
95.8568728487423
95.8538650842236
95.9003944813647
95.9561340559389
95.9255833859201
95.9701366437706
96.0738944207413
95.9079175081143
95.783971718352
95.8761642060045
96.1008972656053
96.0838613961623
95.9287716789322
95.7644534493019
95.8419667881099
95.9263113953677
95.870616589987
95.8929514854971
95.9778102708479
95.8854275237926
95.9718372676002
96.0886604494751
95.8934970232676
95.7175031230448
95.8093252988945
95.8579608496417
95.8690482563877
95.8788179445851
96.1631625392275
96.3710820464779
96.1068762533548
95.730560484745
95.5385476360853
95.6850679798747
95.9077720336532
95.8497562556139
95.9324904260127
95.923904513539
95.8195805820637
95.8920460882998
96.249871110569
96.3604114257838
96.2025651222636
95.7789732399436
95.3973994400829
95.6435065821928
96.2135027050357
96.2835122696506
96.0582676986273
95.8989266890346
95.8167682772217
95.701135930627
95.8744853924861
95.9033928010558
96.0129722904856
95.8090434941979
95.3857794351574
95.7676371454067
95.7663669629185
95.8216216420439
96.542593991847
96.3214192863134
95.9326905490569
95.70313696095
95.5695099642318
95.4179600894244
95.7564935375699
95.9923309756155
95.9925773299566
95.5182321334453
95.5949005176486
96.3869549726273
96.4228393678554
95.7426769917579
95.2993659704676
95.6040397268332
95.8902616109376
95.8615043326194
95.8323368621088
95.7123212679599
95.578012004402
95.7482235390373
95.8007901943272
95.8565451250112
95.9627954586337
95.8135910768865
95.4856082847361
95.2270564224876
95.408000637322
95.6808904672922
95.5853678234056
95.5400912550854
95.3404594418993
95.4502154915424
95.6502902790436
95.6650305192609
95.5168767940773
95.2886062551092
95.1958033389597
95.1230564084452
95.0826687229145
95.0505867673163
95.1268781332543
95.2730796081565
95.1264159721726
94.9383764194279
95.0026470442401
94.8972342999831
94.7087680260106
94.655787155193
94.582798451059
94.3065684088428
94.2074214641542
94.2539484574993
94.4227592580268
94.5519169566334
94.5790045559481
94.5445786194971
94.3944243608088
94.2248484485401
94.0949951230454
93.9578246235415
93.8195267621307
93.8250814073923
93.8841668465561
93.8861579610394
93.9221966913915
93.8878931189712
93.81005302284
93.6669149830162
93.6831830418245
93.7017566931916
93.4957475004402
93.3275978112404
93.2520811470782
93.3064940841299
93.493271334653
93.4905621079919
93.2513392406093
93.1384113820227
93.1792635837571
93.0926527154866
93.0167977979202
92.8591812391085
92.8141572739419
92.9370080511922
92.9216779753904
92.8328804572268
92.7226291260714
92.6199309330072
92.6286057069607
92.6470206265339
92.5902365225941
92.5065181801978
92.50672805744
92.4309334611333
92.3116246204247
92.4356675497077
92.4992787407531
92.361054034092
92.2931079276144
92.177042125494
92.2040681112272
92.2352419639687
92.2119988392792
92.1064309331978
91.8996334732998
91.8276403125199
91.902561615838
91.8389173314332
91.800265506798
91.8023315930139
91.7205138553827
91.6683303442957
91.6064711513616
91.5861861927017
91.5681083213742
91.4410155164452
91.3753386342176
91.3604865262842
91.2977808103347
91.2171262516848
91.0563094436704
91.0227221948448
91.1139851258535
91.107596457738
91.1087988002494
91.0364245757316
90.8962265969566
90.7265120627304
90.616150978075
90.5043898562857
90.4821357229242
90.4823857223981
90.5113604831386
90.4572938605845
90.3855496155794
90.2778447586943
90.2465416554466
90.1855861472856
90.1830862642422
90.0970143661902
89.9520784429597
89.8854588978634
89.8890645452291
89.7468658861756
89.6232810844288
89.5644123586032
89.5700551062624
89.5370251198747
89.4643825075725
89.2512720429089
89.1533265958128
89.2357580679355
89.2789110073721
89.2198760328755
89.1200895218875
89.0776801106802
89.0647446477286
88.904392082854
88.8084635769227
88.7864841614462
88.7749751784823
88.7629992777551
88.7464554625353
88.7459025006526
88.8194275474405
88.730872181745
88.7283779284714
88.6984792868398
88.6825871697101
88.6817982738468
88.7304359529677
88.8396571244493
88.8538019907359
88.7317822463049
88.7241756122574
88.7608257755222
88.8326067714385
88.8572251489503
88.7810139917398
88.7366390662388
88.8609479419412
88.8340376317699
88.7458635940318
88.7798207484323
88.9501407982143
89.0414812482761
89.0572190351102
89.0511095970271
89.1060069707611
89.1206098253951
89.0790402862215
89.1631791771321
89.2171835004894
89.2198108685215
89.2458028934429
89.2501687958373
89.2652701502625
89.2570779207507
89.3441078284205
89.3994563635527
89.4130478695821
89.4479729581573
89.5034506770098
89.4678666719628
89.4585349894609
89.4832878849569
89.639890043858
89.6875632074691
89.7049319029998
89.8639426650851
89.9652447631959
89.8674256276914
89.9197866784488
89.9558933085651
89.8895275924368
89.9113132330975
89.9795865213495
89.9819276863265
90.0084771837377
90.0466244179169
90.1245500646167
90.1204046925291
90.1213536757895
90.1130229783829
90.1957432616905
90.2911315562952
90.2619612794497
90.2719827115221
90.3263709972185
90.3484192418189
90.2682777768392
90.1771040012897
90.236302765949
90.2866952430581
90.2439532238541
90.2733309246206
90.3119169007888
90.3683567299829
90.3379281603855
90.2117336604294
90.278711561096
90.3306840877971
90.2948863889146
90.3366721423262
90.4219786294132
90.50589025596
90.5401259237634
90.4879005953253
90.5418127793957
90.6156128139133
90.7764592371175
90.780724614549
90.6929726445762
90.6678599286991
90.7651303018913
90.8679405569209
90.915275359155
90.8441302490281
90.8636200735055
90.9067431018246
91.0153619886183
91.0970355602076
91.1447292188868
91.2401813434942
91.2837509798166
91.2736374574497
91.319027962463
91.3818848549469
91.4397559941222
91.5018433603151
91.5043547871868
91.5171408149913
91.5070938303269
91.483031010188
91.545060945061
91.6459438211568
91.6381542597933
91.5955248046218
91.7282887060356
91.8527047537445
91.8404206421792
91.8238778585899
91.8860300616576
92.0086638869283
92.0106748483675
91.9911594255234
92.080809485934
92.1296911688148
92.2065218989933
92.2585745815647
92.2164968714661
92.1707530783541
92.227868884508
92.2890744269011
92.3472026534737
92.3663769549195
92.3951429843299
92.4716793151625
92.5348951545102
92.6301368653571
92.6230127193618
92.5456396074997
92.5862661043477
92.6596522722454
92.7821822292528
92.7512222652511
92.7422768362541
92.8682515591201
92.899984883119
92.8821551478729
92.8683909501615
92.8913267365396
92.9684177777847
92.9517973786792
92.9135836669239
92.9489983712976
93.080345461
93.1063833749551
93.0690739278383
93.1682465369474
93.2257237332418
93.2115845057537
93.2000264633857
93.2536189904232
93.30891113664
93.248713588943
93.2007294858947
93.2899633447087
93.398427817393
93.4087609365154
93.432572751872
93.4786161519874
93.4678093872488
93.4822085454372
93.5665866202579
93.5786886248606
93.5976491661818
93.6614682654994
93.6429566007152
93.6279496606187
93.603885058257
93.5778392726279
93.612022925968
93.6763482597819
93.7704723565494
93.7944246748254
93.7807230252488
93.7863197176502
93.8258152922217
93.824307192398
93.842715938889
93.8510350102366
93.8651738396939
93.885883548907
93.9659856730323
93.9440103646009
93.8879986334033
93.8911531399051
93.9043509528194
93.9875844652533
94.046754316248
94.0416847275517
94.0474702959394
94.038770114485
94.0917922299957
94.1216214746495
94.1125036475523
94.1327086024792
94.137700144353
94.1820838652449
94.2171724798121
94.1939808345136
94.153634302069
94.1480337834718
94.188555927517
94.2596215112971
94.2431372841603
94.2497636114609
94.2525510197755
94.2627214688507
94.3519453267747
94.3459572594466
94.3169358961059
94.3455822337563
94.3586353214003
94.3673939666723
94.4159867242947
94.3874056111549
94.3762085843269
94.399559461099
94.3657584540158
94.3210344099235
94.3869557587014
94.4338026857643
94.42961560365
94.467436527004
94.4944139814477
94.4293610648906
94.3718908735658
94.464569692268
94.5510988416863
94.5491774609067
94.5318324978218
94.5529591930761
94.5228265665988
94.493505484839
94.5384050337209
94.5696865746699
94.5047107254308
94.4681618267966
94.5542040165729
94.6422590436161
94.6641635621605
94.6257502591699
94.5787393226873
94.5863143604253
94.5988750543766
94.6330605320555
94.6379566073937
94.6718563143476
94.7395739213052
94.763042106935
94.7225639203762
94.6636114427222
94.6876450359674
94.7139230997256
94.6846398527285
94.6381188226417
94.6794617969892
94.7720159632781
94.8636346543263
94.8790234075885
94.7654622141148
94.7206372752458
94.7578822710029
94.7563742846157
94.7343912123928
94.7414602774434
94.8066914332125
94.8207061482563
94.8209026644019
94.8468391745807
94.8618738991227
94.8799107865048
94.9030413645678
94.9155862802895
94.9308071096017
94.9303913880889
94.8766804539481
94.8660359388655
94.8903862545675
94.8505409438742
94.8604206067466
94.917605811756
94.9617423306806
94.9692295881795
94.8858845820189
94.8731527311621
94.9431955254466
94.9761818526515
94.9768639034827
94.9799131676734
95.0078373897641
95.0179525989826
95.0076980348168
95.0353505503846
95.0172510945449
94.9825806251449
94.9712778540418
94.9754362565799
94.9747457366067
94.9889265957703
95.0206355363229
95.0412065613345
95.0529759349921
95.0335995013857
94.9817581670305
94.9927511593975
95.0421432237832
95.0500905432177
95.0851131870861
95.0984005234848
95.1151158923905
95.1716546065004
95.1378545140603
95.0806702079145
95.1038551192859
95.1318052407473
95.0851678033795
95.0712718232621
95.0983725426967
95.0875245252741
95.115196561452
95.1246924740787
95.1152864572835
95.1351259633746
95.1218014516772
95.0848087317422
95.095169698775
95.1075140674451
95.1338403553594
95.1697590670748
95.1824149088895
95.1837735952066
95.1321480579104
95.1183129270046
95.1245645936947
95.1605346311081
95.2086123589282
95.1941006524747
95.1186108827199
95.1088344830529
95.136916431562
95.140350517978
95.1574756349042
95.1904874974112
95.1846922517847
95.1755808751909
95.1865528311284
95.1814496666811
95.205271378114
95.2146159202978
95.1886265061152
95.1751285316485
95.1834662871605
95.243979476991
95.2398286164099
95.1883937970744
95.2062201170208
95.2335871478723
95.2010668210244
95.1973750129884
95.2238040026194
95.2359779739298
95.2543415725066
95.2444119578607
95.2444107186109
95.2501238122398
95.2132648720864
95.20082397347
95.2081526342906
95.2207211370476
95.2934912331134
95.3433642505613
95.2955147322122
95.2551086254251
95.2213078500474
95.2073035254894
95.2227840175822
95.2284879071543
95.2032374527465
95.2130526782981
95.2050621942688
95.2132767644993
95.2651450014115
95.2416957907325
95.180130139071
95.2032797252769
95.2253984530204
95.2726190922318
95.2998151339222
95.3283265533209
95.3161350839586
95.3314891416629
95.3562437407791
95.3069472467
95.2727773503974
95.326321114437
95.338840557303
95.3324646397097
95.3364617673507
95.3374317643314
95.3957642059526
95.4333495504574
95.4379277769195
95.4594699077339
95.4643283946217
95.3895331377115
95.3436878849661
95.3877173910012
95.4197948294906
95.4382273011316
95.4312773930361
95.4465874374776
95.5045598066226
95.5059165279238
95.4426040223865
95.4931834888141
95.5724332581812
95.578413879456
95.5514815004603
95.5632569254768
95.5844903113887
95.5775934536962
95.520385564567
95.5337419294566
95.6263276972681
95.6650246954849
95.6557067921938
95.6167464791656
95.5971771865306
95.6217047783758
95.5385224185442
95.4256621130884
95.4597544987314
95.5642385214402
95.6111076139337
95.5279062030308
95.56883352734
95.7327325682546
95.7105256767877
95.6248818448478
95.6213835262936
95.6078546637867
95.5726594993717
95.595716240943
95.5892855138615
95.5653408429321
95.5201959406635
95.5432145628766
95.6613867504812
95.7212031743525
95.6602477675046
95.6619360295336
95.6909773836503
95.6444972608481
95.609886746048
95.6876601904776
95.7781006438435
95.7599288813349
95.6485047202598
95.6109666363289
95.5951956997187
95.6417546363421
95.6639116776745
95.6851016011264
95.7559594770844
95.7637461041672
95.6494007559971
95.6246108401332
95.6188182414723
95.6875308480184
95.7565857205889
95.7253861545023
95.6956971838049
95.6414936613615
95.5975218657947
95.6113632712665
95.6213742172261
95.6714807352627
95.7893580323573
95.8155836029719
95.6956334675874
95.6070464992511
95.6008741612817
95.704386989208
95.7836775958157
95.7652824556608
95.6669510536828
95.5617723031333
95.6255188893246
95.7213483362378
95.7029414545326
95.7152180786687
95.7449256696333
95.7866189810788
95.7845755291735
95.7929527487303
95.7758246649631
95.6810241793214
95.6547438329067
95.6487571665449
95.6280591071797
95.6500017640975
95.6542276615402
95.6828965613232
95.7338479289495
95.6965030130038
95.6518784828737
95.6464398192246
95.6944821311776
95.6995908494286
95.6491779604766
95.6633410740283
95.6114696304296
95.6046705343275
95.6182138632001
95.592822268394
95.5339801407355
95.5277491593023
95.6215408776927
95.7203928008003
95.7847449143079
95.7177783627114
95.5817073525361
95.6150231655535
95.6776466633295
95.6060339278913
95.5418030319366
95.5604014232807
95.5751896951048
95.5613287849593
95.584850376895
95.622065273964
95.6317145747367
95.6331072268245
95.632114154041
95.7317609865369
95.8196935867569
95.7841842469188
95.6285735494664
95.5437855356649
95.5881260169554
95.663868989081
95.6854382115419
95.6357211333575
95.4941034782738
95.338118273088
95.3366253686772
95.4458361629462
95.4891689462286
95.5083048413098
95.4831827302339
95.4552893881886
95.4748308738288
95.5406687800096
95.504251270322
95.3787802458056
95.3558030821671
95.3823881284177
95.3823260056784
95.3606814460174
95.3686202935626
95.4732308400421
95.5227556211924
95.4660625321621
95.3790902740509
95.4136268461396
95.4461406883765
95.4624941692323
95.400121119412
95.363620444832
95.4359252049358
95.4615738022537
95.4423748290714
95.5034306695469
95.5577423631373
95.5309319805558
95.5522882482511
95.539778661683
95.4757752265905
95.5847475033127
95.7459711746238
95.7471039008388
95.681721187967
95.6774611763893
95.6236001281459
95.6317376833503
95.8309503626668
96.0163532946399
96.0606386306651
95.9399968623435
95.8163737597166
95.8375885748771
95.9660755513959
96.1448328016168
96.1797279108879
96.1180631622561
96.1771921071747
96.1937502788469
95.93741389095
95.8766389216279
96.1588266909795
96.1950199722788
96.0913874430697
96.2543428290499
96.3083727496455
96.3139882137472
96.373336280352
96.4621323956523
96.460828066261
96.651983245273
97.002607065932
96.7677323562437
96.4000388732233
96.4921441336135
96.6317073974146
96.7608193734458
96.6892536712834
96.6637239302229
96.7655152066612
96.6797525376734
96.7217794247504
96.8168266160835
96.7466969198476
96.733680746489
96.9553642696678
97.1070475375975
96.8553493303743
96.7284365321005
96.7391005546538
96.8302815553247
97.1333537395014
97.2267618019033
97.1009651114633
97.4212322246114
97.5972334964608
97.0999452802818
96.7767351522955
97.055614800241
97.4016715925469
97.1527274090166
96.9316537007405
97.3468751189195
97.764438225913
98.1954931566907
98.4095505851256
98.3245252648541
98.08624906829
97.8400860375664
97.6172301358782
97.5375404520589
97.396972864998
97.310493677777
97.156524068043
97.03128344517
96.9676500060318
96.9454089570961
96.8211495891133
96.6803794009799
96.5956678143359
96.6646030634813
96.6548579818169
96.4026561172399
96.291346145406
96.3609108297117
96.2524006598913
96.0887441534486
96.0994554305469
96.1537795370122
96.0980894312311
95.9730167904393
95.8898701851536
96.0063715456218
96.0169600109578
96.0766226212532
96.1089494954125
96.0519898792471
96.0582883155346
95.9712892018391
95.8935718747031
96.0291291034185
96.2255264535654
96.2163152099921
96.0781922600304
95.9427021680128
95.830426054915
95.8623882128499
95.9509722606336
96.0817239115455
96.1556084643139
96.2158927497443
96.2411258622395
96.2132239278285
96.2026936231931
96.3102647732947
96.2876681704722
96.1950446339041
96.2741816116554
96.3955471020547
96.3800259812728
96.4256691784929
96.4511382237322
96.4529051129756
96.5144028737595
96.5605579116747
96.6943229042965
96.8874974693762
97.0817054967871
97.2278114111414
97.1801995313844
97.1878470330718
97.4810015409239
97.7624996318217
97.6982802352164
97.5547428227551
97.533203081407
97.3392139782889
97.3573709427335
97.6693999006147
97.6391479241789
97.5889874980119
97.543575184411
97.3759486123106
97.2538353350665
97.3478848310539
97.3352246150162
97.3019973613907
97.3394401430624
97.3837001449617
97.4550960365076
97.5244244588061
97.3019160897581
97.0525614580671
96.9880986162126
96.9482072894484
96.7839513422664
96.823673086545
96.7197742567223
96.7362235959395
97.2618873906568
97.5796141918221
97.3365398513861
96.9997260757136
96.909459336958
97.1566518462442
97.2267746237327
97.4677280235536
97.514710587379
97.0793571439852
97.1936575959951
97.3339724759741
96.9835708187507
96.9971921733608
97.221373529632
97.1298762315674
96.8317052952869
96.6971328194797
96.7175933723819
96.6568318740294
96.4731691659717
96.4744569019105
96.4759345453538
96.5032084955532
96.5650574675207
96.590022562291
96.5427690515389
96.3694431107597
96.292036639684
96.4275548041997
96.3440714541651
96.2305274344105
96.2441274631311
96.2849731590889
96.2924910192194
96.2098740729517
96.1221364036873
96.1411136745809
96.1367458830556
96.0806408403768
96.0044073905351
95.952946413777
96.062453969211
96.0803082353532
95.9430262046328
95.9827682669121
96.0260086932133
95.9497288076207
95.8797432790184
95.9181323409337
95.9282298894958
95.8432963137412
95.8383664992071
95.9241098916823
95.9591064487147
95.9207049520965
95.8127773352359
95.7349265712631
95.7358703424781
95.8313201392673
95.8894177333578
95.7844118012638
95.6732889241983
95.6776596231335
95.7302919779107
95.784008972831
95.7558250334823
95.7086642561776
95.6994578993987
95.7397902859678
95.7194316520931
95.7221419913427
95.6955966930902
95.5913817296385
95.5738506718575
95.6004923005867
95.6054120493674
95.6421746570207
95.7017401840477
95.7502258756905
95.7310608853669
95.6745017513061
95.6559425111799
95.5503746417793
95.452102115716
95.5492383695085
95.6147257628329
95.5776917586959
95.6463320997465
95.6914670687753
95.6719137539025
95.6270844792678
95.5712969386614
95.5094376394628
95.4788546861236
95.5526055545761
95.6089996325437
95.5502012432995
95.4880226870394
95.4854348577324
95.5258261363086
95.5552055922706
95.5064187181622
95.4081895215351
95.3802412185907
95.4947154822566
95.6008500620432
95.54146176427
95.451141710987
95.4109802593454
95.4541503198718
95.5120708407117
95.5281818808103
95.4301439081665
95.3359833735717
95.3291963000332
95.4613056093293
95.5639395257464
95.5255881457213
95.4812141590471
95.4045846231113
95.4080220337448
95.4689410919834
95.4461634835103
95.388589182964
95.3935931849705
95.3040284247046
95.2630784100811
95.3376153459256
95.3872735967134
95.3595281147465
95.3127801979764
95.2954780029977
95.3028025691084
95.2542140586473
95.1295857371641
95.2027521632043
95.4129440758701
95.4220771712583
95.4097583799361
95.3383040198123
95.2515973583273
95.1208444836864
94.9727153751704
94.8687587205162
95.0632466625738
95.2662380163641
95.3000300108721
95.2190806805927
95.0482066609016
94.9177737944536
94.9005362005223
94.8678472947202
94.7523584876569
94.6873444275312
94.8690060417065
94.8489241349585
94.8677608472025
94.829513829138
94.5974312749677
94.3581152581107
94.1360892267448
94.0509616775197
94.2896649613335
94.4091362146083
94.1779966427069
93.9512299579891
93.7728114094543
93.7539050373316
93.6676437707751
93.5499672767495
93.549775212061
93.4515457679874
93.2148389762832
93.0686797589923
93.0221862181563
92.8170918767979
92.4255152776632
92.0107880811967
91.8794443601686
92.0426339750611
91.769361510817
91.2764814629416
91.0977593858439
90.9729682762264
90.5351213769011
89.998244723489
89.5644070969297
89.3835197879897
89.76639923819
90.1036925753453
90.1062614305834
90.0953976177305
90.1708712093796
90.2845830544613
90.4238681705323
90.6163228884334
90.5863590474793
90.4489079229565
90.6349111016264
90.9246890436627
90.9309014987268
90.916797099024
91.0972759554201
91.3605437733989
91.5687417563693
91.7650707618992
91.9993372836107
92.1708105545001
92.3109849625551
92.4649663394359
92.6339041731776
92.7641408745382
92.8579941660746
92.9401788149644
93.0231753388812
93.0736047561525
93.1410454813347
93.1532334304723
93.0870024126382
93.0617307048367
93.347730800578
93.4781022363214
93.3476171461292
93.3206171755298
93.4771331659207
93.470667921581
93.3377672203744
93.0836207504718
92.7240541907981
93.1958960816897
93.7033156211577
93.6583008186017
93.5664510393451
93.5034406554414
93.4750298791258
93.4322727281159
93.2128210037341
93.092841502163
93.1280004087819
93.499190209422
93.7793049105808
93.7377745713889
93.5369288500275
93.6007860740523
93.675860108659
93.539668634467
93.4416943274352
93.4666634860226
93.4774260054331
93.5320503790127
93.712851242498
93.7002256845313
93.7419609093736
93.735668131512
93.5580390776852
93.3436899880669
93.2207204805976
93.6856069028666
94.0659379193397
93.945075133104
93.6955116594697
93.5960885658855
93.7191063965008
93.8597135302164
93.7923494350398
93.6001852392905
93.6359210068478
93.8200747095324
93.894236756875
93.8719752489039
93.8069761674011
93.757068448779
93.652403310839
93.530792308258
93.5517651100292
93.698695862423
93.9094537410631
93.8632103043414
93.6817385125581
93.6237309955793
93.694071280426
93.6063244396467
93.3252240717118
93.2417954098834
93.5917707784518
93.7672394249134
93.6246384585867
93.4900951490304
93.419978006422
93.5080524619419
93.5312685643401
93.4549522676245
93.3505531264281
93.2379433603989
93.1798353720727
93.3826015555375
93.4334747142818
93.3195479385366
93.2949327107465
93.3306077112338
93.3084811324429
93.2318128486455
93.1908565050095
93.1372823702548
93.2492231984358
93.4638826579148
93.4890166834158
93.4385605899394
93.4216418297469
93.4691561231548
93.4864797390023
93.4927477121309
93.5471747925845
93.5696228030285
93.5007030885477
93.544510836928
93.6284001398476
93.7290650324738
93.8454344471018
93.7949222766932
93.7218227595754
93.8209841948245
93.9834500914801
94.0017326426309
93.9777312815094
93.98328404737
93.9992550403668
93.9960749970789
94.0400212033108
94.1526193600862
94.1922482997219
94.1811667558378
94.168894099707
94.1542022750702
94.2057325360676
94.3318968780367
94.3742373010377
94.3483178689743
94.3306711022469
94.3620550057216
94.3793984521828
94.4071637412719
94.4479698860682
94.4608351855166
94.4511299409567
94.4113593869965
94.3795715944996
94.445621070377
94.5144609765578
94.5348356873386
94.521315591196
94.5258008122957
94.5331639116622
94.5188661835726
94.5253101152141
94.5458112139377
94.5370581732431
94.5358209535391
94.5690004605241
94.5990611154703
94.6192770467408
94.6390809511112
94.644889681147
94.6406826601566
94.6450607299249
94.6670067073755
94.6819688518397
94.6756227375219
94.6565855891031
94.6559627461767
94.6774019746583
94.6756379955614
94.6580495153461
94.6532863272409
94.6379256447265
94.6355031329646
94.6370460458326
94.6302241164327
94.6030848404501
94.5806842928708
94.5601213279547
94.5184244244732
94.4814046605495
94.4494341167126
94.4196818264198
94.4031952680825
94.376813518698
94.336510542732
94.275649650162
94.2236535901897
94.1873385757735
94.1346846472917
94.0576911570654
93.9746234863201
93.9015662403724
93.8416778942601
93.7543747241222
93.6292072629068
93.5173610665075
93.4282225943541
93.3070997584716
93.1548202436596
93.0000779749457
92.8370587680125
92.674792207292
92.5068561295684
92.3113502930564
92.1230865343802
91.9210023037242
91.6991274130799
91.4590270497241
91.2217811739807
90.9804298673815
90.712211576806
90.4152953023234
90.1054591249468
89.7773524007971
89.4447727855941
89.1152987296075
88.7660986125558
88.3884288742243
88.0289232788696
87.6966537000884
87.3696866193071
87.0346251587802
86.6817696211322
86.3448545081633
86.0409773594371
85.7201868352559
85.3858925063752
85.0342011570531
84.6908241504888
84.3610558371505
84.0440683514738
83.7257787207767
83.4277593182572
83.1450407203288
82.8586634093786
82.5793453411022
82.3134319929634
82.0406099032009
81.7795833591829
81.5108357576891
81.2510306148254
81.0358568001732
80.8194369487271
80.5560952258159
80.316962849968
80.062281511225
79.8109769007551
79.5947126431434
79.3856593069408
79.1640498444776
78.9645898393942
78.7871400873115
78.6768350407153
78.6397411780295
78.6348655429084
78.6566723192698
78.707475903844
78.7372097839741
78.7568530851926
78.761661968673
78.7703991479019
78.7983475925082
78.8450134799569
78.8647806594263
78.8785266340615
78.8932128482555
78.9199639181476
78.9616376303957
79.0465464802678
79.1604869004438
79.2900895095438
79.451260381656
79.6518919209852
79.8803352377784
80.1755788328848
80.5310926005202
80.8848621436709
81.2028382817868
81.5432504426784
81.9008020131182
82.2251922304195
82.5172269457184
82.8374663016236
83.1926375046534
83.5522798147686
83.9190690767197
84.3052380264686
84.6917469647067
85.0774556091353
85.4536508972493
85.8323079808815
86.227506144334
86.6331891591072
86.9846430028291
87.2985679359786
87.6024213839005
87.9016705058193
88.1732375392387
88.4192835849746
88.6298585197542
88.8303681153448
89.0108782815928
89.1696733786588
89.3295999010113
89.4474533221245
89.5586722531926
89.6671469237535
89.7398568485977
89.802699910902
89.8832242732825
89.9617057878935
90.0075193896831
90.0709525671574
90.1357143237434
90.1706475807452
90.2126130417231
90.2550572802469
90.297538950796
90.3506917793528
90.3891299969879
90.4104119867419
90.4269695012816
90.4663666656674
90.5207442448033
90.545110837887
90.5522762957022
90.4931047476357
90.3426959006384
90.3766382575098
90.6840438364119
90.9745962256181
91.156890822442
91.2930039704749
91.4036548422153
91.512047678313
91.6310044439949
91.7418518730936
91.8035137413166
91.8957919817983
91.9918059384762
92.0378119485086
92.1048089040775
92.2111928476514
92.2705497858174
92.3105288571123
92.3716839048373
92.4252288251947
92.4739988066021
92.5625310921674
92.6372054603977
92.6586539065698
92.6915441321778
92.7436226779721
92.7828707392812
92.835539696963
92.8602875269018
92.8852843520698
92.9152823537021
92.9513906267452
92.9697273320985
92.9850111084183
93.0239888698663
93.0507906628365
93.0617692269966
93.0883339059082
93.1131430656963
93.1607307772121
93.1816952088115
93.1527939878662
93.1754998068654
93.2191398881287
93.2425221801464
93.2882896813497
93.3120725894671
93.3138113217346
93.3142352988168
93.3422327936729
93.3853388679947
93.3853006001049
93.3408764764642
93.3525978664812
93.4017371652457
93.4300479503226
93.4282893942353
93.4208240566484
93.4401025046362
93.4626159524649
93.4609592199717
93.4723076180073
93.4790614399681
93.4523317768433
93.3902265564706
93.3524184936595
93.357294097697
93.3617575947428
93.3531145101478
93.3529815389935
93.3141219028616
93.3377448864352
93.3646177864799
93.3074015863539
93.2790038213949
93.3090108481787
93.310161957891
93.2844701727372
93.2685390279417
93.2815626090174
93.291999944658
93.3122382436144
93.317569613283
93.3631986729528
93.3801678368995
93.3858313986872
93.4190119834535
93.3890945678143
93.3478566995012
93.4028031859735
93.3934452905789
93.3120697810981
93.3351652690659
93.3660231133809
93.3446804409753
93.2987872740293
93.2831298672191
93.2941048389804
93.2296682988092
93.210595139987
93.2732963495506
93.2539745304841
93.1784379001555
93.1804876178098
93.1769221043745
93.1349361039066
93.1036005467698
93.0623729959384
93.0352478318453
93.0397932020756
93.0195062171326
92.9918672059374
92.9844042538028
92.952189891122
92.939416441334
92.9204207761494
92.8588865828759
92.8672590715181
92.8307015543952
92.7853731592665
92.7283269387642
92.693223262432
92.6836362472134
92.6260145983299
92.6299979660276
92.644252571255
92.570344740965
92.5070219612032
92.463957871511
92.4677095826781
92.3806443695713
92.2723940142181
92.2759205189831
92.2750309277853
92.2235822435224
92.2033829069834
92.1375993937474
92.0843233830517
92.0443221911521
91.9702987532678
91.9381336407014
91.8242134900089
91.6980453104953
91.7040132878519
91.7021452557277
91.5980377135961
91.5073169986149
91.4869536955955
91.4246214900748
91.3361733078158
91.2222238621082
91.1388613650968
91.0981186566472
91.0435540439466
90.9499600557331
90.8337424112841
90.7244280858768
90.6420654757879
90.630737769672
90.6356592138526
90.5461906096361
90.4191245596257
90.3051284306386
90.2238461378331
90.1399581979175
89.9857131451769
89.8322376469993
89.7870098886933
89.7109725226036
89.583415658212
89.4111632284563
89.2467009752952
89.09611664391
88.9321329426292
88.6810489162676
88.4305703220666
88.2052310986443
88.1099188245425
87.8218255434802
87.4358822945538
87.1583369367481
86.8651329412773
86.6025496930951
86.3644217527099
86.1576103325613
86.0305314410928
85.9887214351644
