1798
3999.43349933624
650.420452594757
1
128
4
94.3939415153445
94.3393877789287
94.3886684752629
94.3918070235873
94.405702677418
94.4337428212898
94.4469211443246
94.3655965707624
94.3401116906297
94.4122202693472
94.4698702907654
94.4345123483773
94.3640855098542
94.3849870725812
94.4814966901116
94.4999765420685
94.5169567763532
94.432451899002
94.4075012773881
94.3747108409566
94.3880530740108
94.4207484779309
94.3890028779401
94.3932966940207
94.456314864394
94.4229309588554
94.4100784551407
94.4369427375445
94.4879132512299
94.5105671911571
94.5812415478183
94.5445913151028
94.4315273331001
94.3761032949655
94.3997258508428
94.4180258346816
94.4535530847125
94.4496113237491
94.4959931089342
94.4610349134541
94.4306235139273
94.4252096274209
94.3488246944501
94.3877638155276
94.5522658355297
94.5409241836104
94.6209528230791
94.5788596055157
94.4797024512865
94.4460082850613
94.3752880718863
94.346125394171
94.4381112704043
94.4211843629427
94.3973257065314
94.3824044434246
94.4132009606239
94.447469628211
94.4891771535889
94.4559436237187
94.440584638021
94.4492951120039
94.4850044948498
94.4811375682724
94.5516650149573
94.5571353278461
94.5279523658416
94.5196216219047
94.5630030513627
94.4522756172198
94.3301678546843
94.4886477721492
94.6263238105953
94.5930354012577
94.6337903373984
94.5920611967826
94.4625234269406
94.3608130501931
94.3659181910964
94.467508728189
94.6476936902585
94.6118127813888
94.5125579135723
94.4101129005673
94.3369034474401
94.4492879511055
94.6050639150286
94.5221301418381
94.4678732868443
94.5714091732346
94.6866256173534
94.5838219327355
94.5309971609079
94.5503400649653
94.5026485598467
94.391801708463
94.3949748284247
94.4796112352572
94.6417643221872
94.6398961783876
94.6747492056133
94.6450781954686
94.6099002910819
94.6282849435791
94.5561148947842
94.4935314607306
94.4849055530263
94.5109358714401
94.6175339083324
94.5812312816692
94.5941536676533
94.6110669909663
94.5643005908207
94.5333142728647
94.5897802040077
94.5604489234392
94.5777677036197
94.7180365946667
94.7433988125258
94.7332960688245
94.6934374709345
94.6272436463559
94.691100666232
94.7164141412547
94.7048109736425
94.595815067141
94.5827494384713
94.7290792957899
94.72643183368
94.6331885467633
94.6429960625622
94.6387240082151
94.5934920594885
94.6847659794192
94.7144239476125
94.6704790721637
94.805741301769
94.8136641239444
94.8059868369568
94.6779166376996
94.5875042630149
94.5259296659963
94.512757976466
94.6778889976099
94.8228720015472
94.6882531971
94.6575848106435
94.5620523906953
94.5321676982793
94.7325125969938
94.7853910843812
94.7081509752753
94.6223374589552
94.6776112037617
94.6540884626011
94.595524954131
94.7180941973556
94.6652339733933
94.7261884795437
94.9064637820725
94.8914005705768
94.7566296962986
94.5997934824408
94.5082919545333
94.5189849117583
94.5559018645749
94.5644620598662
94.6756652957385
94.8278335871207
94.9405310572219
94.9255782133096
94.7874303842186
94.5927353101706
94.3560427033535
94.0370273492511
94.1593120464009
94.4615868826223
94.6106656218392
94.7134744999353
94.7735696776688
94.8201005021783
94.8059888986127
94.5535992397005
94.294153623134
94.3489984583696
94.3910547272026
94.6617293766707
95.0128069930419
95.0422269942015
94.5666022835679
94.3310763786824
94.3045421497537
94.3676210797256
94.2486844352986
94.0068881641755
93.790853364536
93.7847204979817
93.7180974140528
93.6895299931165
93.5281900545573
93.8733436771497
94.110391132509
93.8207325890813
93.8217428401088
93.8545454905617
93.5111892319505
93.6805981483856
93.9223209351816
93.7414609049105
93.636707649783
93.5051377287981
93.3263371025101
93.2644090472428
93.2603557506158
93.3427923177584
93.1185021962257
92.6915922929324
92.6596172478236
92.8994708940883
92.4279962562203
92.0999637844171
92.5564325940997
92.8975829290865
93.0123463812346
93.3034312238652
93.2119948728716
92.6900296617092
92.4585499038195
92.4266675996243
92.3511173137141
92.1155089506957
91.617981284857
91.7050708923384
92.3260782769812
92.2623145885088
91.6993150831018
91.4841033372605
91.5719942445396
91.6378436378253
91.7557215888326
91.5365263986989
91.2319250387085
91.5185177502862
91.4371406066034
91.5234436430166
91.378254842582
91.3538060161293
91.4232107344488
91.2288167238132
90.9119188841727
90.7419121383324
90.8341617776676
90.8577080423903
90.6738106911978
90.767534219358
90.8130617644778
90.6758593285537
90.5987436018284
90.5638980640512
90.4618484338515
90.4004536583949
90.5811825109065
90.6692497151429
90.3676214036309
90.1575984258061
90.087621748428
89.9856634359644
89.9654117036813
90.0769942030862
90.0405990693043
89.8343195404885
89.831542580806
90.0857462911789
89.9827531179139
89.6558903927426
89.5982354817335
89.5603416123215
89.4558888890473
89.4226914336301
89.3008311790255
89.3317171993918
89.3437792714246
89.2410878684863
89.1357876019681
89.1397316657721
89.0816299548059
88.9906853469766
88.8920936031297
88.8679683814022
88.8174609433497
88.8372037086789
88.7440057100678
88.6560775342844
88.5762446106617
88.4420670254351
88.3869971993373
88.3515860661167
88.2246721356755
88.0278269947979
87.9004542250186
87.8881601532058
87.9577682543718
87.9529652550068
87.8578919983451
87.7316738038215
87.6561224197175
87.618870674342
87.4356111291991
87.3689094189535
87.2387353926784
87.1784747557994
87.1085417890804
87.0086000889459
86.9874630711764
86.9173133434446
86.7019051667309
86.6638614113741
86.6027518910817
86.4912336406594
86.4501789337923
86.3601962271507
86.2215416401609
86.2782756167839
86.2923140770584
86.231622365019
86.0425098523356
85.9648452131827
86.0413767711079
86.1078103974637
86.0237373728246
85.9490263141356
85.8457802965077
85.7812568651154
85.8249661648785
85.8530589006458
85.7954951403469
85.7878187652583
85.7669408410875
85.7813286978824
85.8013475379718
85.8863188360989
85.9224354522247
85.859497692455
85.7809860381822
85.8359289736797
85.8553574453497
85.8507967166413
85.8451070632866
85.880030758286
85.8556219968931
85.8604864929855
85.9278826001715
85.9855206133042
86.0142955931084
86.0084804108372
86.1297258200892
86.1671814549188
86.0818736290724
86.1377374545312
86.2371904739752
86.2553720965425
86.2620345202219
86.4652554555345
86.4929615625755
86.5086851142348
86.5620037438029
86.6241227776048
86.6737422217326
86.707331656803
86.6382539737787
86.6397675960215
86.7754115439841
86.8562910613917
86.9211240114306
86.9591810261604
86.9689265852292
87.0152434537647
87.0268144438118
87.1237843280405
87.2349373945319
87.2423426242022
87.2001800609148
87.3261967156758
87.3295713129294
87.3131013637247
87.3428574719032
87.4456180658702
87.5845052815914
87.6143769002754
87.5907996302749
87.6332945281414
87.6879938530579
87.7304236253488
87.7565333710067
87.7687051185079
87.8307928191838
87.8473846713691
87.6854637153184
87.733208409496
87.849221820682
87.8002819970982
87.7165449675405
87.7241826534607
87.7677757658539
87.8440977542037
87.8914525953359
87.88439953001
87.8501319794863
87.7257261802429
87.6674315147088
87.8507707094081
87.9457011184127
87.9874860645615
87.9923949105059
87.9588768828864
87.9842141344421
88.101477445281
88.1605776595502
88.2083052465132
88.3338298421095
88.3812100793398
88.3330627085434
88.429812028459
88.6014905721057
88.6166005584679
88.5460363653099
88.6045285947987
88.6882568486037
88.6940241335858
88.6576266834878
88.7010192287829
88.8621668325265
89.0297786427326
89.1076374145401
89.1490059474869
89.203144639867
89.2276308226878
89.2443898254427
89.3344557505658
89.3723163801503
89.3566366969659
89.4007262273185
89.5027583152229
89.5316569711525
89.5418014782875
89.6274270479071
89.7208690469262
89.7225821810823
89.7659961152602
89.7994330140048
89.8784851567545
89.9612489144504
90.0390763947757
90.0611190420606
90.101442955842
90.1532011212452
90.173409288395
90.1645088655055
90.2015161993389
90.2570256171491
90.4059604339585
90.494171077466
90.5322042042482
90.519601733775
90.5126135067198
90.6046624650954
90.645286761977
90.6639250724413
90.7438221750852
90.7776262835446
90.7564136256405
90.7396800025635
90.8802309463304
90.9308521374698
90.9266868221264
91.0338079462572
91.1119961454146
91.1566352208797
91.2350249583362
91.1511145983589
91.1395918008256
91.2122289074107
91.2132370530137
91.2567464978259
91.3363011261365
91.4184235088798
91.5441099999721
91.5979933359099
91.5263797206262
91.5376759623325
91.6056372213667
91.609436160336
91.6502355360102
91.7547117482748
91.7413675748352
91.6908143129681
91.7755531863784
91.8851141546794
91.8777277351717
91.8164118287498
91.8375461595136
91.9042211581529
91.9011194201692
91.9411652224213
92.0602130604099
92.0882591448387
92.1249650491761
92.1489104027512
92.1808039233018
92.2120425198839
92.2045654292918
92.2278641539494
92.2417524774498
92.2651980858369
92.33917595527
92.3833518287191
92.4081480540328
92.3636176227455
92.3593650448701
92.3681121290437
92.3998070711546
92.4406502431794
92.532495674511
92.557570926759
92.5467550098769
92.530252438047
92.5650747079291
92.6361263523815
92.6470017087743
92.6419848602508
92.6535953887384
92.6849744182979
92.6594984971471
92.6522066401948
92.7422128183348
92.7998288684392
92.8226768416928
92.866858559991
92.9241535851528
92.9042055332867
92.8141321067394
92.7726322421755
92.8103613354168
92.8906344825011
92.9344692060151
92.9133213733504
92.9070305325804
93.0030312215079
93.0133450758828
93.0096192559672
93.0392841260181
93.0330093906303
93.0609562509775
93.1075134669221
93.0597034553192
93.0505037412265
93.0948945435429
93.0472488758719
93.0727503836097
93.1332533720425
93.0919521264636
93.080064913279
93.1668988477742
93.2481707865122
93.2524174229819
93.2215175342533
93.2431479190245
93.2766974955666
93.2551643266803
93.1676646570653
93.2112018870848
93.2972946301224
93.3172194836082
93.3633248320245
93.3665811468196
93.2903465343442
93.2515896927298
93.2966424388022
93.3512995780339
93.3559166460721
93.3100646019812
93.3313037523261
93.3558933122662
93.3441668290129
93.3775770834033
93.4423732676443
93.5083872295899
93.4825973363801
93.4584188399556
93.5016278090264
93.5256661481891
93.4929851743706
93.5269267639823
93.5528884204969
93.540916852956
93.5482059911527
93.594338284574
93.6190072802842
93.6015993494852
93.566293896959
93.5757092481309
93.5651704114777
93.6045607774281
93.6495461094061
93.6855531887178
93.731773868406
93.6799748411706
93.6455149384808
93.634741897323
93.69812492524
93.7534916565879
93.735211215393
93.7225372539226
93.7881914161644
93.7972204649829
93.7312176969583
93.7193396045364
93.7365461778297
93.756795171061
93.8072215609572
93.8316508726488
93.8076358337283
93.8367556767283
93.8660707537858
93.7938206452287
93.8026321109221
93.8561434764863
93.85568156448
93.8562935057762
93.8768516142858
93.8763971144561
93.9007068146556
93.9248823555921
93.9434332106079
93.9432881656322
93.9108617088631
93.9072934681965
93.9138240820508
93.9285303187951
93.9783037055952
94.0144172246491
93.9913908756812
93.959614976306
93.9585293557525
93.9543693947245
93.9986769516
94.0476581447852
94.0474909612862
94.0267979325201
94.0089715066868
94.01289254704
93.988855782704
93.9780397227241
94.0177784246424
94.0531782558223
94.0393676645005
94.0482127154483
94.1097342177174
94.1265872189451
94.0904911269545
94.093235089746
94.1096187414602
94.0459165390915
93.9959886593694
94.0668895854238
94.101554109207
94.0919985507873
94.0918316365707
94.1196672207335
94.1278497408485
94.1274915874348
94.1468547273118
94.1401061546824
94.1289021554293
94.1319858065104
94.1468804846043
94.1525655783789
94.1397634121098
94.14455884261
94.1706304761865
94.1884305167022
94.1474000543584
94.1537610275171
94.2184966384346
94.1946682846355
94.1683191865095
94.1747587606197
94.1787577375878
94.1990031865074
94.2076391414347
94.2289995082048
94.1846664159873
94.1410141304177
94.1825588156986
94.2153422730015
94.2060335185346
94.2304991908119
94.2539163246565
94.2655897077325
94.2584073930265
94.2082444857031
94.1875014005288
94.2342373625326
94.2453429882088
94.2134439137925
94.2438047633192
94.28433801169
94.2721604172689
94.2539395558436
94.2687879458765
94.2980594063278
94.2784489955501
94.2568214480956
94.267612456129
94.2942676349117
94.2837076467985
94.2479041505394
94.2782915863647
94.297177301455
94.2631792184507
94.2531257310242
94.2554247188894
94.2850971109002
94.3254941408016
94.3240698957338
94.2723177090016
94.2687208669892
94.313345709185
94.3314278754574
94.3263763596259
94.3780987721147
94.3907107329749
94.3378497273355
94.3228141342025
94.3448104272123
94.3596537281514
94.3561982107738
94.4151339417759
94.4717359918032
94.4597684586058
94.4371287049139
94.4613066862959
94.4309511415307
94.3960784264178
94.4656129412142
94.523309015184
94.4714166755234
94.4476886013889
94.5020841644866
94.5766204511245
94.6283148056692
94.5323610480109
94.5211154382824
94.6169937317826
94.5573035655246
94.4939714071527
94.5154317398263
94.5373150304302
94.5464313766642
94.5562079176514
94.5321055461642
94.5701710391496
94.5759079084072
94.5823133959481
94.6502797965024
94.6515362529452
94.6303472067107
94.7038199419706
94.7193086273834
94.666264535102
94.6992920821026
94.8067203257002
94.8034785707819
94.6578273810081
94.5796899154977
94.6161578379447
94.7294858908571
94.7749549070967
94.6542004426862
94.6678085482318
94.7193244998941
94.7595992841953
94.866233156979
94.8998596240458
94.8149574932273
94.7163648022279
94.7447815901351
94.8064790107851
94.7409901563444
94.720427926116
94.7568216888439
94.7690786552916
94.7546041753839
94.7549898872159
94.7819484639817
94.7799853315347
94.7525744676282
94.7931814483669
94.8317580327872
94.8523877217474
94.8472172445901
94.7689452931173
94.7326025430252
94.824042044602
94.8257897980589
94.7407721132733
94.7459647505806
94.7843319829219
94.788598348787
94.801070230615
94.8036749454865
94.7609802876553
94.7594192008641
94.7317821950515
94.7556077435124
94.8088991462256
94.7772482702707
94.7958556340494
94.7963968874625
94.8162875239619
94.8683353859902
94.9303146381747
94.9406646318835
94.8593778127854
94.799668311896
94.839636956778
94.9112542858293
94.8913650542349
94.8333185014421
94.7958494836681
94.7912503884523
94.8025096727363
94.7974262317752
94.8539355396718
94.8005646628865
94.8351857330791
94.8255094522653
94.7756882099968
94.8476417910445
94.8167888489157
94.7790633169749
94.7772359344087
94.7746509288335
94.8596522036856
94.8368060771641
94.8560075794166
94.9973475616161
95.0356417929234
94.9231397369401
94.7312768878764
94.6689141593156
94.7721833924085
94.7866084228523
94.7585363166209
94.8256170856187
94.8806548246645
94.8083851339868
94.7807828961608
94.7647134291837
94.7222661822873
94.8079116004527
94.9232683122376
94.9119309110698
94.7999480467056
94.7677843902106
94.7730611640666
94.7793507996518
94.7951847267086
94.7904731002471
94.8063930255215
94.8328656015499
94.7769720262112
94.8044442824856
94.8297068776075
94.7836244387793
94.8335843437922
94.8844719047022
94.8176263121319
94.757599919851
94.7489998500307
94.7644586522307
94.7545224232625
94.7266029225889
94.8190153939678
94.8494850056925
94.7868578754229
94.6998880381387
94.5695219752241
94.5393092640745
94.5810385148996
94.6089196943661
94.6194635039184
94.5905192722533
94.6322450255242
94.644469133599
94.5794943822961
94.5390022980637
94.5488281502427
94.541273654501
94.4515407921687
94.4327128505554
94.4968535215499
94.5283844548208
94.5111762298239
94.5261882229886
94.5849360802353
94.6058398847942
94.627126301004
94.6126836761117
94.6143838897612
94.6222492888004
94.6314365391068
94.6950543994233
94.7079100860865
94.6444088959727
94.6348412911935
94.6551522217601
94.654734961816
94.7036008200684
94.7979585286456
94.7990543958682
94.7320892954886
94.7362346574834
94.7749378173156
94.7374298888547
94.9216008068714
95.0819835035747
95.0959063846057
95.1739704664775
95.2562577165615
95.2073754577696
95.0547410286571
95.082914470745
95.1733836828186
95.1676406607994
95.1172626095371
95.125585033687
95.1832404490451
95.0937156914432
95.2904479090541
95.4728073573206
95.3799412824162
95.2335066357111
95.2226543462593
95.291511227579
95.48706246264
95.479134174014
95.4158619249543
95.5714725138274
95.7375148564587
95.8231221169086
95.7037448630699
95.5240736242132
95.5523521295927
95.6291602471741
95.7078304564664
95.9173300688557
95.930726486891
95.8847116141812
95.9969980734039
96.0016242337822
95.8235222750487
95.8590100887048
96.058640717079
95.9920261913081
96.0467547074831
96.0768073053868
95.9485699890412
96.0455641241135
96.1259493815932
96.0115463911009
95.9772004986043
96.0405708883193
96.3888900119936
96.7778772293743
96.7363816333722
96.6034752884072
96.5852366402726
96.3964107008306
96.3045428736341
96.3773445529083
96.5245529350657
96.6606295034958
96.9046133314733
96.7947862672674
96.3240639479611
96.4407986019914
97.1504943315489
97.2021113281242
96.9174280053828
96.8011675913033
96.8961140399171
96.8373311966017
96.5452923338938
96.1625547627453
95.9624324384774
95.8278913996398
95.8054675581595
95.8939167110037
95.9992049846331
96.0333173706136
95.8399151024055
95.6107643122053
95.504611792797
95.4087778268488
95.2777765412937
95.1537497011876
95.2076703992604
95.3417242883274
95.2357905535503
95.0557595859517
95.234089846187
95.3561256343036
95.1925302536439
95.0972032627376
95.0979857757354
95.1189571562224
95.1360446241569
95.1953720175358
95.3276703096742
95.212266498746
95.1020417685679
95.2162554682181
95.288072529233
95.2423824556573
95.1624021108074
95.1848356854415
95.3687601844386
95.4410828088776
95.3215534008581
95.2327850826224
95.1999533560688
95.2755961598458
95.3271599113874
95.1751397787562
95.3422904183905
95.6796155785329
95.6712400275223
95.4743054174805
95.2953910181181
95.4254764121747
95.6990014903319
95.6904178510784
95.6900024817606
95.6866547035662
95.596110527274
95.7254522726124
95.9991209654363
96.1239076313692
96.3289868051981
96.4429920461146
96.3220852203794
96.2808205641212
96.2356049049987
96.0618380378729
96.4059516826618
96.9248861977135
97.0863702105553
96.9485882871724
96.7659872944175
96.4418058528219
96.2745663613674
96.2951572934885
96.5938575826374
96.6217391936645
96.6555659999461
96.8438616850097
96.8743752507092
96.6748491943839
96.3115692434184
96.361829459729
96.6085482766839
96.4391331318003
96.3298242920283
96.3347518873631
96.2757461210269
96.0826637198855
96.1331125209081
96.3361066142728
96.3543027043929
96.0472872266879
95.7746912628231
95.6990699636307
95.9128113275793
96.3611756251638
96.7379204454157
97.0188780397239
96.9017202671639
96.4167385333114
96.5095418223561
96.7800619611469
96.3969731590046
96.1547564203234
96.3448701914041
96.2029006157889
96.0471808733916
96.1922446019942
96.3120654564959
96.2970746132495
96.0978274063865
95.783178901757
95.8019765991743
95.9816129679
95.8176711017908
95.5716642368198
95.5745227245476
95.6124086361051
95.5469775718119
95.4431981122094
95.5170380125465
95.5984524409461
95.5479958051058
95.5857460325192
95.6417178795692
95.5166524857668
95.3054182286942
95.2524921017802
95.1927846389004
95.2341216016405
95.2971839831712
95.2477756332894
95.2980410910549
95.3558483868687
95.2905763283233
95.2258220707978
95.3018077012455
95.3022364027657
95.216173957892
95.2347479463997
95.3765145347751
95.3756115613102
95.2081424622043
95.0707002383906
95.1462518855943
95.2318258027516
95.1715272777531
95.122729342552
95.1178347635518
95.1127520735582
95.1104017055115
95.157959915509
95.1318375699656
95.0559859998012
95.0608529564529
95.0881375395728
95.1048029554861
95.0149930609647
94.9289005018976
94.94645348071
95.0220270229716
95.0315947222174
95.0230764671098
95.0570070168464
94.9881939846072
94.9330959279161
94.9602591636432
94.9270258700246
94.943384219848
95.0738534310308
95.1048897696073
95.054582207238
94.9928963535632
94.9325658753355
94.8897494855991
94.9117374644142
94.9493894116487
94.9963356913102
95.0059002192214
95.0067769487963
95.0145940672301
95.0203740100179
94.9875148522803
94.9808530583871
94.9435463487546
94.9006417452336
94.9517590902553
94.9613443700509
94.9086634657914
94.8711830086974
94.8574823956423
94.8901998880356
94.9022978363669
94.8356331136319
94.7381700132525
94.7253566685714
94.846162536359
94.9714593421423
94.9417255982756
94.8909822147252
94.8663443027188
94.8751412383175
94.8753079252078
94.9092554017787
94.844039658822
94.7321706884677
94.7716719724202
94.8778497141285
94.9441157353263
94.8879535950198
94.817032316476
94.748994718124
94.7610776884819
94.8095111396962
94.8501868341372
94.8457127799147
94.8078060743173
94.6738130655856
94.6692137408
94.7723845024563
94.7929828554478
94.7702989288613
94.7194414021571
94.704288278823
94.7137128079364
94.6223853355679
94.5099058386162
94.5921444431186
94.7691603182844
94.7268444476128
94.6945995237326
94.668584365956
94.6451605487553
94.563938024435
94.4233550587761
94.3382218328544
94.5115984847612
94.6524581100223
94.6159537354025
94.5277116689497
94.4268151105475
94.352245260831
94.2901610635978
94.1502638943195
94.0063429865125
93.9086019573358
94.0073522787925
94.069936626545
94.1059300542941
94.0539415345919
93.8491128579925
93.5994106119361
93.3486966020679
93.2338555410218
93.3480367361299
93.447498144686
93.2316376564024
93.0109225361168
92.8530335727379
92.7791831522496
92.6150810087899
92.4538811236132
92.4513057258161
92.3561909571618
92.1095397039894
91.9413283762755
91.8745146560241
91.6310432999629
91.171113991221
90.7182549425837
90.520103083029
90.5309243602417
90.1259228806947
89.5030871472298
89.2203684938992
89.1036150924495
88.7508839557002
88.2092152533179
87.6901332457804
87.468996993112
87.8252200725405
88.1599731957131
88.1826869009849
88.2320929189163
88.4015222985184
88.5599664531434
88.7060614315402
88.8942888164004
88.8775684504376
88.8141970287164
89.0603967239138
89.3178628986927
89.3456363037773
89.400715445376
89.6262335701928
89.928656290544
90.2135013178321
90.4442654591071
90.6933757356544
90.9213556633008
91.0919399733382
91.2622248170717
91.4800904682292
91.651717958653
91.7681555214634
91.8576735647593
91.9656380901393
92.0529343813717
92.1424487418982
92.1456556973493
92.066759882893
92.0874684147894
92.3900775891129
92.4702361536264
92.3030169750935
92.330620797583
92.5429442768288
92.5750026047584
92.4540174875877
92.1694605093187
91.8104800214091
92.2606127865423
92.7229489559932
92.685192907028
92.6008497669647
92.5839151514145
92.5975250901434
92.5819203285765
92.4015759061564
92.2965560286663
92.2845352429674
92.6460056125625
92.9406158222495
92.8367492193305
92.6395745639414
92.7412043317135
92.8302783071692
92.7427318536384
92.6824109358926
92.6534323528912
92.6323678799144
92.7192625097608
92.8997117633226
92.8885963589631
92.9552767704609
93.0139636200006
92.857318779013
92.5791310260965
92.3988676479777
92.8689064829086
93.257520719086
93.1522140402275
92.9121071986661
92.812342769815
92.9508778622363
93.1129674546863
93.0524824756512
92.8512200761732
92.8880226627124
93.0838998261565
93.130080762595
93.0898143787799
93.0431588170699
93.0430679504894
93.0015179418658
92.8517859325699
92.7660655057457
92.8779807047243
93.0964777954563
93.0655960763523
92.8935816104619
92.8733839357971
92.9451145585234
92.8066815719859
92.4663286888766
92.4201197039957
92.8345566502962
92.9668525321023
92.766560442171
92.6286366765131
92.5732647584195
92.64463735857
92.6694320653608
92.6149758658631
92.5075179940543
92.3863825937285
92.3419816585255
92.5231714300756
92.5764138451138
92.4572987541051
92.4260618609965
92.481079304653
92.4746856355538
92.4126202945719
92.3605028925096
92.2713473334871
92.3657619681457
92.5741076747539
92.5942151997637
92.5903511905384
92.6018090432209
92.6365542635447
92.6526786289472
92.6936635843748
92.794126534528
92.8298768123253
92.7761875937793
92.7827690479712
92.8434748436598
92.9706592037163
93.0906999555
93.0551086275961
93.0216117550919
93.1014528467722
93.227695343306
93.2705327185596
93.2893528279047
93.3002108158773
93.2784072538934
93.2698857945592
93.3606892944168
93.4682750515718
93.4829531067786
93.5079383727829
93.5174531358214
93.4803656967394
93.520814267855
93.6486305248035
93.6769591369971
93.659162947035
93.6836767098329
93.7379411175111
93.7543367948624
93.76409146886
93.8092193224903
93.8417697306397
93.8171511561474
93.7665129489891
93.739297244277
93.8036530526478
93.8720077819046
93.8929464691472
93.8907373087725
93.8885460375693
93.887467030921
93.8987359003064
93.911292089299
93.9030802438212
93.9041344685451
93.9290318084882
93.9521642900002
93.9685439820912
93.9896964712289
94.0130337271501
94.0129584662433
94.0008798602747
94.0249946923378
94.0491065490139
94.0321806320337
94.0290583524317
94.0315572876147
94.0181838519099
94.0108292326367
94.0278479408501
94.029462067327
94.0073969102896
93.9862089351304
93.9702786389261
93.9322487809991
93.8868511966288
93.859052987271
93.8369686175403
93.8015875068124
93.7588808283775
93.710421016285
93.6647138443682
93.6171368173373
93.5660269269943
93.5143176726435
93.4723232801141
93.4066985946711
93.3268629531875
93.2685509376095
93.1926960133971
93.0867418655988
92.9914651006211
92.9126172577984
92.8111042033817
92.6874751718972
92.5427069218794
92.3853367126447
92.2383695997835
92.079207041033
91.9061339901127
91.7196556223036
91.5208133471885
91.2915225148847
91.0529884317086
90.8134612198657
90.569471136204
90.3096321192662
90.039927450899
89.7455365240785
89.4452820309915
89.1334427560972
88.7921754211529
88.4044647473917
88.0040413602233
87.6028660053281
87.1849965155607
86.7551327419364
86.3025664897137
85.8310029738245
85.3852154400591
84.9462640167428
84.5195930213999
84.1093414974252
83.6947788971753
83.2766341698529
82.8473001915018
82.4047413875128
81.9779933629113
81.5635769451855
81.1649324680036
80.7564983630914
80.3429615499315
79.9354411588423
79.5401634485262
79.1540324392331
78.7999489236184
78.4525584910686
78.1068239756959
77.7692698890459
77.4338401684813
77.0916579427559
76.7837440768139
76.4807507658972
76.1768155670417
75.8741818569713
75.5548095911628
75.2121932024529
74.9123275954426
74.6376583905721
74.3495098492183
74.0550867301144
73.785397852899
73.5536030520818
73.3951627741467
73.3518440006827
73.3860756176948
73.4276863181104
73.4809575641872
73.5247992384215
73.5477406239756
73.5515341597239
73.5538366630251
73.5682180521794
73.6046409695193
73.6280835515135
73.6468961699625
73.6859529489624
73.7444565799054
73.7877510255472
73.8556203410873
73.9552845114793
74.0882962364215
74.2637655103986
74.5208642112302
74.86624943145
75.2626312335717
75.6871558494584
76.1423142053761
76.5874076473158
77.030845819873
77.4697342540542
77.8932870632577
78.3183704954698
78.7746828619608
79.2059339508986
79.6263997794037
80.0914725145028
80.6161211124617
81.1545551309945
81.6821351202829
82.1860532388515
82.6753443586994
83.1514424041972
83.6437405760303
84.1101339264839
84.5412000694952
84.9785356742695
85.3817129219953
85.718460756369
86.0215693774038
86.3129752512421
86.6030319662772
86.8324488126143
87.0365987074848
87.2422082963485
87.4058121297657
87.5203475171082
87.6486933582085
87.7987314408235
87.9384232779866
88.0393150121636
88.1156910813704
88.2106598586746
88.3058255454173
88.3518668727645
88.4199701861001
88.5234059514675
88.5828926296508
88.5984136191684
88.632918781438
88.6625042026726
88.6933958706528
88.743056126896
88.8152596942305
88.8966118920641
88.9396519090062
88.8806756895781
88.6657148568517
88.4380225380035
88.5614038851299
88.9872915562368
89.4052923109807
89.7119604072144
89.908407813362
90.0529840127712
90.1918178608174
90.3060843981846
90.4383566262724
90.5943651962437
90.7217036513491
90.8181569735191
90.9264104633642
91.0326997102596
91.1057439180482
91.1774394932955
91.2747895344286
91.3518201220403
91.4376727029512
91.5039401370895
91.5496807808722
91.6152205887642
91.6687992020021
91.7186252813808
91.7854980680689
91.8432855844146
91.8911217507284
91.9231398969741
91.9648682144682
91.994574369066
92.0454786807273
92.1034805321718
92.1269875172893
92.171720572633
92.2137648494741
92.2077349738878
92.2275347330141
92.2701908096148
92.3103709997657
92.3305498263182
92.3397218568309
92.3484938688399
92.3840694302389
92.4098123197744
92.4413916138852
92.4904054498512
92.5180195927757
92.5354738851056
92.5587714102997
92.5698951721622
92.5778188937651
92.5912022633697
92.5971746120456
92.6139723667701
92.6187222918993
92.6193042217464
92.6386396514011
92.6542313210984
92.6504712139365
92.6351550187067
92.6474087611728
92.6370565566009
92.6150697078581
92.6006641175781
92.6024425554649
92.563688485876
92.5396751744161
92.5383376340698
92.5322891534432
92.5391809157268
92.5232512421135
92.5024288733654
92.4949857332428
92.4878758460052
92.5040069273129
92.5008691934533
92.4730061240022
92.4566117634302
92.47192630334
92.5038565758155
92.5352950402259
92.5626549553717
92.5815357627031
92.6036605527051
92.6168722035203
92.5645679795412
92.52336843216
92.5339005956924
92.5132092254252
92.4940691574715
92.5396903253731
92.5764847882543
92.5455347005929
92.4842432402155
92.4629956692322
92.4583856752719
92.4361884227274
92.4069064989677
92.393500063724
92.4075142233744
92.3955956360871
92.3592340178633
92.3200128451818
92.2525323129506
92.2351844812373
92.2701667581257
92.2578673614382
92.2135144961898
92.1686116547899
92.1462801878179
92.1040279060267
92.0855446946439
92.1012884961502
92.0412698828914
91.9753953965468
91.9995091165372
92.0317672858757
91.9717475629659
91.8546460949976
91.7972421167647
91.7987170250045
91.7659636050146
91.7311014266984
91.6912624524179
91.6048296907382
91.537656534614
91.4822646659491
91.4651174984019
91.4573641978374
91.3871045428044
91.337960234727
91.3250693564654
91.2888329948091
91.1695837291175
91.0774355976342
91.0258620374533
90.9697621005233
90.8920130199594
90.8488569996157
90.8214967906823
90.7839027233307
90.6644428115945
90.5817465939934
90.5246299729212
90.3989845097338
90.2911140236463
90.2176182841624
90.1755073893009
90.1201222917054
89.987330696325
89.8828584529669
89.8281514994496
89.781684430689
89.7269824566498
89.6010996114379
89.4426181679357
89.3253815652344
89.2110938862469
89.1096906705477
89.0742556102865
89.029755746641
88.8677025369952
88.7342877698048
88.6170878314966
88.475863315035
88.3659154702331
88.285379246986
88.136322219984
87.9517013647045
87.7573366067872
87.5675708243196
87.3357902758731
87.1127161108287
86.8638286917358
86.5709712424233
86.1654130185042
85.8823372680572
85.6601492680337
85.2634567537553
84.8886941793318
84.5758476837224
84.2899347740902
83.9926361035878
83.7946459948401
83.7101944641443
83.6134641394277
