1798
3999.43349933624
650.420452594757
1
128
4
96.571389836123
96.6528329013367
96.7275102071327
96.4894694825326
96.6051528900568
96.7009993769565
96.7895951567384
96.6895026741737
96.6437890709253
96.5693430846742
96.6573740687693
96.5502945786942
96.6300758319664
96.6272232376884
96.6402697544355
96.497750948144
96.5864795406222
96.5496221034739
96.5469841322715
96.470652433907
96.5953889943084
96.5231256198279
96.5705933654902
96.5338566685577
96.5342624640283
96.4472422550366
96.5321229411554
96.5776353994836
96.6896072033917
96.4770902162055
96.4688477566068
96.4370910253533
96.5674468354295
96.5124754445311
96.4315663052704
96.2566570788121
96.4284991426184
96.5891945487316
96.6518178167699
96.4525790469076
96.5070389414186
96.3534070462107
96.3601382290988
96.3307773051365
96.5724428895652
96.5687052076214
96.5687543546046
96.4980237661254
96.4583391264604
96.145297240455
95.954219969664
95.9366318327318
96.1977637713017
96.3608453902823
96.6418311769502
96.5422243329212
96.3691202559386
96.214152658348
96.4243376013444
96.2949281096281
96.3450568963666
96.4045311160834
96.3338336498643
96.3376620939477
96.4885000339572
96.3240581723847
96.3333488686593
96.1748534708673
95.8805099950474
96.0296473114554
96.3585916666917
96.2851178998587
96.4252048004286
96.4375679682113
96.6688679605592
96.333870388461
95.8974655715929
95.5316137455683
96.3358467181131
96.8791691768426
96.9982085002288
96.440587239309
96.0300385132975
95.9647055053303
96.1614999840722
95.9977359002258
96.2151390278374
96.4525829048203
96.5778486047585
96.4356915337564
96.5230681627849
96.3358616377548
96.4868009838011
96.371952244264
96.0224058939747
96.0508299685404
96.4610256041931
96.3395396005511
96.6340018591066
96.6840113633772
96.8574312572322
96.5890711936465
96.2625452675586
96.1798041062395
96.1314556430306
96.0710809846964
96.5008381820707
96.5166512064484
96.611296057257
96.5434491121066
96.644732654546
96.7138276304399
96.7379176929533
96.5821169939744
96.660967266056
96.6395834725995
96.5986248989304
96.5712356465916
96.8523853026711
96.7959103782154
96.8138714482308
96.5735370240896
96.4518514007818
96.4608034033791
96.5735363175967
96.5928432861117
96.6490688512161
96.4776963073177
96.5390945821826
96.4346075166706
96.4531411745927
96.0760502689573
96.03886573469
96.1428945713805
96.5429325919433
96.0594298212278
95.8921424328713
96.1264783638679
96.4662623025164
96.1316813214449
95.6784468621349
95.6609558446414
96.0288298958188
96.4560607330353
96.630429718872
96.5151830439346
96.5489641198518
96.4231828717829
96.5544913714096
96.6292568630205
96.7993132375542
96.6685306239054
96.4845442075903
96.2695598822211
96.3979923709387
96.6094219605211
96.927441065134
96.8641885123474
96.6864158936148
96.4984101781392
96.6387627012837
96.7081197333414
96.8129759927541
96.5235871810131
96.2866514945447
96.082178206942
96.4429332233311
96.8016190940107
97.0105126966622
96.859105812005
96.5403042309235
96.2082624820801
95.9836258790568
96.1117202011707
96.4458395395746
96.2426785695723
96.4256558790689
96.6288235499371
97.0398470728918
96.9508098418574
96.8394030942266
96.6667383430162
96.5938863587018
96.3725119173233
96.4426760674507
96.2528491267743
96.0367443282429
95.7250640665799
96.1525282934887
96.5143469780654
96.6091515166971
96.4831324752166
96.5285724653594
96.3483632453568
96.2224364221155
96.0992102213826
96.1319546452191
95.8363867939271
95.9899521909431
96.1765837037252
96.3898027494883
96.249707531141
95.9753715503948
95.5953059484273
95.7547767690785
95.9117080367841
95.8888429379392
95.6316375955634
95.6675398267657
95.6898700314671
95.7376956362155
95.6612239950378
95.8896470613061
95.856183800432
95.8009703392398
95.7629186098478
95.8538230036391
95.6244645793229
95.6406400450305
95.2291871724528
94.8558144955604
94.9473946427746
95.1225709221918
94.7443388883145
94.9289148163454
95.3756005826888
95.3814045815029
95.0731454180068
94.9879479904452
94.7918673058858
94.8175628730286
94.4764274889486
94.4083320114622
94.7654326957046
94.9361145585293
94.4483634428562
94.5818092121346
94.9038512181397
94.9754432150912
94.7539228325029
94.8057613073919
94.6010358505946
94.3977656403098
94.5633919394729
95.0309244930289
94.3968595657881
93.8133180166729
93.876642483349
94.236586744157
93.8944878031626
93.7589873434246
93.8992234788475
93.9872100657552
93.7434781834694
93.7966943993908
93.5815808831234
93.5777723778614
93.7792062124242
93.8748810441239
93.568076277358
93.3322042599804
93.1798894600975
93.4953292915883
93.569664774826
93.3432215046082
93.1003466953086
93.3988834928318
93.4220344205797
93.2539233677911
93.0082997003666
92.9737539952367
93.0045932629653
93.1016614408506
92.9320265971203
92.9472419171942
92.8244222918031
92.6784322114583
92.4493512024116
92.5252472810568
92.5585737020249
92.7034247858172
92.6120826282749
92.5196588237284
92.3844921193859
92.579827728014
92.4505225325703
92.1516839305516
91.818560567098
92.0031603944002
92.1728863050228
92.1255775021183
91.949344185613
92.027372218529
91.8744174304431
91.7239120354031
91.6143116443304
91.7719882167427
91.6780233113282
91.5843594992304
91.3867906735337
91.483135453572
91.3496676172842
91.1343370804076
90.9192229274328
91.0700442171371
91.1421668253074
91.2044190479077
91.0533061127592
90.9286861828802
90.7210815230969
90.8435266880981
90.7439327048474
90.4535043286994
90.4653426820433
90.8992271483374
90.5921726024127
90.1959228756836
90.3483885155979
90.672749117124
90.250010025207
90.0710728534585
90.2204271349934
90.4369070250093
90.3330733919478
90.0458122465417
89.7014308772332
89.7343197914336
89.7476568146985
89.7015566729243
89.6911659592047
89.8802533827191
89.5406133214983
89.5740387390222
89.7985575249295
89.803895948535
89.7559131925131
89.9550026692196
89.9743113177883
89.9282683763685
89.6663137076159
89.7048725426306
89.8008839758307
89.8407745154694
89.6644164072765
89.8465339985775
90.0024880044745
89.9912616788243
89.8870974240928
90.0588423758353
90.0484482981361
90.110895818614
90.0459245155149
90.1055365517653
90.1181815505694
90.2605481046271
90.173380913464
90.1707024610859
90.1654759430961
90.2341880361987
90.2070289028139
90.3143994005041
90.2831110397878
90.3550344501976
90.3250171452138
90.3865415693246
90.4023762577129
90.5775973087421
90.5952136955879
90.6476252765656
90.5579627290391
90.5877265878735
90.6773143050314
90.8313999659103
90.7541973021073
90.795275222836
90.8259910472533
90.892442974933
90.8218106708242
90.9694325822812
90.8627105930686
90.7927256790087
90.7975893783869
90.9497239039721
90.9235249672134
91.0931058743394
91.1813525205126
91.1920510324454
91.0560370000316
91.052655663291
91.0351627987796
91.1984426533879
91.329444136716
91.3899013842354
91.1739780072816
91.2133554668768
91.3162703858714
91.4021979388225
91.268474400546
91.3345731427957
91.3472980765128
91.3699225872998
91.1926345114249
91.1968577783326
91.2010821997146
91.2051573855796
91.2424132949515
91.3676831689098
91.2061346943548
91.2625281320183
91.3049663132316
91.3662922894795
91.3516324127509
91.4619902606469
91.4187409684581
91.5345352103773
91.4927677376533
91.4822316333757
91.4505324050147
91.5803729157573
91.6136053788182
91.7672982486351
91.7616660380672
91.7817750276895
91.7106345940725
91.8055361095418
91.870753000622
91.9533362938385
91.9357551654696
92.017302211359
91.9776211312313
92.0452817908801
92.1400352511069
92.2697581263619
92.2075530461851
92.3005630099376
92.279815291572
92.2699958521303
92.2740237185546
92.4289989067967
92.3874369755225
92.4131755181367
92.4061390253403
92.490375633562
92.5149032635212
92.542777190739
92.4668483655692
92.6583518669036
92.7421836443632
92.7964203913537
92.7578019933175
92.7971572798429
92.8456865912804
92.9708968086943
92.9344067484316
92.8869418981866
92.8348235256391
93.0061081934532
92.9949981539147
93.02513234869
92.9638845429728
92.9721652380012
92.9960967941939
93.1448092228575
93.1676603037869
93.2209109010094
93.2204916799928
93.3407824043589
93.340602304636
93.4316203224852
93.42944347255
93.4141600526317
93.3271949069592
93.4427577318374
93.4912421588793
93.4811943924115
93.4713195222254
93.5833564302491
93.5165289602938
93.6077721828116
93.6627992185019
93.6661874139322
93.6026617065902
93.6931028875006
93.730981297532
93.8116809627736
93.7449494860146
93.7748149731916
93.8316888901375
93.9416757386544
93.8506809446755
93.9240845308808
93.9656311942565
93.9562043570845
93.8864575479532
94.0163069847166
94.0809092699703
94.1393859800336
94.0234856187676
93.974806702577
94.0234345561562
94.1786230302921
94.1643166701638
94.1663281053838
94.1442133667215
94.1942368985262
94.1344047469321
94.1168862522416
94.1408406013155
94.2703420392064
94.2749003625728
94.317579282321
94.2937066494234
94.3228425220463
94.2870259657785
94.3492960050458
94.3270101112349
94.3491522636457
94.287403912523
94.3037590948558
94.3205192843722
94.426746431376
94.4517598139474
94.489352624981
94.4745925228497
94.4979099874557
94.4409940624539
94.5313911195116
94.5424203160936
94.595313103901
94.6288904057302
94.6204234650831
94.5636021501381
94.5954117045583
94.6266033569705
94.6590849572216
94.5992706514356
94.6608886579936
94.6898760214859
94.6680476745063
94.632179634537
94.7226121324114
94.7031129291357
94.6950352390598
94.6014514770383
94.6603598072309
94.737907784473
94.8073997689989
94.8350323665826
94.8958465682201
94.7892298134587
94.8081081927519
94.8306365943251
94.8031355917904
94.7848165236188
94.8418504534512
94.847180753614
94.8665227960199
94.8297538650537
94.8444517446528
94.7401294730551
94.7552836703938
94.8642279530414
94.9551341546527
94.8967164938768
94.9625025793501
94.9354844088773
94.9033048632866
94.8861101557549
94.9434375565069
94.9404110399385
94.9882052430692
94.965389209175
94.9735635418405
94.94815324197
94.9483002997735
94.955134909765
95.0510350659901
95.0846511250041
95.1243795111214
95.065286485818
95.056381144677
95.0740953091813
95.0853022548471
95.0342513119717
95.085666317096
95.1255101838937
95.1626569229182
95.1566462913863
95.1349632080169
95.0391246779196
95.1286861094443
95.1480656016192
95.1639283783019
95.1822153249559
95.2118833211347
95.1857699306716
95.1691393166213
95.0978388605362
95.1404507273127
95.1421554812823
95.1855668209101
95.205235674012
95.2386038514204
95.2062439414386
95.1741472841977
95.1762805416334
95.2709643133214
95.2728489187501
95.2548779339445
95.2323705122239
95.2802228135779
95.2434948169308
95.2529511959562
95.2663098975388
95.2834281769492
95.2516295621333
95.2432627607726
95.2406734874706
95.3147482155289
95.3302079296415
95.3492753453775
95.2832135257292
95.2517875299633
95.2608002298513
95.2863870463984
95.2733847926841
95.3300239039419
95.3222608414352
95.2944486569106
95.2547459342307
95.3019911701808
95.3011748091662
95.2921945563574
95.3000911234952
95.3462783248651
95.3497403878523
95.3451733924127
95.2969812299416
95.3185927005235
95.3330518874396
95.3894332983957
95.4263607968131
95.439745804384
95.3933821573721
95.3784784856561
95.3470741708435
95.3331787062448
95.3573554428283
95.3946147002409
95.3596912744112
95.353631525717
95.3142639312543
95.3633221480754
95.380488893727
95.3957046826536
95.4041468881569
95.4161988128329
95.3513926555931
95.3546175888669
95.3655138592414
95.3538414210067
95.3519163261112
95.3966696705371
95.4064495908283
95.3917581456531
95.3346516208003
95.3882364754011
95.3914348425702
95.4045466334542
95.4231350220337
95.4282473114146
95.4061998520519
95.4344570332667
95.4256865093425
95.4145400723643
95.3771571018921
95.3820334990834
95.3688825602025
95.3895908804235
95.4580302987082
95.4946322213721
95.4356514093951
95.427057949366
95.4082003508833
95.3948491105825
95.3892938741285
95.4300913423121
95.4206804999367
95.4164860927441
95.4088710080967
95.4543442443347
95.4782704250554
95.4793853729526
95.4390239135829
95.4233697293446
95.3799018501686
95.4441977753702
95.5170101134983
95.5462703227592
95.511366504911
95.4802932919805
95.4453765224574
95.4691143621789
95.4608642392449
95.4696917360739
95.482269755667
95.5121191726637
95.521096858138
95.5038421325762
95.5076209958486
95.5465251273553
95.5449332683968
95.543269354316
95.5167879195863
95.5047309211458
95.4775606152795
95.5023057460437
95.4529314883932
95.4196628574434
95.4535494941263
95.4526043744178
95.3904913454413
95.4010514329777
95.4321429308876
95.4221991696361
95.3975182581227
95.4170874571854
95.4073147031077
95.4010611775932
95.3877272110076
95.4364398927076
95.4818400425063
95.5033138672782
95.4676201376752
95.445548853824
95.4944358735536
95.5518959697382
95.4893508360148
95.4407315263354
95.4585003113056
95.5444225613647
95.584883023346
95.5796248353577
95.5981951096513
95.6089625511786
95.551546159909
95.6122440018233
95.6280574344132
95.6800140502475
95.6867166997014
95.6586746618034
95.6337267998993
95.7118211698892
95.7658118297368
95.7556049080303
95.7063536057791
95.6487148432105
95.6099274907098
95.6324659545754
95.7237610195638
95.8507979110525
95.8044913449225
95.7575640385748
95.8084404110179
95.8951471018687
95.9062633702836
95.8091959559622
95.7282730628859
95.8051474663614
95.8517563755974
95.7800794758637
95.8038514401939
95.8802920219445
95.883841930225
95.852554506859
95.8479446575488
95.903205300842
95.906645167107
95.9034865215617
95.8542017976574
95.8374469440439
95.954072903164
96.0434705414583
95.9605981273069
95.9573663858431
95.9500996856501
95.9348317476007
95.8871074349716
95.9703960934637
96.03064170922
96.0647319334923
96.0584226829695
95.9620031524517
95.8373914043325
95.8812818401665
95.9332574466704
95.9128837435226
95.8863368686394
95.9349663604243
96.0024856906728
96.0632236255475
96.0721654576978
96.0502107158643
95.9162308258513
95.8344035630755
95.8506091870249
96.0037545516122
96.0458988486121
95.9776553033348
95.9787110818479
96.1395201061985
96.0630014787709
95.9590769864859
96.0127753658172
96.047025060436
96.0257233162971
96.0796424911786
96.02407050211
95.9100189357716
95.8639709393366
95.9718602201494
96.0920804121841
96.047368652357
95.9429956217993
95.9254005688415
95.9112373931224
95.8946676354833
95.8651962344804
95.9124331656476
96.0233502331392
96.0111258078803
95.8674086444587
95.8407765396197
95.9420191164209
96.0431487065138
96.0476381244781
96.0476140964824
96.0306929245632
96.0318802341496
95.9721441408345
95.8616836068391
95.828071983147
95.9248180659025
96.0114270091017
95.9852956990881
95.9474591453941
95.9456226418916
95.8928223887094
95.9017574595586
95.9510098217711
95.9368249868811
95.9425491318912
95.9260715995039
95.9459830024272
96.0178944611193
96.0161137037604
95.9827241808611
95.8968761094483
95.9431000750179
95.9854779403132
95.9191534137242
95.9095948103924
95.9195277813044
95.8109920196556
95.7466835082101
95.8102419467539
95.8265052045558
95.7618683603469
95.7494302576332
95.6717931834488
95.5674969439736
95.5388493385106
95.6327576658126
95.6314169902176
95.5856799702181
95.6051228433607
95.5798419371731
95.72183727454
95.8743920441584
95.8307501698831
95.8532030282162
95.8639666487138
95.8921319288181
95.8706967922952
95.8003390581597
95.631569037613
95.3558983328498
95.2418968322769
95.3429505784194
95.5021608902915
95.6439368601707
95.6808490784351
95.6071250749139
95.6260897887554
95.627726825363
95.4897350244707
95.4311661250677
95.3723134625899
95.0681487626018
94.8896314317224
95.080951130418
95.2094551845861
95.1562635140251
95.0857846833302
95.2468490432528
95.4299749147088
95.350129230301
95.2464592774256
95.2684184617382
95.2607662660508
95.2749853285039
95.355497320836
95.3232370715204
95.3106548041143
95.3935724488569
95.3614210293193
95.3905603037206
95.4600818382274
95.507822451503
95.5172044779408
95.4742660845102
95.6014279767538
95.7987879096758
95.7464723183278
95.7188486440537
95.7161437352872
95.7229298498739
95.873694117642
95.9992853194924
95.9023159048288
95.8652412489125
96.154221622422
96.4040140256712
96.2555767586396
96.1081475087717
96.228993574481
96.4291324445963
96.5802780028176
96.4916834573688
96.2818068338069
96.2642922349803
96.4967578089261
96.6919939859173
96.5966000983592
96.6425725386807
96.7252309759384
96.8237588178897
96.8376485370639
96.9226930525141
96.9435930586688
96.8904190909912
96.8496880600505
96.9737500302233
96.9647517705268
96.8682672372721
96.8215649130341
96.8549772709246
97.0594878916539
97.3051751365539
97.2840775994948
97.3097154951064
97.3654728583186
97.3894087513691
97.4553386719969
97.2307175185319
96.9915972869961
97.16460578561
97.4073133893429
97.4967356810714
97.6768494965863
97.9339145723431
97.6520017260089
97.4677310754842
97.3646868357342
97.7141843872819
98.1688701924443
98.4793301881031
98.6714179223497
98.5659996592094
98.1837928126322
98.4628853073284
98.6011061737825
98.5742813147001
98.2284203414191
98.0966705697925
98.2395128142132
98.1297184038328
98.6836434181958
99.5021339258481
99.7483191340855
99.5082831254985
98.9452996402084
98.7401698369612
98.6228892030881
98.3090436840209
97.9500110687579
97.7850067739114
97.7531940661837
97.9050079429055
97.6891544736926
97.6531391161861
97.6438999346247
97.2758118716357
97.1097411777552
97.0836129417831
96.562541456173
96.4633225208595
96.7251054176288
96.6470122424134
96.4826592951954
96.3506407493766
96.2770407711524
96.3058854001933
96.2630645805437
96.3597848006367
96.2454289139554
96.1844768259422
96.2650887234539
96.3741510132327
96.3132568578231
96.3429286665182
96.4998900091745
96.7287814001
96.5918113831793
96.374306862795
96.3011801578673
96.26521058191
96.183816771733
96.1919737055567
96.2224181383658
96.2097085994306
96.1265895886509
96.3661436431958
96.4378635378766
96.3550199491118
96.2977437006686
96.2102444415625
96.4619422309263
96.6842494477201
96.546601763568
96.5558949824389
96.6944464393697
96.9072001815623
96.8410459753828
96.6105177702026
96.5167352054549
96.7099696971726
97.1651202214117
97.4798556051608
97.5552771338669
97.7775597454211
97.6902589113861
97.7657799277864
98.0822336771631
98.3187863227755
98.3691522654383
98.6342563113746
98.3092668922732
97.9372529438705
98.3004047728638
98.6737480032755
98.5367957103997
98.2374556632648
97.9894863416232
98.2813125054987
98.565901945946
98.4872623734809
98.3484947257862
98.417760759533
98.5184680781119
98.2078097237587
97.8446978226789
97.9835037856435
97.9517944973359
97.7493460916389
97.6942139465654
97.5661859333976
97.3551493619182
97.2847454586999
97.0613467457874
97.4495364611501
97.5766703287903
97.266329564818
97.4973084116474
97.687323273523
97.7089465380757
98.2095268533539
98.4688397998255
98.4928770649148
98.2502773071698
97.7708372399681
97.6588880637525
97.6265915208562
97.4752321152291
97.6433787023795
97.7484708694749
97.8227687168978
97.4448596867379
97.2860603227159
97.2552893355156
97.012013402677
96.7785197954148
96.8470673756868
96.7673870204228
96.7438153432856
96.6653395235094
96.7341784534407
96.6758299938681
96.6777999277771
96.5814844432876
96.4980007461235
96.4977881905592
96.5238230756406
96.1980510019104
96.0919864763388
96.053578751406
96.085839121352
96.1638668618193
96.1984844057531
96.202012914703
96.0667433476157
95.9120547475962
95.8535928885656
95.8988674979347
96.0205541101717
95.9794581119259
95.9732099021636
95.8792823900974
95.8381625139847
95.7661108570314
95.7098326684964
95.6205453443943
95.7211483392125
95.7361265756592
95.7685232281513
95.7407968996272
95.7856650249446
95.7618992039665
95.7177404732382
95.6791878527249
95.6692559137361
95.6161888173825
95.4545704629988
95.3095964830705
95.3761074743954
95.4283200435735
95.5334844564716
95.5558367190872
95.5351142314006
95.4942389376456
95.5152479886907
95.4991247533508
95.6031740000576
95.5083790599093
95.4768946246351
95.1571845357191
95.1054885031951
95.275020752149
95.4039987330846
95.3675583022743
95.3250027094193
95.3738961186321
95.3520094033381
95.0694750569115
95.1078411660155
95.1290343866468
95.1760790383475
95.2256035312887
95.2850942014575
95.3656847608069
95.3669262420254
95.4020500521052
95.3291537828189
95.2370707270834
95.2412435101413
95.2451731078491
95.2450900848606
95.2122489617985
95.0780275296232
94.9435509102103
94.9985449345005
95.0415593761894
95.0431789707369
94.8500049778553
94.8180770252218
94.9147084140248
95.0913052336041
95.0980095446087
95.1037691913797
95.0561263952508
95.0098477654738
95.0238839874568
95.0170630583928
94.9630463637482
94.6846140887891
94.8472590605412
94.8006223430539
94.9634414382574
95.0402335993462
94.9537240678383
94.8198708323895
94.9035095051188
94.8718368554606
94.9459872856574
94.9456718127511
94.7903086551121
94.6304118442793
94.482621321228
94.5945839079321
94.6703191398741
94.7522684848841
94.6470595883365
94.643331055345
94.8467429840537
94.407671962129
94.3150592805452
94.3901740910393
94.5882015785507
94.8319911241464
94.8936547036978
94.898367943781
94.8743159851264
94.7746124148657
94.3717160358905
94.1876469007636
94.1113873038789
94.4809594818426
94.6745115857739
94.7407909463415
94.5769060670517
94.3148818466723
94.3656376592565
93.9740106686142
93.7550380957654
93.8330585718015
93.6176433198874
94.1226681440255
94.0975991180703
94.2783558648712
94.0378669657149
93.8595952910338
93.2582633759194
93.2056851597116
93.2281336240852
93.6418953637996
93.5655795306363
93.2915828476462
93.2781135706623
93.088805718423
92.8937340151198
92.8263035913766
92.9634796770618
92.9339673498029
92.6603502242647
92.5312972122755
92.4526344025637
92.4118083693712
91.7606063420971
90.891807259544
90.8108381902021
91.0326114904139
90.7546602015208
90.2193972804759
90.1142300198942
90.1602592321433
89.9157996054232
89.4766694620853
88.7603681898812
88.4999260315527
88.8645017833336
89.4252620906739
89.5081887580169
89.5037531900161
89.5720675111048
89.5553052540631
89.7238992566974
89.9660502992537
89.9830176338929
89.9741514758015
90.3310846159175
90.7101567165223
90.959973211716
90.9691381987146
91.1665770993245
91.3374552609572
91.5902612970589
91.7538259387425
92.0027032329511
92.1469569089538
92.2736001297946
92.3456203764314
92.4826904738222
92.5775235685936
92.7159192865563
92.793382537526
92.9105219888062
92.9182326864214
93.0017705918112
92.9428737168639
92.6437711143186
92.6055093234606
92.8652490953355
93.0109578341569
92.8525666292274
92.8272978099667
92.9137453499754
93.0885545891029
92.9260151608154
92.3894550971606
91.885632888213
92.1082363757623
92.6697363661173
93.0298732397654
92.9276673280146
93.0501678116341
92.9813437107093
92.9455149258324
92.6461209533946
92.2063544044667
91.9955084975935
92.5764568532157
93.092867639385
93.035731058343
92.9354012005286
93.0236682582726
93.248137170286
92.9603223260797
92.8744445903868
92.6478404063791
92.6355857885237
92.6393938875809
92.7741816344758
92.9837722411013
93.0242716745977
93.2051576967446
92.9998392392652
92.4834754286511
92.1333011299748
92.6905493021489
93.4352542243059
93.6092013776374
93.3554852764461
93.137890004745
93.2912600149416
93.5176120266866
93.4460314137997
93.1611521920069
93.0392968405732
93.3867506979246
93.5849999003237
93.651608082002
93.6286197618487
93.5341757806102
93.4143785134483
93.1047768688917
92.8896896594963
93.0234475448179
93.3814910409916
93.6181891186445
93.3455596170914
93.3244708162555
93.3780467478063
93.3430832260646
92.7099642905893
92.5125367003378
92.8252053537213
93.3939600861834
93.3637389724023
93.2622084861962
93.1771513375626
93.2381809262498
93.3529777879831
93.4012707834566
93.2942718531616
93.047744790648
92.8948856476964
93.0070763604037
93.2678349735981
93.1691090472031
93.1885384230508
93.2314204629654
93.2241763000619
93.156153468319
93.004561394088
92.8569616612654
92.7831993499465
93.1930646747757
93.4054155752492
93.4259947275314
93.4359625121384
93.419205921785
93.3738337822183
93.3783654907483
93.4795467290459
93.4985171356906
93.3781519829231
93.2313292681119
93.3204530555291
93.3938308382314
93.6388761773674
93.6560971348671
93.5564577462453
93.5873908105955
93.7904425241827
93.8836489369733
93.8388803012972
93.8545360626023
93.7570248783455
93.7067537351881
93.7099982130661
93.871934973281
93.9398579478312
93.9379951610229
93.9114357343961
93.8148474289541
93.7251056541687
93.9039823539802
94.0646952147997
94.0960375907737
94.1075583063209
94.1316659164523
94.1199782701856
94.1327869069236
94.166375975594
94.2110680910391
94.1931601287441
94.0825913031789
93.9179896757066
93.9455762291665
94.1136074982632
94.2161882896191
94.2423899269485
94.2312655237557
94.2299463076807
94.2363714507973
94.250900465764
94.2655207498622
94.2413074584134
94.2016072909956
94.2312627640052
94.2909573145148
94.2713317118495
94.2654814096846
94.3218213535542
94.3492669957928
94.352301063655
94.3558476382678
94.3269619496618
94.3279580490278
94.3371470221791
94.3437045483215
94.3208516670688
94.3024244249592
94.3055400631445
94.310876454233
94.2802801408636
94.2539706968679
94.2318660613101
94.2126892916268
94.1951886554448
94.1863687414701
94.1538377951046
94.1053720643592
94.0561400894837
94.0275221839894
94.0043687475903
93.9585891422479
93.8880108631917
93.8318018135137
93.7718626931368
93.706034415456
93.6313998956887
93.5411623866476
93.4486673597305
93.3538825222199
93.2303186088243
93.1266380382833
93.004247336492
92.8499795690744
92.704486844397
92.5560718291373
92.3819985533292
92.2192608398385
92.0241940364059
91.8255958325306
91.6323698984403
91.4305656444255
91.2090487175386
90.9787092516004
90.7565714232233
90.55093823285
90.2934722160638
90.0329438598211
89.7857800529722
89.5141570504734
89.2350520141429
88.9926313718676
88.7264753531287
88.421875808639
88.1035776362083
87.7998550087861
87.5172009790603
87.2221761132946
86.8962831107663
86.6179285252856
86.3393959837756
86.0353166167653
85.748986335961
85.4578701159303
85.1396054436279
84.8673619675864
84.6154944032011
84.3360199214059
84.0159642811013
83.7094820318441
83.4303435063867
83.1589082238638
82.8813279056014
82.6117773023744
82.3200901427907
82.0317574284405
81.7561155231015
81.4962894810625
81.2246178206629
80.9695921812676
80.747489102153
80.5345717622816
80.3178082340914
80.1030574284559
79.8753609463597
79.6794777496514
79.490972378944
79.2922567000981
79.1185965354819
78.9945480712437
78.8812440124608
78.7736544418651
78.7008999763205
78.6826625962609
78.6658680073018
78.6403536945906
78.5961216285074
78.5636606268944
78.5422023059601
78.5494378996964
78.5786481753032
78.6174571917529
78.6645673122738
78.7301157316374
78.7784749318872
78.8286739563757
78.9082695550071
79.0352655638214
79.1590802941748
79.275762482939
79.4209327798283
79.6082800536198
79.7885223479732
79.9854466560695
80.2049008616151
80.4569486220289
80.7373674353106
81.0261617251687
81.3081151136002
81.6205435496562
81.9332094329658
82.2563800787563
82.6124625382574
82.9905133197959
83.3542768814535
83.7259276428239
84.1077559545306
84.5034340953245
84.8946255738039
85.2533962244466
85.5831781632398
85.9454666793492
86.2987972872327
86.6397131538966
86.9380621691273
87.2046573853697
87.4680454733641
87.7232741053808
87.9319917318073
88.1140476946297
88.2853958278104
88.4467361984023
88.583272970942
88.7042419181259
88.8025177089969
88.8982276904077
88.9889743952616
89.0811371528198
89.1588775342593
89.2281415874869
89.2671857113134
89.3016982816728
89.3585608959979
89.4383327823488
89.5096352757233
89.5640278115215
89.5918506688618
89.6331260086655
89.6910690476386
89.7609485870868
89.8205036837342
89.8753724507774
89.9071564381832
89.9667134398006
90.0472793557866
90.0976504770838
90.1412215748677
90.2582564240186
90.4504933438581
90.6480715462179
90.7815594329349
90.8922325743878
90.996694663074
91.0891328177782
91.1769783156628
91.3053406179716
91.409667414843
91.5065911689365
91.601195632856
91.6923599218242
91.7921019767586
91.8916921637835
91.9494560090755
91.9856386412142
92.0358681099878
92.1112487866733
92.1858032713178
92.2645355451976
92.3337744688131
92.3811645773925
92.3896583142964
92.4438908818185
92.4999639518704
92.5364904287595
92.5883953071159
92.6465900391081
92.6774252887065
92.7079366130853
92.7243045380969
92.7431170288687
92.7581085239719
92.8099436293739
92.857868278982
92.8749642548721
92.8976008544486
92.9404152701619
92.9583891601981
92.9912851554439
92.9969525768109
92.9988551579751
93.0275905174096
93.0606505233808
93.0870731140967
93.1272968156492
93.1255414619936
93.1060381382366
93.1175303912989
93.1700093924387
93.2015907981265
93.2041528811148
93.1917821755267
93.1900597327949
93.2044068923888
93.2286423143221
93.2198781353446
93.2395118040805
93.2384205495492
93.2478198882752
93.2555819515856
93.2075881750621
93.1691897534101
93.1745823704606
93.1528926527557
93.1641900187929
93.1660644843722
93.1431428421127
93.1345954347644
93.137622592823
93.1485882196595
93.1528882647112
93.1277135538325
93.0975082222328
93.1028927316517
93.1467738881836
93.1442764889903
93.145997138839
93.161604969676
93.1658011050916
93.165751549596
93.1789524360783
93.1771633698671
93.1859577271414
93.1958993908248
93.2255123394827
93.2163338840449
93.1826837203906
93.15879683576
93.1510046917323
93.1311487398186
93.1273834492501
93.1130024203093
93.1067017297526
93.0716774887458
93.0296949800809
93.007778868055
93.0417788746501
93.0559152569192
93.0329115784045
92.9838075429343
92.9651209903814
92.9437296906622
92.9049253358914
92.8427602751987
92.8560527891241
92.8777648194052
92.868338244249
92.8383010083171
92.7937296672355
92.7645588002648
92.7674152916074
92.7426839153903
92.7153794240726
92.6558245860351
92.6212206803538
92.622208537849
92.6115665716423
92.5508515159796
92.5178643779594
92.4861954663005
92.4195960735375
92.3817738905952
92.3639344671677
92.3271793137186
92.3026328282592
92.2616573135272
92.2312572017629
92.1586368054167
92.1511562980185
92.1445472095511
92.0763160954237
92.023357863631
92.0249413477131
91.9611584359685
91.9408222845021
91.9217531119116
91.8434376112561
91.7612639727392
91.7380696914133
91.6753260586106
91.6370669571257
91.6042251112705
91.5648922816666
91.4817323712644
91.4127697260313
91.3886081980546
91.3681019583723
91.2669454958348
91.1900529965817
91.1114486731895
91.0589956825333
90.9877656267981
90.911929274771
90.8378924712025
90.7694421891051
90.7069802462997
90.6277998139488
90.4945077297346
90.404432974464
90.2914580147099
90.1878283313515
90.081114829004
90.0086725328322
89.902173678192
89.8620153042731
89.716675505661
89.516310346628
89.2967892150098
89.1136515245826
88.8340480482171
88.6566056387233
88.3624296094899
88.051916099988
87.678929335711
87.5573037429194
87.5107986923786
87.033873247715
86.796717178586
86.5519549124289
86.328778045601
86.0966938953182
85.9787761663738
85.9351533851784
85.895884337827
