1798
3999.43349933624
650.420452594757
1
128
4
96.2301277806775
96.1621554529454
96.2357786939879
96.2882138767474
96.3135230976434
96.3618344141893
96.3044370424104
96.2270230728489
96.1963197033279
96.2636966582635
96.3488098625174
96.2630501426043
96.2082119253919
96.2443309075448
96.2841027669222
96.3166695254444
96.317020059395
96.3489189663228
96.3162666579476
96.2374805415064
96.1635326743641
96.1978067913053
96.2315729204562
96.2670567934255
96.2773475839163
96.3401012590707
96.3573697202936
96.2879137073554
96.2643912979072
96.2553031272012
96.2111930944877
96.3098347390737
96.3614635265941
96.2970301656675
96.1996801939617
96.211702976781
96.2413959712685
96.3199809855975
96.3148175635188
96.203983409112
96.1584491666867
96.1949189219855
96.2381581196659
96.2096888836693
96.2060615789659
96.3347367663186
96.3730556454474
96.2973082746804
96.2348607387662
96.2937317952192
96.357898151337
96.2380052394815
96.1075782573594
96.180666141486
96.3205086842169
96.3634582569442
96.2992205600936
96.2997905393675
96.2539635119361
96.2704478770165
96.2958295717329
96.3291368145701
96.3334794971443
96.2504594079903
96.2892299601989
96.3912239593768
96.3501484740943
96.2443520262438
96.2344400835232
96.3123124352068
96.3008607633746
96.2602043704189
96.2825656774129
96.2976347894382
96.3249681472889
96.3630009090942
96.3069957022811
96.297386039687
96.2750130553835
96.2914025845076
96.2998150717751
96.3365276659589
96.4383325982981
96.4678580150462
96.3939453160246
96.4502439213811
96.5389195632201
96.411835627448
96.2232695648753
96.2144745991132
96.2638650224971
96.2286532568393
96.2669863266032
96.3425788756142
96.2584245625944
96.1882396624332
96.1901727681961
96.2132730713379
96.2863681171777
96.4068587483448
96.4107585223589
96.4116658754281
96.361234207928
96.3007238900948
96.2886240826552
96.2907518690039
96.2319391290306
96.1821710759439
96.2278830205247
96.4487163685589
96.4772131723422
96.3122570283394
96.2672446468479
96.284318019397
96.2657154782927
96.324135701084
96.3803562119522
96.3815308512258
96.3058502488787
96.3050200314615
96.3738872935339
96.4342330968586
96.3700942483034
96.2397089867226
96.1984017444735
96.2861904206846
96.3469361316144
96.3248266913416
96.2459290455158
96.2839554378384
96.4051395208027
96.4407761316124
96.3119993772467
96.311157272184
96.4242041512321
96.3667511598615
96.1003159003924
96.1307742549456
96.3293295999761
96.4361601052438
96.320617234119
96.2399797721473
96.2770456765199
96.2079511504765
96.1447970441456
96.1908387176191
96.2135689744441
96.3178899303594
96.3184554192168
96.1921523410793
96.2395161508089
96.4253320080953
96.4651567441862
96.3826908393488
96.2741686236695
96.3343867082226
96.4079952459858
96.4208103136641
96.2679345965764
96.1708389144493
96.2189931995572
96.1249594466473
96.1633981206787
96.3861903895024
96.370417311727
96.2701008284672
96.0669985147202
96.0205146113556
96.1537493094878
96.1953094290374
96.2464110126243
96.3189451324325
96.215404250056
96.0743408829581
95.9698256513244
95.813430721844
95.6965608588442
95.8615874764126
95.9771586123429
96.0318864019518
96.1350927241811
96.1503839787
96.0998549800964
96.0279621121109
95.8587338815347
95.7985524112511
95.7604337728842
95.7226484464381
95.6596229043356
95.4832159631528
95.4594413525593
95.6527455421835
95.7067151271784
95.5578403081045
95.4996778382378
95.5409143798651
95.4195156909599
95.2402541283453
95.1076441736684
94.965986763272
94.8007700870118
94.8677390093694
94.9248775780946
94.8400175584877
94.8248990270802
94.6556225976298
94.2856647682703
94.1030629457944
94.082708416379
94.1490709552624
94.1136457378668
94.0729081904752
94.0326625128551
93.918994932212
93.7201616955038
93.5845576878475
93.5147563573359
93.4321943619771
93.3004700733647
93.0762983961856
92.9901949514192
93.0321332469387
92.8548405602782
92.7330427246244
92.7295076539536
92.6358389196937
92.4034713348437
92.2305636077278
92.1237151556972
92.040337356633
91.9398354934943
91.9146513932101
91.8322883113234
91.7861097981388
91.6428126748094
91.4749389616066
91.3482345773177
91.3243426850241
91.2030796267909
90.9798019204201
90.7927327716279
90.6708209934622
90.635056733474
90.6145078435693
90.5510589599
90.4478824887829
90.2387221298357
90.1983976023365
90.1183187165061
89.9986207689544
89.858498873216
89.7853530205678
89.7829388169438
89.7111903629316
89.523060462825
89.4368124433603
89.3122080697472
89.3076480008108
89.2828364707365
89.0986898013813
88.9243838833928
88.8878184056525
88.8362578018896
88.9308416033392
88.8649987701051
88.5785089930656
88.4520792866436
88.5010170219617
88.5293518177414
88.5461769586754
88.4557105147026
88.3753737818453
88.2502775799499
88.1882477947682
88.1779202675252
88.1431439739217
88.0145151194511
87.9967881529238
88.1298219061346
88.2095865250807
88.1241400472572
88.0325340819415
87.9356467961736
87.909291018788
87.876409618507
87.801164712019
87.712387854749
87.7643897303154
87.7044728287342
87.5664165061298
87.5172962638704
87.5450855781472
87.523388245595
87.4937013225918
87.3128348617836
87.2366050075614
87.226520804699
87.0943332637309
87.0277792468913
86.9978572774925
86.8784130675541
86.7703800600244
86.6333723525134
86.5003818475429
86.493166793529
86.5103876301572
86.4023994924928
86.445532226553
86.4320889615781
86.290459557068
86.0925884410156
85.938587156314
85.8483431297963
85.8269702071107
85.7412281117668
85.7098961329629
85.6536884225188
85.5165825919909
85.3816438907559
85.3708953619605
85.2121098102551
85.019023839667
84.8556505391327
84.8024163584725
84.7007894189715
84.6492579764113
84.6386440773143
84.5123487522866
84.3653404061796
84.3630615043897
84.2818420824891
84.1654091795169
84.114444186691
84.0529059235194
83.920015748441
83.9068409455909
83.8668292193637
83.758856141399
83.5954016206561
83.5982054549668
83.6523424575951
83.619715408537
83.5050219043925
83.5339307014064
83.5189072312119
83.4782030446056
83.4311621034771
83.3799336371837
83.3207638079157
83.298324815621
83.2851008529702
83.2900923230101
83.3127411585661
83.2629532298905
83.1731870124647
83.2977903702893
83.3549919577708
83.3398157401246
83.3334660402912
83.3856632171864
83.4184969168634
83.4623172536208
83.4875192053025
83.5410185442779
83.6059363701222
83.6980309946615
83.775074185833
83.8276056576596
83.7976272163651
83.8433940273761
83.8927143997322
83.9918202864011
84.1199352107913
84.1004598727662
84.0794496844567
84.2147631764794
84.2897444265954
84.3286755074109
84.4003441960469
84.5811346884133
84.7291690078117
84.7072750964722
84.6804268581252
84.734749548619
84.7901503958227
84.8732254130591
84.8869430602116
84.951773434976
85.0491396192052
85.0630381282301
85.0591817993685
85.1085733682204
85.1905838102756
85.3016270768242
85.3302752859644
85.3159496251091
85.2880143452899
85.2759724597261
85.244744647803
85.2612699631789
85.3442964147685
85.3874590984564
85.3272436935703
85.2915687715122
85.302908291745
85.3560046481129
85.3680239879609
85.3709476306914
85.3890134498885
85.518998884635
85.5229846824829
85.4785729875965
85.5759602883019
85.7110020116726
85.7191215873408
85.7600853982033
85.8053601943425
85.9292864740881
86.0421941794957
86.0300932583962
86.0062821485127
86.09561164973
86.2058842494832
86.3193754830829
86.4242337844699
86.4864584155674
86.4851886729387
86.6053028855452
86.7209562423282
86.7033238738866
86.7173724353806
86.8864098452992
86.9698772946519
86.9828779442035
86.9912599501247
87.0156267072486
87.0691953577282
87.1715617727265
87.3251926531699
87.3979969847996
87.4132352574145
87.4984552913381
87.5306269520858
87.5242688451644
87.5773849303051
87.6741466438743
87.7571398627983
87.8760560475862
87.9385895071764
87.9951863838317
88.0760128569989
88.1758070503657
88.2555585061153
88.2828059367089
88.3084241314235
88.4075796397843
88.4758419322369
88.5745807630173
88.6145874163831
88.7439812082283
88.7988509159675
88.8132082198081
88.9443981068353
89.0156454932458
88.9909377828442
89.1287715364273
89.2698423340442
89.3386683263032
89.3494536889438
89.4636246994097
89.5363638329835
89.5418448997859
89.5993518826155
89.7236639556116
89.8432586980769
89.9692949181989
89.995574719966
90.0492507197306
90.1271735187709
90.1558937023461
90.151999268725
90.2577220392368
90.3476499754199
90.3619245532215
90.4060549293556
90.5026977417122
90.5864807394514
90.6372649644487
90.6577917755319
90.712363583626
90.73070459594
90.8273155128586
90.9300603287105
90.9667206314802
90.9366194845057
90.9601800036995
91.0354214838989
91.1697574767438
91.2409760612914
91.2601978106786
91.338558746636
91.3839691574752
91.3772996068197
91.4911403015103
91.5858248910266
91.5954012332916
91.6028747914186
91.6929353168176
91.7626178788863
91.8031304440902
91.8271659727427
91.8664895526947
91.9493467629635
92.028379358252
91.9969739058703
91.9647143519206
92.0918352472079
92.2396795896322
92.2428937982194
92.2772334117085
92.3380889287854
92.3764489614531
92.4135246468904
92.441984718104
92.4243423383006
92.4688346326095
92.5511043729719
92.6269244764743
92.668182642705
92.7296238151943
92.6958040441719
92.6885387545689
92.7533480145041
92.7736269512786
92.808069681957
92.8455875453637
92.8268055298983
92.8822790369164
92.9349075939491
92.9849732365567
93.0499113304421
93.0834510840584
93.1293934719091
93.1217193246351
93.1399339504428
93.2029462186087
93.259686933249
93.2523057894311
93.2597658103433
93.3277342964655
93.3590646276148
93.4096986961466
93.4464715449263
93.4867431964177
93.5023456128594
93.448993576435
93.4628934636976
93.5715708270584
93.6443289400147
93.7019301498845
93.6914211264659
93.6473927359323
93.694822940746
93.7508055786278
93.707383777852
93.7037645607244
93.7438367348826
93.8115815579903
93.8733489813176
93.8847423142765
93.8856981244322
93.8815917517475
93.8623862445437
93.9189043918799
93.995320632448
94.0359177345023
93.9987231565317
94.0154228704347
94.0304108476587
94.0593772141357
94.1234688217763
94.196915995623
94.210635243855
94.1577440501004
94.1560571568841
94.1803409971545
94.2111722884146
94.2672321087361
94.239611390268
94.2268348373455
94.3055075724707
94.3645062287962
94.3540341206744
94.3601736572432
94.3568172389348
94.324014197985
94.2807576205264
94.2960272300771
94.4179329819268
94.4589114632697
94.4576597804321
94.4889432897176
94.4903329519413
94.478381866607
94.5290199373912
94.5466778861632
94.5474085051659
94.5901966407216
94.6026384312418
94.6378908819417
94.6463775455278
94.6142406942814
94.5843129819424
94.5842350538141
94.6388701397951
94.692431987269
94.686863623899
94.694524223059
94.7028432178893
94.746902239088
94.7716293038739
94.7525831132083
94.7471050705886
94.7809983952624
94.7902080715512
94.7648197849185
94.7466675150508
94.7839741961706
94.8318713053331
94.8413939811311
94.816114132641
94.8569500582797
94.8842971307969
94.8407528070965
94.8323684679338
94.8625294077872
94.8743705521558
94.907390066059
94.9119516671496
94.8861037496798
94.883615981821
94.9446629858485
95.0069209918424
95.0137075146577
94.9553284553818
94.9396395427121
95.0086881198071
95.0634184427101
95.0618782441786
95.0499384650197
95.0371754603383
95.0310504550452
95.0111637570681
94.9933208894234
95.0196455375704
95.0265935647924
94.9666106468167
95.0027605156197
95.1095182656923
95.1244215840541
95.0916589051435
95.1144313988577
95.0897906665672
95.0837390641332
95.1228016940389
95.1128372700403
95.0916955670019
95.101799539727
95.1117219931949
95.1463538908984
95.1774990386957
95.1730914309449
95.20041614306
95.2308166863311
95.2208748249069
95.2369337267693
95.2567382938964
95.2353073631028
95.1843030529449
95.1915731497317
95.2528495134015
95.2165405317018
95.170391288832
95.2214170898068
95.2589256089823
95.306459007899
95.3180806584077
95.252569624383
95.2427873362032
95.299859056572
95.2829149560836
95.271410551832
95.2928466396924
95.3221167473398
95.3230457958382
95.2920244644261
95.2683056403423
95.3201926996752
95.3732376840228
95.3773079269612
95.3871887189147
95.3607822571596
95.313517268114
95.3416985804599
95.3416753208907
95.3268144146378
95.3256809158778
95.3811065032913
95.393100338286
95.3476326209861
95.3420288939921
95.3516660243335
95.3937219721582
95.398795739863
95.364229978067
95.3425321431384
95.3315744799515
95.3443410509132
95.3582683813408
95.3140832388906
95.2878493247605
95.3033410107933
95.3209768938198
95.2974892190654
95.2441108091127
95.2911307473331
95.3110473954114
95.2930319235304
95.2926211805078
95.2883381378382
95.293530039674
95.3596895575393
95.4182275114514
95.4179269845527
95.3711904904162
95.4008748901108
95.4018531102748
95.3741434482273
95.4284449209035
95.4627757960244
95.4349346211023
95.4445767091578
95.4822674193037
95.453996062625
95.4690183124678
95.4888683770043
95.4447000718667
95.4451875386375
95.4704284064101
95.4621221423584
95.5483944264472
95.6503021324394
95.6350533679304
95.525648214569
95.456181839057
95.5331224932744
95.6511386649109
95.6301964849874
95.5734011623179
95.5944557649555
95.6412647081491
95.6910181549658
95.7233925992983
95.6655727939903
95.6343121900217
95.6852537221407
95.690923853276
95.6502480799886
95.664625829595
95.7058019521021
95.6280923245228
95.6332009963237
95.6775401286939
95.6666398003899
95.7785409749519
95.8410128821969
95.7833122716133
95.7554004065497
95.8311227011511
95.8532051808258
95.832299219414
95.831443855743
95.7289340921875
95.6473295760016
95.696423480272
95.7924268322509
95.7731620055905
95.7340867457681
95.7706135017336
95.8748147624219
95.9001215596239
95.768766297465
95.7572546672925
95.8376480316308
95.7653730963207
95.8102316721184
95.8893216464921
95.7750326337858
95.6911771798216
95.7551011035926
95.847767852941
95.9226283928445
95.8679620194318
95.8292529104098
95.8837715141214
95.8096887162819
95.7167592764141
95.7572447142695
95.8620851249757
95.8099443600088
95.6970547121582
95.7092263350501
95.7184596827035
95.7281128002113
95.75811791453
95.7762746821052
95.7444239878515
95.7536061736041
95.7987335153707
95.7701858456084
95.7166971707324
95.7222354842672
95.8633032658014
95.9297414011813
95.7938276063931
95.7235714882129
95.7816394250353
95.7482868464622
95.7429039318946
95.7351566240691
95.6629985478539
95.6866218449403
95.8058177752885
95.7646129147082
95.6785557839557
95.7371562321507
95.7425555407459
95.702577728954
95.7409064322889
95.7671170258375
95.7215141464949
95.6850870797259
95.7113854080183
95.6944598971551
95.7571559070182
95.8890329039459
95.9055364646217
95.8095583225318
95.750087470741
95.7789514082924
95.7551421671625
95.7213708322093
95.7057254112644
95.6929050958867
95.6807299245428
95.7349167321727
95.730961650459
95.7548344049062
95.8012709836059
95.7409187761822
95.7128092483873
95.7703375196672
95.7574284543063
95.717394383207
95.6755135173369
95.7150686509098
95.744336721538
95.6621014038994
95.6050430846332
95.6635008988885
95.6981623559761
95.680644186323
95.6468891554527
95.6220309985086
95.6975168615885
95.7853105485591
95.7446649488199
95.7105808501222
95.6602144527246
95.5958921190567
95.4843141343817
95.3636390805702
95.4341169558628
95.4839332590402
95.4602897455049
95.4305297870674
95.4322769478402
95.4288176206214
95.4154594517016
95.4308619673511
95.4014478727667
95.3781880431528
95.4576399355175
95.5311477660434
95.4905771921023
95.3727281341756
95.3363858942248
95.2834697036757
95.1098900899938
94.9683585114436
95.0103072281122
95.0460793038928
95.0827608515197
95.0925419164738
95.1451854097842
95.2509082588005
95.3114343399442
95.2851212087666
95.209777572455
95.1181975575665
95.1824921363767
95.2497982661228
95.1848336786541
95.1755122079932
95.2538680958509
95.297539002228
95.2656325618918
95.1025842626699
95.0286952508147
95.148652750717
95.1975215310384
95.2856216118822
95.4103736985845
95.407580768927
95.3476640128134
95.3523935175069
95.5272449840413
95.7112592976114
95.6061038487267
95.428011981214
95.5374503479292
95.5919987394658
95.6477979163411
95.8219821667305
95.8289949597327
95.7722687578075
95.8800839971939
95.915287390925
95.8049773807676
95.6918851360666
95.9826891730818
96.1677479472322
96.0200664980659
95.8369258371007
95.8540975862245
96.0047593618142
96.0618498532626
96.0534282959268
96.1651402642864
96.3911208325633
96.3472600104896
96.1482560150338
96.2486146603783
96.3910095280827
96.2932070176155
96.1339353930039
95.9633100369882
95.8849146194841
96.3031732188412
96.5734396165597
96.5874127951681
96.5991714171046
96.3612868588813
96.5094609997073
96.7289353436203
96.5789715731081
96.4770453196478
96.5505071340766
96.3771902001416
96.2051484904407
96.3543547834041
96.3727317307724
96.6664076670018
97.0205407742157
96.9783976892593
97.0270815865044
97.2727660177769
96.9933293698689
96.7078437352932
96.6813575546667
97.0142043603555
97.1331539208516
97.2381658041337
97.2151604506084
96.9014106293459
97.0869983049202
97.360476840522
97.6166183723042
98.0936394199696
97.7835953430904
97.5071457874876
97.0995720615603
97.211892197142
97.3437617063759
97.1277729972779
96.8912796630028
97.0007502800393
97.076546359855
97.148596906303
96.9112195248737
96.781730919689
96.6661422524091
96.5378260054208
96.3258866841839
96.2422642163286
96.4563484624966
96.4182729133779
96.0341781360756
96.01737293355
96.1687975786972
96.1051083245385
95.9608700389823
95.8983589900103
95.8446300112796
95.789045273326
95.860299726735
96.0118932442148
96.1239763229892
96.0824097098596
95.9329375392619
95.9961682331762
96.023992884454
96.0852375376157
96.1215695498528
96.0155029086241
96.020753483362
96.1405911901337
96.0973267877051
96.0305868100396
96.0366172225795
96.1094601222056
96.149343281481
96.2018758738888
96.0562906537236
96.1127356514058
96.2919165788977
96.3842743120885
96.4071937536747
96.201425786994
96.0635352233289
96.2681163870549
96.4166988266016
96.5064699924818
96.4446797388892
96.4436395870229
96.2734912610117
96.3825449683253
96.8409886813943
96.8652635714521
96.4918207314526
96.4709509430817
96.7735594905281
96.9859617989225
97.2831767062075
97.6433408645724
97.4989971357832
97.3693069352522
97.5819200012522
97.5065412894417
97.1631410574384
97.3057581728054
97.5778757757072
97.6702095023304
97.4303582692393
97.1891525246673
97.1194204314185
97.2156982700973
97.1638382618322
97.2341361627381
97.2805164964293
97.3072436535501
97.0778744077225
97.0288985132391
96.9527204511866
96.9130135583954
96.9039051834636
96.8532251347606
96.9701971303292
97.1775597805599
96.9983822139401
96.9634280180957
97.143549427292
96.9731694616807
96.5839846755757
96.9354081145099
97.3436917901105
97.1985437627525
97.1633688946625
97.3132527284008
97.0949089895747
96.9967534471887
96.9365826846309
96.8757156034095
97.1235187859673
97.4039054091411
97.2698300150617
97.0448228628251
97.0106836162429
97.1812949353538
96.9755687906104
96.7738172397393
96.7215274798145
96.7770787236701
96.6922231014537
96.5102255197117
96.3849133015691
96.4444120803303
96.5775680917104
96.6426842091075
96.5599432989465
96.4829577819593
96.4327692447486
96.4451772353148
96.393203938549
96.2518976934948
96.2518618285769
96.3470211305871
96.3398710692986
96.2226151850041
96.1612945589134
96.1599270556269
96.1280451632356
96.1492275782992
96.1871769492476
96.1467472246322
96.1621344142084
96.1556089697247
96.0957886529586
96.1029649174899
96.1323154959715
96.1639599200833
96.1883639912917
96.1202149935451
95.9943042195719
96.0255757676722
96.0753321324206
96.0656894189733
96.0117666822562
96.0025093627902
95.9761407576028
95.9558935569827
95.8899648281437
95.8635623650558
95.9525516367163
95.9934933546772
95.976511176212
95.9472990321056
95.8728860143706
95.8599670686584
95.8936117478254
95.9401943417062
95.9304460620902
95.8410270929789
95.7567798560192
95.7706887487273
95.7834659381999
95.8231553850023
95.8348990442685
95.8711809853977
95.91704570721
95.8865485561024
95.8219807936115
95.7918399898707
95.7550734973321
95.7788155602323
95.7839737243813
95.7535765889696
95.806764385735
95.8198181872756
95.753284651591
95.7643660764322
95.7932277556754
95.819022516695
95.7822291311435
95.7571985934416
95.7607960383882
95.7400571431058
95.7036980761897
95.6793112484087
95.6532329274813
95.702729819757
95.6999091016363
95.6785858578233
95.6494373468672
95.6432915228789
95.6947406015534
95.6892056674602
95.6259771855938
95.6015420695505
95.6458740434246
95.6356348563286
95.6443147070241
95.7109251262474
95.6907858590939
95.5626935697445
95.5845883820269
95.6505737102414
95.6426917489822
95.6362744103923
95.5729312940888
95.5207540276434
95.5471964234695
95.5827030486909
95.5680478292508
95.57960960494
95.5084661333696
95.4610472722832
95.5166276262979
95.5641664087888
95.5648591985716
95.5145055404967
95.4336128309212
95.3966231273202
95.4215564702805
95.3775382721815
95.3028028756241
95.3862916916024
95.3503895930455
95.31437110134
95.3085401952426
95.2679554674386
95.2071007752683
95.1975629451599
95.111378363698
95.0252218724518
95.0105374370956
95.0668517604204
95.0354487719033
94.9278976173825
94.8367382712717
94.7978712765835
94.7701358822515
94.6584215310143
94.4931533504163
94.5126335256425
94.3796526051417
94.3424676568037
94.258215454227
94.0651316988679
93.900084350089
93.7493665241844
93.513139776081
93.3697370386373
93.367536652507
93.1661932175682
92.9339856515586
92.7040852283607
92.5965346829685
92.5072944552387
92.2667016856205
92.1045022512239
92.0233390888475
91.8187909628869
91.5655782897271
91.4263261997144
91.3038980886561
91.1199087505057
90.8521024075574
90.5375064190869
90.5573809721211
90.4030822444465
89.8606619830079
89.484642540995
89.3293217245064
88.9655586160843
88.5300462698955
88.1507445089214
87.7652247043497
87.7449207148348
88.1226637165346
88.1485487216138
88.0829086311839
88.1650140836156
88.2984577724231
88.2450422948877
88.2243491189854
88.0572828986973
87.620512815453
87.3836423877934
87.3930073026488
87.1025579892341
86.8484237348083
86.8555521489553
87.0916474867566
87.4428660584236
87.8214373501013
88.2775682777451
88.7548849483983
89.2106117315647
89.6163867249873
90.032518865477
90.4047920424577
90.6992463447199
90.9477503868556
91.1795185256117
91.3877461078849
91.5909455024
91.7956695176958
91.9362327339176
91.9161136538872
92.0584756429405
92.4476421617702
92.48368363121
92.3743616312326
92.5289003426836
92.7261648256051
92.7859651044964
92.8174233461899
92.6245741097924
92.4620185114147
92.9985084697329
93.1534434028287
93.0969976592284
93.1127573863653
93.1377090159961
93.2083241279761
93.1582864055188
93.18045376523
93.2469501771193
93.2479627615944
93.5155383310469
93.69741035323
93.5498448815756
93.4809011924246
93.6365656442075
93.6724514306975
93.6515653927091
93.6844721285207
93.7055001375712
93.685828438764
93.8454263142323
93.8963809370309
93.9150443358474
94.0363903674396
94.0138507784537
93.957030368593
93.8299034577687
93.7734668360317
94.1585544353779
94.2663224968428
94.1631290267495
94.0512899837366
93.9980144176286
94.1122140840344
94.2076517943973
94.1224403463293
94.0479367501725
94.1357805856553
94.226512237435
94.2508278339899
94.2117474070175
94.1914529495179
94.1955645687367
94.1622238332512
94.149975521996
94.134955455683
94.2060753547563
94.2786948689612
94.1864954829151
94.0906072236951
94.1253931955014
94.216542449426
94.1393939008727
93.979732985779
93.97973284867
94.19272729633
94.1696894766153
94.0911931610209
94.0061186176288
93.9838116056709
93.9908635874007
93.9938960497701
93.9905944082194
93.9714665253409
93.8884674371239
93.9169452327565
94.0468431515098
94.0112589542971
93.9353694818145
93.9586573938038
93.9865526421446
93.963989512907
93.9940651703073
93.964632375749
93.8992059700299
94.0105965019024
94.0613774525207
94.0474011319883
94.0402747076095
94.0624035034801
94.0812099350051
94.0705209788776
94.1059596136106
94.2095867442614
94.1999152209829
94.1725601949186
94.1902986298997
94.2070880320309
94.2921605816999
94.3183415293431
94.2589424875416
94.2304558490771
94.3136783574152
94.3394898246991
94.297292098864
94.2955871890347
94.3217924229617
94.3444881915849
94.3338636544512
94.3765050208773
94.4160883079961
94.3966474248732
94.397463301754
94.4121687761053
94.3971055433716
94.4318929888999
94.4698273038987
94.4509462921406
94.4137029843511
94.421704723901
94.4527406192551
94.4651789268235
94.4605961792272
94.4654011081358
94.4604800598573
94.4433090050454
94.4310222791557
94.4379542999884
94.4550100905243
94.468050187747
94.4659544395254
94.4714132132431
94.4786024022144
94.4690168231507
94.4529130567792
94.4633284238167
94.4446981708272
94.4304491926081
94.4570409573472
94.4598762711099
94.4482873604965
94.4607779593212
94.469972609313
94.4641057992868
94.4481786923227
94.4494748661327
94.455190539544
94.4540626990177
94.44460088947
94.4223388755935
94.4176991122837
94.4133686509018
94.3992712651775
94.3850133040045
94.3645862058548
94.3693555480524
94.3554343967344
94.321355781765
94.2965455608443
94.2684822206631
94.2426137254385
94.2244847765166
94.1822369565068
94.1482307627874
94.1140484594088
94.0805318680551
94.0310609766255
93.9689489289049
93.9024021434857
93.8433465978735
93.7826260949587
93.7090657255102
93.6202220957912
93.5220102131791
93.4430836234762
93.3702185017547
93.2655627150924
93.1455604444512
93.0226269997107
92.8799277862615
92.7274794612759
92.5782790339444
92.4167930792649
92.2541652194854
92.0775627919145
91.8999271971739
91.7044151262309
91.5094600992433
91.3324086732701
91.1302499439637
90.9113861387521
90.6746774231473
90.4331268032825
90.2091627316384
89.9896299955909
89.7558568894936
89.5216407762434
89.2759584941889
89.0269173872772
88.7684642760949
88.5019014270232
88.2290107767014
87.9488159074162
87.6821971923866
87.4019896238388
87.1288215227338
86.8647369962029
86.5896418029388
86.3138009273561
86.0558251365402
85.751522239019
85.4448846607138
85.1748714961556
84.8931560460013
84.5890336583885
84.3116881914634
84.0325569636231
83.7428390980494
83.4479011923706
83.147539901382
82.8515077962874
82.560742827576
82.2320361397091
81.9015516197115
81.6102968690402
81.3337595697971
81.0566827387973
80.7618736410983
80.4519316146536
80.1514837847999
79.8506881563414
79.5819512053293
79.3184860126452
79.0278847093003
78.7358662199131
78.4608775680095
78.2272952526817
78.0353955565683
77.8628658065906
77.6975182804026
77.5274766181394
77.3502849292157
77.1785406694885
77.0181046435896
76.8543411244148
76.6986128927867
76.556564067808
76.4062663069667
76.2767679726542
76.1563261897656
76.0716321842154
76.0137299516446
75.9551926092672
75.9072950022137
75.8968574492022
75.9075800669485
75.9223364151344
75.9893157999716
76.1093932071863
76.2158723682025
76.3487391593275
76.5276437814689
76.7419860219492
76.9759002947476
77.1941154970617
77.4258140911401
77.6741549592781
77.9720186655867
78.2992522979392
78.6171919717255
78.9580882459452
79.3541809431944
79.7863968875669
80.2032171484755
80.6106248897508
81.0268742624593
81.4373503546081
81.8640911526404
82.3013415668774
82.704265755486
83.0847544388049
83.4450601459366
83.780961928147
84.1198198577417
84.4282114723048
84.6887882257638
84.941629941873
85.1822604983913
85.3989270211062
85.5941425964133
85.7553102467594
85.9068286331611
86.0722428567302
86.2455867931123
86.3922068314753
86.5229387377899
86.6256998429814
86.7380449499274
86.88618185349
87.0323531900321
87.1392596694159
87.2426393352965
87.3806764100564
87.5034563601371
87.6278776697842
87.7762621180207
87.8993972212254
88.007022672964
88.1074812407999
88.2445384047697
88.3344768466871
88.3772637974336
88.530577634511
88.7854120618889
89.0115103261664
89.1849840819294
89.2951427744943
89.3021297926813
89.2957861566765
89.4271325731542
89.6409674389285
89.8414613595259
90.0066152363083
90.1486401488516
90.2618258070891
90.3518658103784
90.4638225941019
90.5734132623768
90.6478757575853
90.7226186025089
90.8240436646775
90.9205723321395
90.970845377892
91.0282942149379
91.0968902313588
91.1527175362998
91.2185121320598
91.2914835693194
91.3197305270658
91.364398851145
91.4260850240953
91.4565747821165
91.4800210875224
91.5305181872914
91.615607886834
91.6726150492734
91.6814100264554
91.6858945847152
91.7043938873185
91.7234721327847
91.7568413594983
91.8056555143386
91.8540186480511
91.8448727452169
91.8588602006097
91.8925250069389
91.9121253817104
91.9207119152716
91.9453249207745
91.9629640927979
91.9973411015065
92.0263253177962
92.0170623244088
91.9814847031941
91.9917686495652
92.0642820859685
92.1078215404012
92.075487477613
92.0227581703547
92.0280588751392
92.0544175217478
92.0614590460728
92.0750771447785
92.1017164006991
92.0981668999686
92.0455716414538
92.0085524016368
92.0210810473896
92.0640112105917
92.0753721845397
91.997987958781
91.9414039981976
91.9512693243837
91.9321271213321
91.8853044275674
91.8667853319386
91.856560730619
91.8305200236408
91.795037583921
91.752445431597
91.7680857433089
91.7868582176169
91.7564784056499
91.7302599793637
91.713759042616
91.6820704559635
91.6677304416692
91.6555330187034
91.6384875052226
91.6330101147631
91.5978627876215
91.5349495512938
91.4554383242262
91.4667721236628
91.4593314444777
91.3845304957214
91.3487643172494
91.3337338640002
91.3241458437187
91.2585075204681
91.1605988111497
91.1350196957164
91.0716540298627
91.0204911704917
91.0088231691679
90.958741261492
90.8829060072582
90.8197367113603
90.7406986664439
90.699733612025
90.6772819105087
90.6483494814355
90.586398496654
90.4922313991521
90.4459440002597
90.3695476291537
90.3030047495213
90.2423889371347
90.1501490824374
90.0802872085127
90.0136371565199
89.9248938915411
89.8965121295461
89.84235499069
89.7188607131477
89.5851463728561
89.4958575172103
89.4538612772479
89.3770628184851
89.3247902082528
89.2496096967838
89.1404703716482
89.1118890969429
89.0454961790814
88.9049099976054
88.7832096089824
88.7179171416428
88.6857864973529
88.6333470804766
88.5160639674503
88.3648053163291
88.2643664815631
88.2020644871157
88.1541954795808
88.0281848748424
87.880622226897
87.8245567123006
87.7726836996333
87.7041651596589
87.6147770916436
87.4753602715989
87.2951549543568
87.1553211739608
87.0340595845955
86.9184212322001
86.8008820926062
86.6952630130031
86.6221000658983
86.5083636658208
86.343971454251
86.2516738166383
86.154990155657
86.0409839206073
85.867956559653
85.6915013094827
85.5864028817726
85.4707787897921
85.3242136107961
85.1832849947888
84.9970824647172
84.8436081997279
84.6909087046279
84.4791760370977
84.2694733371888
84.0386009206967
83.7853966360832
83.5120244425383
83.2785227357113
83.1696181907062
82.9739320964624
82.7384945636271
82.5134334844579
82.2991784498172
82.0614330099784
81.8433112478183
81.6734530469104
81.5261784499242
81.3237290266787
