1798
3999.43349933624
650.420452594757
1
128
4
95.44870296001
95.3974939997364
95.4897525683429
95.5534084135475
95.5664496555129
95.6841847185943
95.6291203452004
95.4771371404893
95.4715006214792
95.5406586869289
95.5511907219374
95.4937374369883
95.3551304337284
95.4364217078458
95.5511165175256
95.5118926263819
95.5424160906901
95.5996142045932
95.6171879696831
95.5562052210323
95.460938051257
95.4750761233375
95.526174972028
95.5353267929262
95.532392703233
95.5863212411665
95.5617634727829
95.4814744593498
95.4836858409695
95.5237275384831
95.6155197070573
95.6426678141129
95.588129376392
95.6543152189679
95.6519758299738
95.6041651959008
95.5735016187714
95.5304517489916
95.5297317902019
95.5098552617174
95.5088569555408
95.5734596945462
95.6321674366911
95.621335259997
95.5317905904183
95.5727364793312
95.6134609392061
95.6120268030852
95.5812490865502
95.5745907430032
95.5514302940916
95.5348021034996
95.4587809228007
95.4909094771211
95.5293754064493
95.5417247707673
95.534127822652
95.5718167324273
95.5095270150368
95.5253134617971
95.6132835756452
95.6348329581405
95.6493804739061
95.6607036830701
95.5379512679512
95.4825084078877
95.569747557497
95.5899169135079
95.6903124487375
95.7470571536416
95.6139671244238
95.5886883068774
95.5528241662765
95.5398814282818
95.5796845387576
95.5419819422379
95.4618807174929
95.4827967200784
95.5612946086754
95.6656977975349
95.6184354223605
95.6490160637157
95.676041395836
95.630128119235
95.5707472620762
95.6017442857239
95.578264159707
95.4741153112417
95.5778680470649
95.7696902909794
95.6885944958375
95.6522901630789
95.6705561814034
95.5823339830264
95.5224577527596
95.499193540541
95.5269277610298
95.7237070405787
95.7419859894743
95.594433107752
95.5742014653172
95.6255440928521
95.6276407476717
95.6075677229969
95.5798642034292
95.5984806485056
95.5695151657599
95.5098041114867
95.5514067114041
95.5954173558355
95.6050609352843
95.5251930393281
95.4006381154093
95.4101744472192
95.5031683793377
95.6167947184429
95.6470051870421
95.6332730669116
95.6073403099938
95.6259498684107
95.6046803686236
95.5814390980781
95.5509198647443
95.466898465397
95.4272059947092
95.5348421862746
95.5367084817936
95.4549317759457
95.5140175398925
95.6452495875224
95.7083261257915
95.6454634133763
95.4380011672128
95.4426311064126
95.3719847271442
95.3845809668831
95.4956715634797
95.439436897382
95.5572535258735
95.7098837554295
95.6785682194984
95.5031509754116
95.3942940704629
95.4020577650109
95.4213912632756
95.5331303503249
95.6256419419912
95.6118061199541
95.4359371564444
95.3253463585386
95.3934685474755
95.4932276741844
95.5553229035984
95.6399300695288
95.4454086013013
95.3130792929776
95.3133422184639
95.3772058998559
95.4615606454895
95.4420152709513
95.466208608504
95.4644610520369
95.3818886462769
95.384705898275
95.4037390602996
95.3655714768305
95.2195122439386
95.231739038768
95.3060519595954
95.2584017413596
95.2154765855582
95.2723462919109
95.177942016639
95.0407435777518
94.9441627880534
95.0276269021993
95.0187967732388
94.9143121144266
94.8702305621881
94.876252820047
94.8616278532208
94.8916743502416
94.8856259577341
94.7211141293247
94.5355709395375
94.5010087266557
94.4661495826757
94.3418591241597
94.1996594176195
94.1482536784662
94.1886198310888
94.2323726433585
94.103698710436
93.9555373298071
93.8762409519338
93.7520535868787
93.5830084099621
93.505943702177
93.4316262768371
93.1380497885807
92.9621256651623
93.0155489702361
93.0648839017191
92.9346077718669
92.4977211663298
92.3772375568456
92.3146615620766
91.9630125391149
91.8580730259513
91.9793075408784
91.804350534741
91.6103259563286
91.3807317029928
91.2994743291135
91.1843076542874
90.9770429031096
90.7620288384393
90.6154397781221
90.4694029867059
90.3617945194649
90.2479723871703
89.9153005126616
89.7020204170535
89.6690927151834
89.5370955946857
89.3410950756361
89.1860617255439
89.0901329491337
88.9399266704666
88.8385277119623
88.7610976477082
88.3763935284379
87.8500176518698
87.7695554371557
87.8220449571929
87.6922606287409
87.4365110174631
87.3258926502889
87.2692373647481
87.2135341582541
87.01567532997
86.9592305454756
86.8683276360758
86.6240893366045
86.3981616531914
86.3056729356635
86.1699667666163
86.0380058121187
85.776474501816
85.5496441396837
85.4828030390676
85.4752844933299
85.3633048546732
85.130111570809
84.931369012567
84.867150325792
84.7745469149797
84.6560247147292
84.4855332192794
84.4429204088905
84.3825009276288
84.2542148119799
84.0023172809519
83.8942961780503
83.878078640266
83.7422883747412
83.6471944805158
83.7309917412585
83.756184245726
83.6740436519115
83.4956915394312
83.4181713510819
83.3699793412202
83.2778585055993
83.3119704642265
83.3659680366976
83.2569181994988
83.0204908683642
82.8325932155235
82.8585071853883
82.815687930339
82.7377080282785
82.6690632469018
82.623761023977
82.4608102367497
82.3711899245712
82.3159628983418
82.2464503912604
82.150115721196
82.0558928023789
81.9605567120154
81.9720396550395
81.9429997900276
81.8224008892572
81.6386045552108
81.505468528136
81.3830261271657
81.2839553748669
81.093423790587
80.9809994915819
80.7739282854183
80.6971739790006
80.6381533349879
80.5198737678321
80.3753421274797
80.2789027583118
80.1336181609573
79.9765951776914
79.7503547731511
79.5979264992395
79.5295157403298
79.4612983234656
79.2806739414925
79.0464215036223
78.7926627794353
78.6088633401485
78.4553549401991
78.3953688320266
78.3749030334196
78.2608507884241
77.9374680648565
77.7162145653675
77.5950692933174
77.4638772300719
77.2647598675978
77.1029424037937
76.9840484334061
76.9583246840087
76.8759530862888
76.7324924365559
76.6508385815736
76.5414340590878
76.3826390083365
76.2636402163642
76.1387563944369
76.1525903819256
76.0726331978012
75.8534464569
75.7468967924831
75.8101643220049
75.8185177967144
75.6669419757582
75.5062400175442
75.5134506547948
75.5682869291516
75.605193034788
75.5380844335376
75.5104602026329
75.4537462095108
75.4172965456703
75.3703633605127
75.3955050719309
75.3664242597799
75.4350199923148
75.5328196151781
75.4812634639108
75.4789377673511
75.5821233407219
75.6326863359028
75.726411977553
75.8185002773788
75.8789574946043
75.8870331464022
76.0499517361961
76.2083289254386
76.3009482166383
76.2640358955912
76.2791771324518
76.3755126036167
76.49067313871
76.5082760796218
76.6354897250451
76.882468377037
77.0110130631524
77.0092656777962
77.1250875430559
77.2297637457611
77.3598290600641
77.4342629079401
77.5069768066239
77.6763393740631
77.8054535707721
77.7666469419625
77.8353700619328
77.9721865365606
78.0341977769599
78.0237517745833
78.1429026476266
78.2663850082671
78.3537953910631
78.390737829042
78.4924583004881
78.5449339821731
78.5774623563543
78.5892556692507
78.6409586217292
78.6667256143782
78.7755902011206
78.7881865636333
78.7206191747435
78.6806894189842
78.6936381463361
78.697477017163
78.6651690751599
78.6978576768093
78.7446102106006
78.7580653499993
78.7653977016552
78.7225766605238
78.8312987769045
78.9354747512889
79.055694953059
79.17035313252
79.2503525996195
79.3173835449416
79.4622210314449
79.5666308056123
79.6235619457061
79.6404928125852
79.8080606282785
79.9691957015925
80.0780271570099
80.1849099355386
80.3364780483636
80.4075712049226
80.5458485876635
80.6363879202393
80.6837910943279
80.7880854567264
80.9767404332121
81.0015574960781
81.0514892030492
81.2046371673331
81.3354437822402
81.3793772918441
81.4663185420674
81.5118484657505
81.6308238640633
81.7355806461513
81.8913109391157
82.0548311678793
82.1371188591134
82.1132692481114
82.2686920229184
82.5165707528421
82.6211606118686
82.5531166874469
82.5986549294291
82.7569266345002
82.8952467713051
82.977723672146
83.1817411110155
83.3098501492333
83.4063608581355
83.5316239779502
83.6384675522537
83.7168476352995
83.8319050030016
83.9350480758555
84.0998984158327
84.2492799686601
84.329480838671
84.423112659286
84.5466725212699
84.6607248120827
84.7924613142653
84.8997733596429
85.0451663099771
85.125838739708
85.2647049013573
85.3876306519742
85.5030510075698
85.5214911468944
85.6110164481043
85.7100316916195
85.8113650898718
85.9350580174544
86.0740545607371
86.1289117499106
86.2038230067787
86.2975462959534
86.378479856948
86.5361462064516
86.7038468171032
86.7679238940248
86.7830287984583
86.8328735746287
86.9453505886758
87.0821676404022
87.2516446156068
87.3596962721189
87.4513046491671
87.5606948748025
87.6152633600923
87.6355138858352
87.7423875447918
87.8393635118768
87.9327626511328
88.0193189219718
88.0616231279925
88.0900957803272
88.2130073498523
88.3449700624721
88.4035436283652
88.5022594252769
88.6307096993136
88.6955055181225
88.7722264444573
88.8420437095241
88.9264114509304
88.9879594183531
89.0007344181028
88.9908005189869
89.1082098687411
89.1847532716174
89.3149889461296
89.3723686528623
89.3508691150863
89.4284322741658
89.5812655608757
89.7234573606467
89.8065297883258
89.8113018094162
89.828830466193
89.9125887044666
90.0043684873232
89.9908007556406
90.0074527106267
90.0417706813313
90.1604211402514
90.3117925939347
90.3961294336051
90.3895831869013
90.4017242397955
90.4531916917402
90.5451587638561
90.6078545885626
90.6448805849033
90.6444583437061
90.6667207907381
90.7401494294365
90.8497588349238
90.8743669211764
90.8623489784723
90.9305003096145
90.9969284822494
90.9957155166947
91.0740546695517
91.1724929207444
91.28844616151
91.2877657926192
91.2713085750959
91.3874350522258
91.4498188527752
91.4456251487248
91.5315498809339
91.5446574352126
91.5447609314048
91.5660770371006
91.6083761930314
91.660152056636
91.7433022069459
91.7713344595789
91.7511581638644
91.7209317943141
91.7591769983909
91.8526559618172
91.9341835713184
91.9642117014478
91.9745763350828
91.9721111047713
92.0329497825392
92.0742296236739
92.0470185687449
92.1225354591101
92.2009892897156
92.21949589311
92.2829822194465
92.374809819829
92.3860801806555
92.3565559608933
92.4083445609715
92.4503684619474
92.5184095422007
92.5771688672915
92.5564211476005
92.5299591179475
92.5396839978452
92.5536724509701
92.6192793024743
92.6301433889723
92.6152257000921
92.6400962886622
92.708379525121
92.7550231843447
92.8191607062176
92.8823050135701
92.8976432364433
92.8923808517518
92.8520988603774
92.8244533244136
92.8768483757695
92.9285934051536
93.0006139596785
93.0760349985807
93.1148514982532
93.0714800088587
93.0525254161187
93.0745903606186
93.1066580767894
93.1394578296351
93.1626051583328
93.1710872958537
93.2016133445177
93.2930398391339
93.3120690912724
93.2416874597532
93.2272773281657
93.3086105372838
93.4166623529174
93.3867205488224
93.3245254567705
93.3412842792454
93.3849475956001
93.4176031474868
93.4353839542039
93.4244766141393
93.4430472293655
93.4844939151626
93.5064409065908
93.4986322084062
93.5395849662528
93.5822633912047
93.5451117305961
93.5443354693018
93.6121090118995
93.645255209175
93.647589149178
93.5890990421165
93.5706823027453
93.6282630483859
93.7021065876059
93.7346646069388
93.708033982056
93.6692600807828
93.7206889638931
93.7154213006098
93.7042841371257
93.7353062622236
93.785068842531
93.8021024721775
93.7712480439729
93.7723060747872
93.8080579532873
93.7951689778545
93.8149628555426
93.8336803144067
93.8493267804887
93.8579763885409
93.869305380954
93.8763381638745
93.8770769008823
93.8954732277366
93.9104527374822
93.8900328561974
93.9049970219335
93.9194643057134
93.9913492977129
94.0351442174575
93.9615867448826
93.933308868378
93.9897236328482
94.0162826473386
94.0263247937216
94.0195622576272
94.0125663814894
94.006339478409
94.0201045491447
94.0413587607073
94.0394161403272
94.0376781287316
94.09175354004
94.1128428240705
94.1308119276432
94.1269314683161
94.1067559113533
94.1195956866835
94.1599913986424
94.1355115122059
94.14067495769
94.1692270352898
94.1505201097759
94.1479735364519
94.1931376535695
94.2349848884079
94.2390795991623
94.1901609890045
94.2176628165646
94.2263529038123
94.1565248330575
94.1637206691375
94.2576848320059
94.2696155994754
94.1871380918081
94.1434552012201
94.2024625424649
94.2608676244092
94.2186097399265
94.2120242000334
94.2751513456434
94.2715018258909
94.2860414405104
94.2899685719211
94.3024403281916
94.3275024177261
94.3101360935947
94.2759493933264
94.2715026817513
94.2341340409159
94.1942359021198
94.2531530977404
94.3053295682049
94.2550900172316
94.2022868330752
94.20126191196
94.20027135929
94.220760995974
94.2448134826606
94.2211679401814
94.1964679375179
94.2100982676279
94.2676654144084
94.3372177808156
94.3679277263395
94.3830474991051
94.426766380012
94.4195065159629
94.4103174877387
94.3873898449694
94.3606080765262
94.3954092634808
94.4572781245955
94.4217132397257
94.3992287384879
94.4503533411082
94.4708717841334
94.4925185644191
94.5216007870495
94.554962116602
94.641935186126
94.6681649589412
94.6657398211469
94.6063915187032
94.5428642954252
94.5819506691801
94.6461506857245
94.6415138574273
94.6196985787389
94.6106563954195
94.6330480408376
94.6888390642539
94.6645574130351
94.6080331105747
94.6850547393959
94.7040913312563
94.6752613453921
94.6933602303298
94.6991717086014
94.7393482283331
94.7390616384376
94.7254768951652
94.760654818901
94.7689751565787
94.7578699685192
94.7166692978135
94.7281836686277
94.7857603942095
94.7707132010135
94.7712523741977
94.8537639567528
94.8278578039555
94.8346986673637
94.8484471606968
94.8475444132295
94.7912809843539
94.7456340948262
94.8045391121765
94.7775201152746
94.7130846498487
94.7679812072457
94.854876426039
94.870479783592
94.8945754215684
94.8788008152374
94.8351871006019
94.8151188174775
94.8245836185591
94.8745402024285
94.8563074177506
94.8528204500831
94.8497440622274
94.8194812869543
94.8141321929821
94.7961422675261
94.8344864291935
94.8150079505185
94.7267835315443
94.8504774995317
94.9401071565439
94.851638796102
94.7500921177019
94.7351939392207
94.8079477426336
94.7768460019521
94.6950607561034
94.7703123893954
94.8449820718853
94.8345711561114
94.7879660091795
94.7783232329336
94.7532458956198
94.7503442575617
94.6846420901915
94.7284516018488
94.7399653902322
94.7261228945684
94.8225367037948
94.7748627575581
94.6880289969093
94.7486557499746
94.7747966016748
94.8069930348353
94.7885959060257
94.722566005929
94.6484510361321
94.6658323354618
94.7474043229359
94.7318863201009
94.6718702817376
94.7050598444818
94.8147658804008
94.7924534704105
94.6888183722659
94.6779729904573
94.6627216333877
94.6038006862315
94.6824780463604
94.7359474152948
94.7221029774417
94.7138622913253
94.693102775686
94.6726961338029
94.665554334137
94.6305306583198
94.6622363760026
94.7225067626671
94.6731454663684
94.6222821638062
94.6700143463124
94.7270464461126
94.6649254558443
94.5383573791469
94.5357974902177
94.578761486833
94.6163419952635
94.6528535709073
94.582566759183
94.5574983026079
94.5750161132288
94.5098463202335
94.4835180438796
94.4633516652543
94.3893051854452
94.3936969897967
94.4158435433805
94.3970408384901
94.4138297720961
94.4734395885593
94.551605306298
94.5221507694873
94.4672218487413
94.3889703293944
94.287997464349
94.3517149678847
94.4185802311184
94.4240955665801
94.3611586930666
94.262179067735
94.1803289984111
94.1173629896305
94.1880017384068
94.1986832896913
94.1556952597608
94.1495809733831
94.1398901109494
94.1670378089021
94.1839803467761
94.2090699262725
94.127988191807
93.9419988650343
93.8779236287965
93.9210352169913
93.9700268512981
94.0220881496149
94.0756728896472
94.1395638371868
94.0815865062127
94.0616408661878
94.0687074529586
94.0509215587338
94.0628833321892
94.0697260047018
94.0303339418563
94.0299062839434
94.1060341631291
94.1701799061169
94.0584420253661
93.9512206707602
93.9540632218747
93.9710715092107
94.0919194693036
94.1346594062291
94.1670486318606
94.2476763807399
94.2065566812741
94.2014138963573
94.2961230813367
94.3760974327813
94.4119129465808
94.2632810488816
94.3032801083684
94.6373972096151
94.8219671267914
94.7801984609279
94.6754475363397
94.5873645266451
94.6533240652542
94.825329391653
94.8689112877305
94.7021220589431
94.6420491427742
94.790609678272
94.9664089803075
95.0080778624704
95.1210380257367
95.145075571923
95.0519695757018
95.119407187545
95.3686021922955
95.2575658481428
95.0403926754015
95.1456782298554
95.3317739269426
95.3298936881451
95.4183619727484
95.4146275076995
95.2944878823324
95.2379736190761
95.387078527422
95.5096114438232
95.6816148994068
95.8195709224123
95.9033243810384
95.8383489689264
95.6918630606589
95.7247332515604
95.870965814161
95.8315067221294
95.7343874919462
95.9017037125267
96.1249558912359
96.1703093877058
95.9385802445309
95.7771031276871
95.9346321793635
96.1454935384545
96.3589439562936
96.3394917879495
96.121983646377
96.0839138190892
96.2530504211673
96.4060374184623
96.5884099038503
96.4203051547375
96.380074767334
97.0153846738468
97.4049032611011
97.3161929723685
97.2568682432374
97.118127017772
97.1280148605036
96.7013213481441
96.3445832170039
96.2675716394205
96.2213202785913
96.1574719886383
96.0469192522723
95.9160454699292
95.6147789651503
95.723033796558
95.9246990363819
95.8299117577509
95.7228617714179
95.4756687235914
95.2607763481241
95.1948239387709
95.0852847236136
94.9600788950915
94.8875709445175
94.7860641988188
94.8422576089592
94.9852807364448
94.9177743225066
94.8289124555925
94.8306102307313
94.8468164461549
94.8870775365541
94.952098607285
95.0223007549045
94.8841862062629
94.8697378616684
94.9865384837015
95.0887989911504
95.1736409800809
95.1559780036837
95.0729071667419
95.0624747200877
94.8619403305851
94.8748882615831
95.1562150232084
95.2511171828099
95.1546318558728
95.1019448120347
95.0549846532417
95.0937014166626
95.2410580228006
95.2612037171879
95.1620171789569
95.2905790026704
95.5598631942248
95.6425885995619
95.4961017710311
95.3863290595643
95.5090700008756
95.6867736582069
95.5957234081789
95.6931514438105
96.0632571023422
96.1897839633307
96.0825895172741
96.1320198447304
96.3148001744818
96.3705873001955
96.307765164337
96.4775865711556
96.8454553400533
97.0758924995487
96.8833393130832
96.4219057905276
96.5622418596702
97.0011421177205
96.8833768696623
96.6020910641963
96.3485194482126
96.6176652790453
96.6600288607375
96.7089472090315
96.9147149668397
96.8622697702091
96.6167341359189
96.6054816269723
96.5837542835907
96.5243899522402
96.3462270842709
96.2734354068197
96.633474973877
96.5711677628129
96.1536474850786
96.1031015585505
96.2260033237909
96.4152507808572
96.4081939189752
96.1526108440879
96.2051495411481
96.6427466125148
96.8397202689451
96.5683452405995
96.429565928795
96.7268422557001
96.8954195173767
96.6969492858837
96.6157557470228
96.59174968639
96.5883055733951
96.6004045362974
96.2838077936011
96.1319717575978
96.3084011468831
96.3130182185432
96.0909455048903
95.9796402502813
95.9007308119803
95.8266006042835
95.8862856112497
95.9094761518586
95.7971254706589
95.6729866166265
95.6423019110189
95.7028706523061
95.6036041436979
95.5632536869129
95.5547802907455
95.5025178649612
95.3617040306576
95.2249646999326
95.1471728366584
95.1455272866637
95.2413857644439
95.3627061355526
95.2930848163747
95.113009241912
95.2067390214584
95.3358209443828
95.1505904342286
95.0293363095766
95.1675592038736
95.2422111823763
95.0837536942636
95.0158294954621
95.0519935335253
95.1218795457988
95.1051596945288
95.0687211428
95.0863377413469
95.0826962667711
95.0257109369859
95.0531522665327
94.9826582031599
94.8618439061615
94.8622191661724
94.9518067843548
94.9503898528893
94.8249736208285
94.7296688434903
94.803470755811
94.9727415823722
94.9574466002771
94.7740965692494
94.763499504176
94.8207028990464
94.8318350730193
94.7406694210692
94.7141073905252
94.7651672201278
94.8017166455978
94.76413381786
94.6786802646962
94.739820562678
94.7424583597725
94.7285287910857
94.6948866889252
94.6633504303182
94.7014837571472
94.5950702377671
94.58105579408
94.7172844991012
94.7277092682033
94.7088565777373
94.7340115814225
94.7246494406273
94.7154838438968
94.762194461935
94.7595576117772
94.6445776122275
94.5285630401092
94.5193786702921
94.5908435450891
94.6198077719341
94.5819455170528
94.5358578203292
94.4986292927321
94.4989135641232
94.5176630498456
94.4881730216251
94.4589714875603
94.5413074286273
94.6207536934631
94.562731493828
94.4856460703428
94.4711244406036
94.4851789749615
94.5105521796228
94.4976567769022
94.4809502344479
94.4095196062282
94.3354814167705
94.4341286152536
94.4732717166699
94.4850808112867
94.4631626375257
94.3780479729429
94.3830298321965
94.3662907873611
94.3144118630503
94.3720143204142
94.311629375536
94.2130642727313
94.1977238477492
94.2018619676747
94.238209826151
94.2640548212106
94.2168992801742
94.1773158753761
94.1971900704879
94.1259631910274
93.9371335410141
93.9798066130819
94.0645794988851
94.0529651205568
93.9901369931941
93.8864412142678
93.7788013333779
93.7231082481428
93.5784143827371
93.4668154219199
93.5349700549271
93.5878306333727
93.570198813116
93.4874356937545
93.3505305568883
93.1965231576739
93.0712092579614
92.9790733491389
92.7158549786379
92.6227968392428
92.6263865288958
92.4965627180294
92.477348690217
92.2909747289075
91.9713539153081
91.7048757274041
91.3805537409958
90.9775188201309
90.9284222400399
90.9102641123156
90.6756218906426
90.3509968991262
89.9755900412772
89.8150535849804
89.6084314633025
89.30946314876
89.1124243918903
88.9536365066438
88.6317033906718
88.2681092944198
88.0473846488194
87.8315030206454
87.4262242644627
86.765719363862
86.1310919949106
86.2682019236807
86.0455216215227
85.3623921757752
84.7257801213044
84.354799579165
83.8149588646402
83.1811771029399
82.5774724519209
82.1742902887273
82.5839448724822
83.1689435684186
83.4049596430954
83.4563853228667
83.4667964262466
83.3780477309644
83.1192098581487
82.8652024338295
82.4293138607993
81.8151545548251
81.4615010930957
81.4863288635915
81.4527112450413
81.5631943441797
81.9692022711615
82.6386022021429
83.3470604822549
84.0759823130146
84.8413807171464
85.5454951951975
86.1300317891216
86.6582140502077
87.1528574130984
87.604851094484
87.9946238944594
88.324114731508
88.641483444048
88.9093536574484
89.1030149404563
89.2702877935494
89.3329536776825
89.385236250895
89.8091687009304
90.0919684203466
90.0534013727446
90.1116860655366
90.3409089273985
90.4284613138085
90.4952474409121
90.2760639958054
89.7488145084098
90.3446985424722
90.9851682127177
91.0536874342346
91.0601673864622
91.0250875191451
91.0582284990982
91.0449262908069
90.9836873635375
90.9291209432352
90.8529823923091
91.2325529220887
91.7101542954343
91.6559814620534
91.504834445175
91.6830353354665
91.7679293647166
91.6905521158222
91.6666546047529
91.7188820650643
91.6708072307608
91.8457123662151
92.0473732520474
92.023746432269
92.1114954129785
92.1378463885898
92.1041675807859
91.9653029630888
91.7751443163101
92.2029011609448
92.5601467190839
92.5034368228671
92.3601414410474
92.2064515795679
92.2415122419224
92.464257466628
92.4680457357929
92.3039846970097
92.3227599409789
92.4768737448112
92.5550548467019
92.5351968652859
92.4785346085155
92.4460467339945
92.3760514205694
92.3363404338468
92.2712240326716
92.2747805457988
92.4747477800411
92.4842876473691
92.3597942726116
92.2675020293488
92.3464267538423
92.3241751869805
92.0934791137694
91.9038820727929
92.2303399198758
92.3915945055914
92.2943417990305
92.1378806037779
92.0666002037055
92.0804839125546
92.0679171204304
92.0397975899328
92.0298372104652
91.9122410495408
91.8568620331703
92.0284566318674
92.0329406789442
91.9325121456121
91.9431367559974
92.0073596164795
91.9699969753618
91.939086569236
91.9407510337866
91.859747077804
91.9528646500054
92.1468812732435
92.1891053865193
92.143424425803
92.1420227342438
92.1864312714575
92.1953055370944
92.2041430058374
92.2881852636332
92.316310953742
92.2995780494319
92.3327064349861
92.353794528123
92.4229248735673
92.5105993257228
92.498679990815
92.4460527456195
92.468463640407
92.5258353614903
92.5479153969883
92.5551274266004
92.558565724723
92.5553159150104
92.5265616880144
92.5842698838431
92.6522018460866
92.6504423681681
92.6450470943115
92.64742287395
92.6179703725494
92.6346025336236
92.7362272271985
92.7695146788118
92.7421071490773
92.7466787803542
92.7449381264662
92.7356540173268
92.7465474707848
92.7519141318775
92.7447090425342
92.7363481648991
92.715027139644
92.6908366440451
92.6961935150619
92.7180551626843
92.7521795019785
92.7593812361509
92.7341115654245
92.7169732378718
92.7279916366295
92.7346762040842
92.739683179294
92.7371156251815
92.7374208553853
92.7515914321568
92.7553321689572
92.7531066848218
92.7666405304438
92.7809711598556
92.779253044207
92.7568558964962
92.7241901589025
92.7472424805848
92.7569941112534
92.7309936809174
92.7077020757925
92.6930172655268
92.6751436031976
92.6558718971507
92.6217381220005
92.5990597742311
92.6266256868847
92.6217786654694
92.5816319848089
92.5530085255919
92.5109783531074
92.4716564428714
92.4390389367256
92.424876644748
92.3938656526701
92.336848390023
92.2916634596241
92.23746817388
92.1816625342909
92.1273844593943
92.092096119018
92.0190137354007
91.9065099216536
91.8197769078285
91.7538468350869
91.6797698981647
91.536340484634
91.3852519766868
91.2659792565899
91.1424367032948
90.9847977615432
90.8088470503793
90.614382898206
90.4182632125628
90.2270844906497
90.0253874417959
89.819947255881
89.584343120278
89.3266125765763
89.0700048379745
88.7990226343553
88.5279292281997
88.2659768442755
88.0058572736642
87.7156371007622
87.4186196877995
87.1177357722601
86.8128253661034
86.4835728885386
86.1342998060841
85.7837608944004
85.4423024649809
85.1312923614383
84.7868469090685
84.4113259238773
84.0634161294417
83.7241392923851
83.382381667009
83.0221215347847
82.6916182254604
82.3307632519466
81.9510617002435
81.5733398093943
81.2092226731697
80.8729002611146
80.5291005912134
80.1645375040781
79.7846245951276
79.3971065423742
79.0293703408334
78.6805381766432
78.3258179809786
77.9637981591259
77.6098218419968
77.2694511743805
76.9120655655986
76.5360988344298
76.1684969145936
75.8275014672045
75.5041365552877
75.1480822741419
74.7894963265515
74.4575645286909
74.1071420886108
73.7613249883489
73.4569540750105
73.1736391053962
72.90847682854
72.6911501025606
72.4857979510398
72.2563984887249
72.0703597209432
71.866059199655
71.6193318262302
71.4296006357139
71.2567267038503
71.078911717438
70.9294105752326
70.7907897416498
70.6703964074363
70.5584565614668
70.4514126174156
70.3813433193028
70.3337296144497
70.3170404964693
70.3399268063201
70.3913652325382
70.4595194240796
70.5652449582114
70.7235719888964
70.8848934354153
71.0652668408786
71.2711443595555
71.5017436335477
71.7564671006819
72.0671493203679
72.4236956575795
72.7684792697523
73.1269900657263
73.5558456264923
74.0476691582729
74.5425096787589
75.0415698761728
75.5542252380798
76.0795299881033
76.6284783189098
77.1837962131682
77.7198408810525
78.2430669223823
78.7561427592473
79.2337606953458
79.6698692492908
80.0848670933955
80.4794177164632
80.8534818208143
81.1886918865738
81.4915658351995
81.7543728905099
82.0048818980287
82.2527683045057
82.4817698135743
82.6915856934506
82.8803159800538
83.05837376592
83.223624009351
83.3800615012864
83.5242290475716
83.6597068485055
83.8189669874788
84.0054199341708
84.1598916329759
84.2809004842951
84.4224108816784
84.5732210490443
84.7202380256479
84.8609321692817
84.9788178947409
85.1127109080619
85.268735669365
85.4070633722549
85.4933107120174
85.5731695457742
85.7540211201183
86.0173641323861
86.2671996612677
86.4844824603368
86.6494374517556
86.7008758396523
86.6677057739958
86.7688866090633
87.0096083666536
87.2733680947235
87.4786230484374
87.6165977262151
87.743751497768
87.883739037277
88.0271280866933
88.1429703457542
88.22746673156
88.3187372962305
88.4168805945501
88.5366454123997
88.6270124945764
88.6745044744063
88.7267341414219
88.8229792540809
88.8997413443799
88.9846984969491
89.0819479794683
89.1210699901901
89.1606059451684
89.2023813333199
89.241430856031
89.2943250052736
89.3317560479327
89.3895131257044
89.4445214537493
89.4860295578532
89.5116879673371
89.5400182007613
89.5495702377708
89.5839232867426
89.6610471295943
89.6743483396195
89.694386513791
89.7299406844225
89.7386840433045
89.7735728911298
89.8265664108789
89.8297940082131
89.8387119794587
89.8735564003203
89.870120391282
89.891371622595
89.8987304179402
89.877253365848
89.9002289979573
89.9228012651685
89.9188614634103
89.9006448615733
89.921397661133
89.9736359641597
89.9502134718574
89.8811107885065
89.861193489522
89.8776196414253
89.9120357174169
89.9188632341842
89.8923409821141
89.8316888428782
89.7806006893509
89.7469455609021
89.7456222195235
89.7436600220169
89.7160316481538
89.6760021870651
89.6721746032532
89.6454714481106
89.6002682633303
89.5676173700173
89.5508447199526
89.5221109346352
89.4808067101084
89.4526355152618
89.4754426518497
89.4709996566907
89.4307269700142
89.3833195044736
89.3372633329728
89.3278124746917
89.3257268400407
89.2772656303345
89.1662696497219
89.1007589076648
89.108471557366
89.0480101284493
88.9804665632313
88.93246349514
88.8268491495855
88.7858101495969
88.7742353229389
88.703201764166
88.6301423603786
88.599519876492
88.539117041332
88.4728611410294
88.4035322435401
88.3088593917754
88.2193517435998
88.1496634170968
88.0914928024053
88.0256325359619
87.9395897697006
87.88118007414
87.8044722542686
87.6607634900489
87.5799593842457
87.517364462066
87.3903929628093
87.2724946987803
87.1850820934429
87.0829277713259
86.9811975891107
86.9216256748663
86.8494340607651
86.7231353570144
86.6303731862012
86.5361875422271
86.4320881255886
86.2954897556366
86.1862020625636
86.0835942401821
85.9780578589931
85.9059447113584
85.8041613361482
85.6687995132323
85.5831158068059
85.4475390334451
85.2899303803045
85.2015091633853
85.1182234148765
84.9842990716838
84.8358961980215
84.6920352509394
84.5649190460861
84.4422091109094
84.3339466513344
84.1676015642476
83.9815393008227
83.8598777157698
83.7229078281133
83.5781867147356
83.4171374894787
83.232023340496
83.0375988451583
82.886789735846
82.7701464713994
82.6013680966512
82.4329727570519
82.2659674069424
82.0920404454606
81.9179676162819
81.7615769827265
81.5694694321096
81.4095451789412
81.268480851877
81.1107737894839
80.9710462730096
80.7192638420238
80.4661485398471
80.2681667039713
80.0763930696467
79.859326945341
79.5761923764092
79.32279955347
79.0520802847807
78.7354236596781
78.3730366069915
78.1946800776724
78.0540343311955
77.7681314451435
77.4797219324906
77.1549083569812
76.8101790232451
76.5811545291756
76.3454544779456
76.0747469118994
75.8630386434031
