1798
3999.43349933624
650.420452594757
1
128
4
95.5514808513181
95.6017673232969
95.6709400057803
95.7428539400645
95.7851793853786
95.6739920867238
95.5486123335386
95.6072905760092
95.6986606371302
95.6038753365149
95.5121617807253
95.5714087378357
95.6171989279939
95.6604090022555
95.6384491694131
95.4148857008429
95.326339993962
95.5135532018137
95.577594389593
95.5308960362984
95.6171128744463
95.6982235512723
95.6167776514115
95.5716691104816
95.5157509941683
95.3593371955207
95.3912648271605
95.6244273506286
95.7062778256599
95.7822131147221
95.8365093060542
95.5649400694649
95.3654377622297
95.2391192122989
95.0928971928386
95.4432973685841
95.4221317626585
95.1454396922182
95.5279434858143
95.9045166150001
95.8714930142089
95.6612725197321
95.5905038881461
95.6282293456633
95.5788397198164
95.554006055092
95.6191420930855
95.6338745944591
95.5565025461179
95.4302409317407
95.1803397804786
94.8420333886533
95.0672257020195
95.5684199613167
95.8838017746931
96.0712688303577
95.9508593708351
95.8067871555078
95.5307943238487
95.4421504787178
95.6070867940255
95.7060323510841
95.5710365765443
95.5028045508231
95.7109423669365
95.8181008763257
95.6091355656087
95.3487570863786
95.2239124363379
95.3342532783126
95.6254004274529
95.7865067748465
95.7445845677263
95.6990516319455
95.7726403921418
95.7425172391807
95.4534661619542
95.3018129263029
95.4385082359521
95.6161833215442
95.6964148061689
95.8473909885727
95.8364958200983
95.5074736510223
95.2449779835988
95.3127322082511
95.5515372090713
95.6951874856266
95.6518719503049
95.7263817654909
95.8971799653471
95.8682221819372
95.6128788356646
95.4216620234258
95.3926855333724
95.4298458590945
95.4691353097835
95.689211476875
95.8458686311788
95.809529237064
95.7148950632131
95.7117290487138
95.6575133048796
95.4458117605015
95.3728820151396
95.6009300392202
95.7065527965632
95.6927296932989
95.7915808387154
95.8635749677009
95.8810661674451
95.8967258773022
95.6836966517034
95.4988583872681
95.5005642565515
95.5933327946951
95.685502445624
95.7213459285282
95.7047393383847
95.7246384943816
95.7886115194263
95.7888024560971
95.6930197907475
95.6499271998112
95.5864910274782
95.5871475636142
95.6399190901737
95.6659224441133
95.6437539320628
95.6579937352266
95.5467907192676
95.4313044924207
95.4683395916758
95.4858776335481
95.3183364246952
95.3993034287551
95.7207961048249
95.8580706473697
95.8519056941616
95.7723104732473
95.6027328611289
95.4977313882346
95.5105741611014
95.6957110541675
95.7935691148321
95.8076502092811
95.741738775167
95.6606672567834
95.5950983100101
95.6710387960515
95.7613768424511
95.7425221549065
95.6316388902663
95.5180391139088
95.480041427397
95.6459051545698
95.8270153355074
95.8851679551658
95.801578347458
95.7844639522203
95.8385644253409
95.824819244189
95.803354872422
95.6812898939753
95.5239080980969
95.5065508608311
95.5181490376826
95.6134368680799
95.8003412855639
95.8494551754586
95.6140844309047
95.3929757974888
95.3037284873771
95.3470343163296
95.4047480726037
95.3501298939958
95.2670517940587
95.412327922516
95.615635891933
95.6819330862432
95.6239478967423
95.4458122504979
95.307343750751
95.3175380157668
95.2539950732044
95.1647563693282
95.0762837170052
94.8683513894071
94.8482131198489
95.1499041838685
95.2562286063016
95.1964990860335
95.0709539178301
94.9795889809562
94.9528977062336
94.8660353199333
94.5832546801723
94.2819712280559
94.2472646791593
94.4586719429445
94.5605934709575
94.5621624033053
94.3929524096282
94.1399977694444
94.0014140383405
93.9493068255618
93.9833508371023
93.9289565938477
93.7323667156735
93.6516763975523
93.5078084574467
93.4826353103924
93.4583677796322
93.3340011140363
93.1200257002701
92.8950734778316
92.7739371234265
92.616958898421
92.5241402208324
92.4787207014274
92.3461243755734
92.2984484370777
92.2396719741414
92.1869993505437
92.1424102061653
92.0749815467188
91.9336093221521
91.687421248469
91.425415282577
91.3067133488359
91.2428390346754
91.0120853360534
90.801405585492
91.0028275199115
91.0687390738658
90.916673112418
90.7898078026769
90.6157550828207
90.4456440828536
90.2644410630652
90.1532825395981
90.0785909100293
89.916640519243
89.7693401526815
89.6191335090285
89.57324126971
89.5906650111902
89.5643919988961
89.4876656742689
89.2550481640883
89.0592424066821
89.0796467914148
89.0026176497129
88.8486525779231
88.7104365800698
88.5737855343398
88.5611163213265
88.5848553026069
88.5605299007983
88.4103513451175
88.2368446838309
88.1532138709563
88.0188897749513
87.9213463424157
87.9611835136361
87.8562973755606
87.7638065612756
87.7777423520131
87.7155739280793
87.7922453230991
87.8292283413781
87.7391343548585
87.7015850007059
87.6240533027575
87.5480963644396
87.5746723065263
87.646866935294
87.6502259242842
87.5418883623853
87.5280453950568
87.546931828743
87.4385507036752
87.3185687293334
87.1807437907546
87.1626174416933
87.1900365230859
87.0324740676222
87.0246736649106
87.1486271135213
87.0704665787117
86.9536675216625
86.859417404175
86.7122019719344
86.6013210698714
86.5257617709087
86.4364793735283
86.3492514685933
86.3336727435246
86.3171466579226
86.1958777788985
86.0865303431348
86.0181889841106
85.9299532211183
85.9559482206876
85.9194502129262
85.6767884995811
85.4588970955383
85.3816498166791
85.4144271834098
85.4039552504147
85.2485117340877
85.208528670331
85.1744789242862
84.9762846980028
84.7812494595377
84.6606968496285
84.624457931568
84.6268342905284
84.5123643697167
84.4057904508003
84.3147870321354
84.1700539871181
84.0651933783233
84.0196404465418
84.0024830152196
83.9581478626302
83.8040009060876
83.6511210622906
83.5513315987382
83.5486221926921
83.5149788798504
83.3668230192931
83.3182944385829
83.3028645298365
83.1784828258436
83.1246681013455
83.1329347407002
83.0037601122193
82.8155942142791
82.7657818094353
82.7374922199564
82.6944228942784
82.7089447944714
82.7102126058172
82.6320273271795
82.6097938424595
82.5721857798319
82.4854570936973
82.4584817985047
82.4667140158092
82.44323702161
82.4805853711072
82.5182542643612
82.4999637597792
82.5997502117344
82.718585612844
82.7663411566776
82.8340489999255
82.8653591761855
82.8834756054211
82.9390089986898
82.9979921337124
83.0961067172851
83.1891091635044
83.2649234847941
83.4606998330959
83.6221091357106
83.5964784645488
83.6463200297226
83.809104778124
83.8803952436277
83.9491434824456
84.0860526859175
84.219892178433
84.3389945691703
84.3871268503913
84.42068469947
84.552215816567
84.6673946502822
84.7687832835664
84.8925281519285
85.0208164199068
85.1254468671714
85.1936179614856
85.2652344539194
85.3650066518599
85.3983748730769
85.4370084822308
85.533817366343
85.6355638609569
85.7591717911186
85.8927481489798
85.9110569940913
85.9915668755646
86.1373598024956
86.1396406799402
86.1278668661986
86.1777571034655
86.2013526315827
86.2265797593072
86.2095979522702
86.1519089786862
86.1151995416758
86.0897309442388
86.1847760553528
86.2711312042569
86.2019100325489
86.2223242636353
86.3216187917279
86.3879471285547
86.4052235194344
86.4780605625534
86.5904810674837
86.6761339737087
86.7578994168593
86.7993835894731
86.8349742404217
86.8911259596478
87.0008621028871
87.1394640690144
87.2275075432581
87.3721193818576
87.4990592486037
87.5930881917728
87.6313506805128
87.6702767918542
87.763937229056
87.8395920496705
87.9034736897406
87.9866351735217
88.008150212016
88.0605971181389
88.1674481837675
88.2471977519164
88.2991747328341
88.3915051377192
88.3922138652491
88.3794954142289
88.4567750655845
88.5741916682974
88.6615218867594
88.7075379418904
88.7443429565559
88.8479416488887
88.9254624856725
88.9327101024791
88.9404753805503
89.0564717342509
89.1949992752762
89.2473948279791
89.2984995390865
89.3475414705882
89.3873012448295
89.4332771036983
89.4572858373406
89.5749018819652
89.7019583822473
89.7386918437955
89.8539019638492
90.0338463960112
90.0720053627284
90.0824913840067
90.1125474849499
90.1630579838902
90.2465706505166
90.3346745299289
90.4071790550019
90.4930902362946
90.5207071331794
90.5254351608184
90.5591608865869
90.6277233894663
90.6874784330332
90.7859415226937
90.9246683790709
91.0326494048831
91.0287456039436
91.0476705120438
91.0821959052342
91.1055161177252
91.2165833566074
91.2915097175963
91.2769467048181
91.3722525547661
91.4815142129592
91.4723595107192
91.4404047819854
91.5216461449641
91.6284043209154
91.6880921870868
91.674486189042
91.6327383648999
91.6901645358092
91.812018048503
91.8726508935685
91.9118264227165
91.9379107361147
92.0242642833174
92.0637465372282
92.0463767527578
92.0971627315435
92.1330087775511
92.085316510457
92.1547051804571
92.2603701867552
92.3378859834255
92.4319940545412
92.4502266830825
92.3653882781428
92.3843979746389
92.4562629180873
92.4605923230472
92.4849448280777
92.5230138907318
92.5650743674073
92.6363641654594
92.6622384542202
92.7104383869468
92.7260120186421
92.7448868834735
92.7380113806107
92.6938736749963
92.7313030572158
92.8465974336147
92.8694006609464
92.863767612203
92.9289546394973
92.9778992859814
93.0054748738887
93.0588292775419
93.0803550853134
93.0932461509452
93.1064039333514
93.128448111851
93.1431642175746
93.2074859853659
93.1992421240438
93.1918437083902
93.274357528018
93.3363722797123
93.3228733817929
93.3120720882583
93.3645045673002
93.3927264239862
93.3528404541935
93.3665442943669
93.3933392197821
93.4137406503541
93.4253271196932
93.4465253710763
93.5093984615596
93.5403737064161
93.5165911739088
93.5504641304704
93.5531327632529
93.5811680277979
93.6625255319789
93.6501806311759
93.6094958631826
93.6587103503579
93.6570054810547
93.6285231734514
93.6284667866844
93.6565731566487
93.7323004020834
93.8009995275059
93.8014413741266
93.8453287988693
93.8635085517019
93.8118248087475
93.8375796439562
93.909175111588
93.9271169143842
93.9404754867077
93.9023146672007
93.8894608624036
93.9026423194997
93.888504092218
93.9177334157898
94.0032002612248
94.0379963583878
94.028308366661
94.0017845525596
94.0129749870288
94.0320279911746
94.0673503535065
94.0854998815535
94.0534478443017
94.0566911878929
94.1093293201993
94.10626785416
94.0874724693784
94.1285373623867
94.1952447855726
94.1780021237518
94.1466294271376
94.1415983579188
94.1693308930535
94.1820190641788
94.1672522187527
94.200458521458
94.2431242783794
94.2163510968869
94.2630218112312
94.3083651341954
94.2686568422059
94.2612722378562
94.2930613115305
94.2805897736717
94.3101765885957
94.3419239623823
94.3383985751208
94.333883583569
94.3249615116602
94.3616463146246
94.4226002465848
94.4040843644112
94.3667193290657
94.3722439615554
94.4235880634448
94.4721321689583
94.4615541483782
94.4122944328854
94.4256002851466
94.4208482842144
94.440098136853
94.4933809666237
94.4848212138692
94.418941925486
94.4099024464219
94.4839717872522
94.5390370237777
94.5416451269918
94.5198291777327
94.4639225652979
94.466252100721
94.4698436117755
94.4619934667308
94.5231723932446
94.5986399118074
94.567382493196
94.5357173392952
94.5733909215049
94.5989980759906
94.5969014169451
94.575202926085
94.5570108818949
94.5835181047459
94.567231190964
94.5354550518529
94.5487511157962
94.5900400719498
94.583769866589
94.5855126280339
94.6335196913058
94.6867672028623
94.6645737754525
94.646920186058
94.655327240677
94.6222849337066
94.5862078759817
94.5722816879702
94.6032350815435
94.6822931952037
94.7185995599219
94.6953828158469
94.6705085086109
94.7085704758676
94.7232531024284
94.6663774518497
94.6707376529051
94.7445912585006
94.7256112822651
94.6939717365332
94.7148754244317
94.7190542120382
94.7118580184583
94.755845233212
94.7971521412218
94.7844524759451
94.7364567589962
94.7300182695484
94.7294006992868
94.7395557054919
94.7873177890351
94.7785804551885
94.7251615574228
94.7338639257755
94.7753710996572
94.807633757555
94.7730038558267
94.7581893981844
94.8016056278054
94.796743941535
94.7329318077038
94.7597735708091
94.8363050321127
94.831360834436
94.7850598897657
94.7877852407556
94.8061310446968
94.8033607751598
94.7884757112819
94.7895462816775
94.8081608494949
94.8397628392531
94.8612001009489
94.854379370936
94.7873213102744
94.7653854208452
94.8170096038485
94.8706763696002
94.9070168767914
94.9027454254765
94.8707916982027
94.8548997573631
94.8175491626925
94.7793036860825
94.7381935160631
94.6969370051796
94.693313864216
94.7319657092094
94.7216759931041
94.6742420544264
94.7122728756014
94.7887535279459
94.7855677761732
94.7702132714036
94.7340533992471
94.7072440600502
94.7179256055907
94.6987758779328
94.7109502426571
94.79913841757
94.8390343881734
94.8421411841589
94.8124447224492
94.8015580465439
94.8174610191371
94.8152206264012
94.8117422905763
94.8351162170874
94.8604553099559
94.8479169331198
94.8369261921382
94.8866537611315
94.9349480149146
94.9503325036174
94.985670643258
95.0204393834123
94.9513252097813
94.9511789830414
95.0370349960812
95.1051169263992
95.117849188893
95.0969221797882
95.0122342823091
94.9702752353746
95.0321147901026
95.0608081424409
95.0916760198135
95.1354282040082
95.0975014356617
95.0138627639968
94.9652047147916
94.9966885371576
95.0397588383627
95.1259705846985
95.1421277809809
95.1912885273056
95.3260115997106
95.3430695713179
95.2503236057114
95.1320562103604
95.0634409323815
95.1531936241296
95.3062643429672
95.3372214571186
95.2898177146867
95.2974981089392
95.2246319023544
95.1414498249016
95.2116394312634
95.3021763869858
95.2397414890423
95.1870564678242
95.2186372583356
95.2684441400588
95.3363776163394
95.359136811312
95.2577601472762
95.1973796800145
95.2195897480872
95.2300564320436
95.2541983549334
95.3366738701419
95.3542037544099
95.3566517885758
95.3313363427023
95.2905470676178
95.2715100960906
95.2547243581101
95.2582632544967
95.3216536307632
95.3659344696295
95.3501900314891
95.3437129932108
95.2942520930825
95.2094237537019
95.2085738821497
95.2683001979621
95.3695119028881
95.3832684965056
95.3367133838984
95.2733421996514
95.2830032772277
95.3599838362789
95.3827462351996
95.2950963318625
95.2273405609315
95.2992575896861
95.4084286202828
95.3800069654965
95.3441255172911
95.323113715319
95.3198104488894
95.321959044308
95.2726908314321
95.237797424501
95.2529230681079
95.2896583513726
95.3220091960861
95.3279557348903
95.3306800775588
95.3440318147671
95.3612548457917
95.3698473573461
95.4070527320112
95.4250267278656
95.4156121961091
95.4010903507235
95.3341247084493
95.2979341867651
95.3147314256476
95.2937816209101
95.2698739650694
95.2901613171548
95.3357691688319
95.3370356750424
95.360437278716
95.3963134993141
95.4026468473677
95.4000138995914
95.4131334487071
95.3769934603812
95.3359203667007
95.3601131528761
95.3077800701109
95.256320485987
95.3507416689982
95.383466897475
95.3123089805064
95.2819952794746
95.2984045983491
95.2899671098569
95.2928955080957
95.2472350986982
95.1967092211043
95.2070583895612
95.1854814910895
95.1943900443303
95.2023974328692
95.1612701259578
95.2101946871728
95.2700748947329
95.2735120461445
95.3012596311814
95.3097034302377
95.3307714112006
95.3979466445113
95.4000103724655
95.4597073825114
95.5127108834042
95.5179602005611
95.4057965027943
95.2654174832722
95.1993286534835
95.1041184317016
95.0066980852607
95.0321811479262
95.0557792254444
95.0578866392958
95.1115954355367
95.1361072167555
95.1831952949647
95.2125112478063
95.1189089951493
95.0071980530038
94.8962740250611
94.7970766860241
94.6921425893164
94.671608440549
94.7549008062594
94.7957457055152
94.7669940515525
94.7758848033012
94.8191973435105
94.8402749492447
94.8658488537534
94.9133164684414
94.9106397738863
94.8662804024403
94.8227644820068
94.8481843744333
94.8618066899917
94.8220466804766
94.7842259356746
94.7280639193838
94.7668465071795
94.9102289387333
94.8610404325298
94.8087831902638
94.8724919785032
94.804950633074
94.819110550584
95.0118986178499
95.1011038189834
95.1577924334365
95.2201622366878
95.2488805234256
95.2852114582079
95.29072880354
95.3296987350006
95.3993096852348
95.3341201973819
95.2552269143187
95.3973920244368
95.5403503597172
95.4342904466041
95.4232697056928
95.4649669323557
95.4447589130344
95.4193172907847
95.5562133532902
95.5683560980399
95.5799115266965
95.8144549040727
95.9220667355863
95.807563814712
95.8525694328375
95.8417529720749
95.6619463354656
95.7823770074163
95.998670255954
95.9050292141693
95.7812250063037
95.6519258802855
95.6761393204352
95.8465956379491
96.0604143291616
96.1105870548409
96.1224962426105
96.0621903118261
96.127850704439
96.2032220412543
96.1967469317812
96.3234557093111
96.3813519018364
96.2791307616746
96.0797704361052
95.9553414029805
96.3094976323775
96.6983126860021
96.542799625458
96.2969147655209
96.4694404897283
96.6446803285543
96.759331380579
96.8838357548697
96.8480538629414
96.6788573675262
96.5834795945502
96.8186202900939
97.0345645238002
96.9479905314435
96.7420978155718
97.080472294752
97.6792205206372
97.2662711137601
96.8781446250449
96.9773733597761
97.0513453466589
97.0422038219995
97.0111170689784
96.9821968956137
96.9692315840643
96.881157148604
96.6978154070576
96.5799281535959
96.6092768619886
96.5761684073822
96.3449485332298
96.2176209032595
96.2066045194103
96.0911625668806
95.9201779517479
95.8413975736953
95.7473437779471
95.5583361755222
95.5957758778417
95.6038372390375
95.4122069216721
95.2548517379685
95.3289314795943
95.4788399058596
95.3854002044427
95.2851151550723
95.3209265824715
95.2805020284742
95.3064328129116
95.3749947753196
95.4758087416305
95.5429620071366
95.5549875647299
95.5908688507983
95.5338772131191
95.4484848191264
95.488192994198
95.4469298705041
95.3766677195045
95.4887771204035
95.6018874004817
95.6032115156477
95.51988999825
95.4257651337473
95.4855347897286
95.6179146576288
95.7033972366096
95.8799248776557
96.0379146682719
96.0048747584618
95.9336766355438
95.8817578814262
95.8036614943092
95.7216507310139
95.6451332364702
95.7643609437395
96.2265478301174
96.5568449077077
96.6052426953244
96.2454344068651
96.221467719048
96.4367498161386
96.3377921835186
96.4580125946771
96.7985599204745
96.993339580579
97.1132647780392
97.2406177123326
97.1759641344705
97.1677646412433
97.4018528344167
97.3696758946572
97.0430739163715
96.9434678075463
97.0416471440753
96.8845507117598
96.592437541156
96.4269238466802
96.7515827516643
96.9676986010727
96.7834898573294
96.6434753738371
96.583189834621
96.5581379866919
96.5913241290053
96.6107922086496
96.6867102796891
96.7079063014577
96.669813468435
96.7504659129468
96.6697021515429
96.3404596431608
96.02215676832
96.1139416174295
96.5994663966775
96.8533022220462
96.9058401569146
96.8350473173009
96.9394146153685
97.0343652658946
97.0031057356559
97.1213355678457
96.9679893977602
96.6044336189712
96.6803099588759
96.6542872031926
96.4857444046811
96.4913766910188
96.5047906238198
96.4728660456855
96.424597923847
96.2029039038501
96.1219989695407
96.0908594581177
96.0577967228934
96.0808918053799
96.0926949528827
96.0854851932349
96.0340498573901
95.9924472217265
96.1866979807883
96.2970018237275
96.0926704565917
95.8408469031834
95.7757800228588
95.853981879066
95.9045430367474
95.7493726351758
95.6607624781704
95.7308873410729
95.7923723234788
95.7036136415303
95.5582965716963
95.6284653764008
95.7308292204705
95.7350176174373
95.6702359987805
95.5464052249279
95.5210960273855
95.5526031965633
95.581128484104
95.5318192610295
95.4925137602802
95.5235809522899
95.5344839851439
95.5111262885824
95.5205293703359
95.4673295586138
95.4019095160192
95.409052756972
95.3935443295763
95.2946106803179
95.2768708937533
95.3571584976226
95.4223259618655
95.4354284077575
95.4326220553526
95.3850297142386
95.3387726697921
95.3502054469464
95.32899443165
95.2139368812908
95.1798333798064
95.1720512959775
95.1569686501445
95.1010636392059
95.2652208264614
95.4015428038086
95.3403065072823
95.2740281886884
95.2768338770317
95.2298097444414
95.1039309528704
95.0161541684229
95.1595161636982
95.1950689124931
95.2111682786625
95.2299411274678
95.1620325231865
95.1788730684323
95.2665725398229
95.2535480801238
95.104542542309
95.0482521890179
95.1347075679025
95.1768934149995
95.1568290199561
95.0543662991269
94.945190949196
94.96699105755
95.0407375784596
95.0181647742169
94.9763315661589
94.9650674077834
95.099796320382
95.1562854360968
95.0906275516738
95.0151653955145
94.9855061345155
94.9676503448645
95.0024732452849
95.0220643238667
94.9095285251465
94.8016876847375
94.7990195326152
95.0020006256596
95.0573295925689
95.1292496671869
95.0971766792963
94.947460546489
94.9436088837383
94.9737835220417
94.9101212330158
94.9761651309398
94.8975823757269
94.6944226542634
94.7319844833732
94.8439533113452
94.9504312724166
94.8968215268048
94.7694702960694
94.7249312965112
94.8000611052968
94.7432988895155
94.4263720507352
94.6646869183387
94.950460475501
94.9887946656552
94.9741418421135
94.8193906594921
94.706804573741
94.6175642995096
94.4158082296267
94.2010556881654
94.4432496455089
94.6941880352385
94.766747169138
94.682248440735
94.5581376576371
94.3395856544442
94.218168710473
94.1929766856681
93.9235101427589
93.9958575689243
94.2194213668329
94.176673405927
94.4106001193161
94.2348950984308
93.9386052318152
93.698260679909
93.413449166379
93.1338030278888
93.5452967307729
93.6906464848469
93.5301083197918
93.2451610900362
92.9518460122232
92.9821689330969
92.8223654421057
92.6408579522309
92.6316104169361
92.4832567633843
92.1468282530614
91.7960531187193
91.4493761215222
90.956301877245
90.3651162851353
89.5975302948383
89.264835593695
89.9089272667615
89.8043970900798
89.3657429183197
89.3520935710213
89.3458776537442
89.0107739717245
88.550255315012
88.0081710621926
87.5058226104115
87.7052555341193
87.8928698425286
87.6511016809637
87.2359224034059
86.8220234662279
86.3350971639751
85.7263007546188
85.312390900534
84.8034395466402
84.1690647830725
83.9260044546581
84.0358470900459
84.0073258956077
84.1044280073575
84.4758289374923
85.1238749058915
85.8403922743728
86.5914834692295
87.3329749039657
87.9978301400649
88.5913653225035
89.1230529449802
89.5947023203479
90.0007089278223
90.3742740724851
90.7051489634679
90.944465184713
91.1196306376706
91.3059235627182
91.4907968726254
91.5035639296786
91.4626386985099
92.0096793171381
92.2484982766672
92.0951395912193
92.1897069782246
92.4279497050456
92.4156681117766
92.4236390565144
92.1242585110307
91.5844878942765
92.3632095719099
93.0498216020924
93.0711584805137
93.0982600372948
92.951712554035
92.9431438759075
92.8320822741873
92.5850375084619
92.5353450570272
92.4865492575248
93.0133746574707
93.5749318651762
93.4081487799133
93.1431402522967
93.3509825774567
93.3696659649471
93.2296342351924
93.1468504308597
93.1546494882538
93.043808574663
93.2280843763882
93.4863383375928
93.4402628333715
93.5821682627933
93.5389689220648
93.396171787425
93.1453099818244
92.864906925527
93.4768769502088
93.9641093717525
93.8407397763615
93.6113277499302
93.456451517207
93.5226540667539
93.751947068762
93.7180576323656
93.475484994108
93.5319219597939
93.7545890854113
93.883897669566
93.8673312989537
93.7854198576856
93.7305606379003
93.5785683108875
93.4740850695878
93.4520057326762
93.5442124570941
93.9076474100349
93.9295686017537
93.750072098485
93.645578277159
93.7842633115871
93.6631062833244
93.340337450289
93.2480126114541
93.8059477811703
93.9984644435575
93.8892190641099
93.7688021698972
93.7000932223539
93.7852138299397
93.7775667485193
93.7387624889544
93.7023888802351
93.5665209756759
93.481110856469
93.7510898370049
93.8022939370646
93.7120571266277
93.7112210988984
93.7517247574247
93.6988390099839
93.672583467089
93.6608721852762
93.485100824034
93.6391677339242
93.879472935569
93.8844759266111
93.8399062049679
93.8168742746138
93.8350385487144
93.7887109382458
93.7810478542365
93.8781450681666
93.852741238133
93.7362283705413
93.8136178212238
93.8321800773016
93.9275982804205
94.0448458727226
93.9728673931194
93.8749589078138
93.9241769981987
94.0288873788956
94.0245284421469
94.0000790549388
93.9549807656398
93.9425488888666
93.9010150212983
93.9769629567849
94.0817454510592
94.0566555973757
94.0575088286422
94.0464784953197
93.9332361095937
93.9429952497321
94.0669513215875
94.1059179875775
94.1115603099698
94.1135812653243
94.0975618579569
94.0723233526613
94.0912810764394
94.1184059342055
94.1040059109376
94.083536406001
94.0062123047112
93.9360647673464
93.99903050987
94.0674735420965
94.1165224524111
94.1475690048467
94.1317311092951
94.087567645596
94.0937092602374
94.0922352874869
94.0792486129834
94.0564115064182
94.0208431937706
94.0373114374881
94.0606270686832
94.0537559911295
94.0612903378843
94.0539310853619
94.0298639782955
94.0414306813626
94.0358189924913
94.0220887382401
94.018623444832
93.9961550199976
93.9758099880874
93.9561262296727
93.9375029174426
93.9236228088776
93.9113555463514
93.8777100245079
93.8528788835852
93.8330957038864
93.8175960010618
93.7940894057562
93.7396586564904
93.6865718105801
93.6443413042954
93.5920148285851
93.5176564655532
93.4420193864455
93.371426535103
93.3229865856571
93.2544495588189
93.1615255437655
93.0738816162682
92.9682625878769
92.845356399316
92.7419839439025
92.6171100614099
92.4716942221838
92.3304632297892
92.2011826387465
92.0660395567623
91.917530653343
91.7602591914458
91.5769484490978
91.3790323909075
91.1970367044527
91.0013364166425
90.7863446804895
90.56360652575
90.3370665956623
90.1160376890038
89.8885896707947
89.6514710673164
89.4103514518294
89.1571686496185
88.8887731219542
88.6292765805876
88.3673995490795
88.0938935164816
87.8291981624399
87.5454195931139
87.2420476536487
86.9374500702532
86.6203412897887
86.2917550665466
85.952177601851
85.612285440321
85.2760225162779
84.9293521746672
84.5711443632241
84.2138944868292
83.831110260758
83.4394530008536
83.0754150507732
82.7059111199019
82.3074533306954
81.9111106965271
81.5264358246123
81.1626807782021
80.8051319376698
80.4499669542346
80.0814093605597
79.7421496751127
79.4219365897529
79.1083362895817
78.8010159066586
78.4997093134397
78.1926544568163
77.8866101327484
77.6062749853087
77.3351526194956
77.0324419380254
76.7605658190037
76.4987374648208
76.244582793582
75.9968003920289
75.8089070887759
75.6382206147522
75.4669394031596
75.2958412914789
75.1758654157035
75.0943636541197
75.027054959421
74.9471439500698
74.8762618562234
74.8086791354136
74.7526944686502
74.7172282222259
74.6788866437929
74.6185263191367
74.5592909715472
74.506576461682
74.4984759040076
74.5051633799114
74.5430876294748
74.5778085085899
74.6223376628925
74.7006184896492
74.8144599384937
74.9548629079019
75.1222051352082
75.2892987766565
75.5016987666327
75.7353203171402
75.9807738540062
76.2359700872961
76.5120999162909
76.8134039324997
77.1439429981326
77.4485734390447
77.7707133076793
78.1396795439171
78.5341793783213
78.9275294755338
79.3490340832745
79.7862414887302
80.2668735582488
80.7607101973333
81.2441317063043
81.7130412977291
82.1751208771036
82.5993217099231
83.0428426104537
83.4802791510797
83.8765770064985
84.2445920032606
84.615746048095
84.9760743725716
85.2891781022661
85.5490471708519
85.7872977773785
86.0010983031743
86.214204007135
86.4050067569573
86.5705227971178
86.7303625903428
86.8666760099522
87.0063218006704
87.1602651276393
87.2347088818493
87.2895188019564
87.3824637827357
87.4996268550638
87.5865638411155
87.636585507831
87.6909307185234
87.7586724180492
87.8095456587358
87.8600182309302
87.9188672652553
88.0205901625799
88.0996023706911
88.1139628308294
88.1085342435265
88.2367241758501
88.5236458929778
88.8125672126769
89.0351263965738
89.2353658386938
89.3370638001419
89.386049185871
89.4957154661088
89.6998109988308
89.885710662711
89.9996366939198
90.1297829935282
90.2697014334847
90.4038749904248
90.52024649788
90.6150399052735
90.7038427251862
90.7805239769802
90.8388461518015
90.8918654020937
90.969563638049
91.0523139482455
91.1097670718433
91.1357022879084
91.1803018557602
91.2585840594534
91.3144424896795
91.3410424852149
91.3522862936942
91.3798556721904
91.4537910253462
91.4719919924681
91.4627485541628
91.5082439028349
91.5524523229969
91.5793349105853
91.5957733456899
91.5926634575759
91.6152981688849
91.6751693196835
91.7154782519043
91.7065618147804
91.7077686774371
91.7609629956933
91.8107813015118
91.8104604656298
91.8004444750847
91.7976311835488
91.812889736004
91.8275784707501
91.8754998299737
91.8979686383442
91.8625963809973
91.839105682357
91.8558580025477
91.8622104295108
91.8672411249815
91.8854806858868
91.8763996311961
91.8597566220116
91.8679064936253
91.8668204462816
91.8786474539862
91.8863178248367
91.8866301139883
91.9020567327218
91.8967799914767
91.8278282351647
91.7904638535382
91.793595684344
91.7936147209225
91.8020358426429
91.8321194749366
91.8224719512105
91.7930919808906
91.8017021566613
91.8146509822355
91.8214376488556
91.817651268603
91.7706159338937
91.7380923919768
91.7456913093876
91.7576139024892
91.7590953993103
91.7520582688289
91.7300183437746
91.712108361892
91.714099287473
91.7327454168186
91.6859907580699
91.6748913297678
91.670678854312
91.630816976071
91.6311129632261
91.6120936916889
91.5973513570395
91.58670360091
91.5435878292466
91.4846968887792
91.4476135469693
91.4594602238969
91.4708193167767
91.4318591470412
91.3692513224329
91.3658115863438
91.3336161625589
91.3056140970266
91.2732552877832
91.2150151086391
91.202386359938
91.1729272372523
91.1030438612711
91.0431370321122
91.0398466608041
91.0577588018851
91.0089926799584
90.9728701233234
90.9231723334429
90.8327058253581
90.801269581364
90.757896291005
90.7197276939809
90.7063583341468
90.6215464535501
90.5308147319336
90.4672926170028
90.4349491132566
90.3956159898876
90.3090968081469
90.2192205396804
90.1844814656409
90.1176034236848
90.0133359952336
89.9422607928188
89.8586391295512
89.7440328954354
89.6652970970403
89.5739925310534
89.4654021698342
89.3733741129164
89.2765922743094
89.1716514976934
89.0215942814658
88.8842715058766
88.7781234497146
88.6235844345089
88.4772121479331
88.3693405133181
88.2636834356821
88.1664721279898
88.0086392004621
87.7709449006405
87.6570943857641
87.538742176862
87.3681436541759
87.173994459895
87.0528158418167
86.952093288265
86.8110301072371
86.6599988499559
86.5218522479205
86.3344572782162
86.2089559557301
86.1206886924664
86.0157412886653
85.8801181682311
85.695415925173
85.5157672138867
85.3294366473352
85.1480000180713
84.9952753406348
84.7148085601196
84.4102727343574
84.1289802686293
83.8198299819592
83.4321041327493
83.2791192198542
83.0291055356499
82.6408666540618
82.286501397401
81.9507738159621
81.5736794466815
81.2199887773599
80.9211125174764
80.6508398774105
80.4249398346207
