1798
3999.43349933624
650.420452594757
1
128
4
92.5568035246983
92.5253402185136
92.4395625557565
92.4410602601784
92.5136620852895
92.5494132919373
92.5838258381281
92.5061773362004
92.442468749296
92.4533494242865
92.4550786543438
92.4990061930059
92.5245584615206
92.4817482853965
92.5067504754577
92.4303105951078
92.3757481530136
92.4377943693695
92.585957536411
92.6192135543041
92.5115851950946
92.4391219235289
92.5262407873644
92.4766278298752
92.370057493533
92.4214006851751
92.5503044389818
92.4836166781703
92.4627358361629
92.502649765443
92.4844581486535
92.4876195513554
92.5392096441531
92.4819386185538
92.5014844434177
92.5339351523811
92.4755967207483
92.4376520227322
92.5328152000579
92.6225863200134
92.6015547433377
92.5247414726902
92.4765781517564
92.4083523607163
92.3533082504368
92.3690053853046
92.4611610888924
92.4952170516463
92.5186062170101
92.5346960533979
92.5817866586458
92.538524121933
92.4764251859858
92.4783062030656
92.5721426133022
92.6284335211429
92.6598107021132
92.6968731282443
92.6816280974369
92.5756618633502
92.5663077816283
92.4891782772674
92.4872716589437
92.5868553883872
92.5377073909598
92.4895569891039
92.6508636387451
92.6346941118022
92.550671054734
92.5852389907096
92.543257469987
92.5855828276938
92.686647723572
92.6199397820087
92.5350904531508
92.4807464558437
92.5075177944447
92.5881627494834
92.560175547811
92.4463772423874
92.6352647381611
92.8103211366356
92.8456015406355
92.762178246898
92.621428087456
92.5201856448359
92.5888602642551
92.6000813156166
92.6596558997008
92.748633143884
92.7071738263049
92.5600382328342
92.6526281018752
92.6765794843802
92.6581333721032
92.6658275929712
92.5665348773404
92.5564299987775
92.6795978928038
92.6688133812208
92.746388327581
92.7829816200198
92.8229300558755
92.8325133731451
92.7890821870639
92.7452590434915
92.6686871083799
92.5554885496344
92.6512200626807
92.8224938868245
92.8549812705304
92.7551483031454
92.8381257836548
92.9235630263773
92.9224606202828
92.836999086093
92.7448270202091
92.7954212946626
92.8676709274691
92.8220677702414
92.8632698988318
92.8652029562029
92.7989514626564
92.6992736608922
92.6876203431909
92.6949096601265
92.7047639940077
92.7571125184472
92.8151437949226
92.7144243984446
92.701370159734
92.7487069400981
92.8280097704254
92.775977330257
92.6783182754981
92.5978532514145
92.8414372220976
92.8366638764901
92.6502151142008
92.6920544245099
92.7942469551625
92.7246093447568
92.7226906958049
92.8452416664609
92.9247169573329
92.959813137543
92.9869856404184
92.9230794458118
92.9588837906331
92.9382479787694
92.9548277306405
92.9289719065776
92.906489248625
92.8663097319596
92.8253990322062
92.798721633759
92.9093488155188
92.9626425571456
92.9236505693999
92.9639821709268
92.9653303564522
92.874432996845
92.9258816266726
93.0285452701002
93.0275119595073
92.7754098556409
92.6405101491206
92.7936759343279
92.9279483764307
93.0348503529448
93.0340747463427
92.8692590229376
92.8629319759931
92.9428761527229
92.9169600240716
92.8340800306826
92.812257574915
92.7526001476362
92.8671570013609
92.951381533841
93.0068179769877
92.8769698670071
92.7296389326774
92.77588252099
92.8812560297932
92.8754169229167
92.8617674535519
92.7091523346058
92.5823523595772
92.7304878977509
93.0202441295593
92.9422377865354
92.9021494653398
92.8479610142572
92.6707352996795
92.4997967179791
92.3521594481773
92.2659969219266
92.20590423236
92.0952085770674
92.2083055636223
92.4825701855443
92.5774835398304
92.3123016236749
92.2739226611866
92.2120581750523
92.03801822196
92.3118000140359
92.5356084464636
92.2899110221381
92.0657380132986
91.9772369059662
92.04163713438
91.8231430287851
91.8412783665679
91.9847960954562
91.9120807806141
91.9630883814929
91.8242790293743
91.5478423258588
91.6117046009263
91.0260252257421
90.7410906743285
91.3851735842023
91.929598651685
92.0338901334771
91.6814541361735
91.4663286710934
91.3820786449269
91.1640335066207
91.2211812252846
90.7703176529772
90.3859738960616
90.2930936403363
90.6174465844812
91.0276874740287
90.9162872151034
90.8251755836886
91.1091856418017
91.1242872568275
90.6837768150204
90.410847735387
90.5957887156767
90.4665397145042
89.9643231770065
89.7407766183364
90.0373732533039
90.3274549694675
90.5999355996919
90.1574885845287
89.6334796234182
89.9029384725734
90.1744106952623
89.9099973151889
89.7032043280685
89.7202459809285
89.7233014500943
89.8320887109337
89.7747596632201
89.380253568998
89.2822560541616
89.3305117765914
89.4233630213099
89.4176198397785
89.2701300288654
89.1980156462386
89.320248878974
89.4326452682741
89.4644154487539
89.3903880873505
89.2533509073957
89.1599232006377
89.1997721603746
89.1992477184372
88.9232726790418
88.7127416930408
88.86787051106
88.8296811704918
88.6992320536883
88.7318102854625
88.775106110131
88.6002170518082
88.5615366857877
88.5141777755071
88.4954733579763
88.4649329464775
88.3202120593672
88.2551039177748
88.3314860413468
88.2479710532336
88.0667608586892
87.9646696968068
88.0493090944483
87.9294846029902
87.7399735007735
87.7256670382873
87.7283347861111
87.6720276298631
87.5522527864068
87.4250439533225
87.4210385280487
87.3596024135224
87.2601015146436
87.1794741959511
87.1761196080005
87.2391955905598
87.232657750027
87.0506630851898
86.9578564797932
86.9134089873331
86.7876319454979
86.6046091831248
86.5737080463829
86.6033860433767
86.6106165731602
86.5134906835513
86.3490998618982
86.2477046813909
86.198092622588
86.1251894589421
86.1300819978952
85.9919256031417
85.9269086537198
85.9787937373379
86.0022896746133
85.9762362102639
85.9288426607295
85.7976436521779
85.876456910439
85.8682408057307
85.8677048508615
85.8833282981808
85.8387826175032
85.7996529398715
85.8542020062112
85.8620180645251
85.804664920439
85.6961852077873
85.7794040303584
85.8336444986014
85.8664020561347
85.8671827916623
85.8590941525492
85.8265874240345
85.9077589740848
85.9269181249893
86.0042163725916
86.0699331895221
86.093553095523
86.074251087971
85.9866972245951
85.9513984325835
86.0698988028897
86.0853303307166
86.0941962587695
86.1204033283565
86.2904843238157
86.3747055949305
86.3585429307376
86.3088155297214
86.4094892507978
86.5451405744211
86.6016982207776
86.5230137636183
86.4966720023723
86.5334298859756
86.6173998235673
86.6533656124206
86.6832708265384
86.6735572444398
86.7075291557398
86.7344329655252
86.8440565490054
86.9120470655026
86.9157098359987
86.9173050589452
86.9553050812858
86.9332908556839
86.9590077610597
87.0418982142628
87.1263814828257
87.1770277519011
87.2996068430221
87.2548184505362
87.2599248442234
87.3043259523052
87.3823573130972
87.3604155976009
87.4259555223811
87.4416931141518
87.4837948208335
87.4937899025651
87.5052038635727
87.5574505615916
87.600545458299
87.5618225472416
87.5311685244362
87.5569821893896
87.5933729918011
87.5172311761838
87.5116003141552
87.5523728014259
87.5705495013913
87.517527968784
87.5256473259122
87.5107151438531
87.5764756015924
87.5870583385065
87.605263406648
87.607384819508
87.7150738037961
87.7915989739655
87.7985262565551
87.781090805948
87.8076075555074
87.8635638827866
87.9240733931408
87.9453754909422
88.038302376454
88.0213704806441
88.0306955571342
88.1212211913539
88.1310801870857
88.0965468371645
88.134745203874
88.1704335723936
88.2585490945059
88.3312054870867
88.4278636868417
88.4832600212564
88.5238841694416
88.6036033446015
88.6239235885952
88.6148481347155
88.6498213775921
88.6684809046858
88.710811523206
88.8101859011705
88.9010325180942
88.9021957814505
88.9626269639587
88.9646525034831
88.9882491200043
89.0764854143082
89.173222014269
89.1333577157992
89.1858598937809
89.2445596224279
89.256094740937
89.2678875053223
89.3389594451208
89.3834730829733
89.4753831605049
89.5426921676595
89.5635810622015
89.6403198022485
89.6616873169696
89.5867830623752
89.638752070116
89.7344304829811
89.7800806791637
89.8342600040019
89.8961324495765
89.8301266003699
89.8577292328521
89.8871477799517
89.8947915997977
89.9765774550145
90.0447595647341
90.0615623518588
90.1154738403994
90.1478267575654
90.157076148718
90.1301568431071
90.1348838382926
90.1990485013859
90.3160191310196
90.3660704316465
90.3627986330014
90.3512378045162
90.344025929721
90.3679054195701
90.4589488213967
90.5039124920608
90.5735146715263
90.5644873298668
90.496693416836
90.5280063596981
90.6436565896103
90.7343976295875
90.750315024648
90.6774450100985
90.6929069401371
90.7482505995188
90.8350047459898
90.8672204802621
90.8867409108547
90.8616561070637
90.9346769080304
90.9821703757774
90.9278912569414
90.9492517920809
91.062161231128
91.0852266709207
91.0742203885293
91.0428046502154
91.0531276576031
91.1139651850849
91.1327289642333
91.0773960822851
91.1539318101025
91.2450284993982
91.2461195064894
91.2245321087646
91.2703828514469
91.3705064733896
91.3926256400823
91.3375728411495
91.3361380430598
91.308832793886
91.2840962397966
91.3935512376957
91.5017919425864
91.5055624920591
91.5719525581981
91.5934377932889
91.6132108158958
91.615895771103
91.5768266924942
91.5346491230968
91.5611199562988
91.5856469116097
91.580542404786
91.5825868272451
91.6094446735959
91.6066162863945
91.6823442192989
91.6785927348284
91.7516066331749
91.736688534017
91.7204254032051
91.7355729806714
91.8282188641794
91.8039434924605
91.7683035074607
91.8171423917631
91.8898797754354
91.8364208084335
91.7571357364945
91.7563461799132
91.8130932381322
91.8871228389139
91.9312152120294
91.9247015510917
91.9327039080702
91.9579047671849
91.9529967532601
91.8821538437869
91.9078856957779
91.9471259948712
91.9534212062395
91.992454745679
92.0043216354956
91.9934608519649
92.0363279884697
92.0637467132705
92.1000730767977
92.0904270058049
92.1196102090937
92.1500052116576
92.1617403291292
92.132558374755
92.1119238667068
92.0987461141466
92.170424245279
92.1745072321446
92.1548216947143
92.1728180807925
92.1655411196066
92.1487646644206
92.1951227267796
92.2080227667639
92.213653942459
92.2668930877982
92.2966701142642
92.2845386128718
92.295908488991
92.2860175820959
92.2560824026009
92.2082634152155
92.2881407561398
92.3848010772166
92.3727803693719
92.3430431381288
92.3215793599703
92.3370384883983
92.3830152167379
92.4029097512955
92.3134312583
92.3005014697478
92.3720571773282
92.4037408911303
92.4334258993717
92.3986192949051
92.3830726871413
92.3865354787252
92.4588890624686
92.5185871163994
92.5387102417713
92.5403195290486
92.5887379036257
92.5770464424721
92.4480037441594
92.4219898515388
92.4762401151629
92.5170144786086
92.6040889012252
92.5942395827649
92.5538414140796
92.5925386039729
92.600691065115
92.5902471502793
92.5676920911717
92.5725375518996
92.6181739976173
92.6573064039025
92.6421410692965
92.6066024616572
92.6049774696066
92.6104340117202
92.6063687815816
92.6433528254184
92.6677475979419
92.6686281612764
92.6912952943283
92.7068076989206
92.693217131648
92.6715306316387
92.7208660676838
92.7549168121496
92.6890802199222
92.6838623513096
92.6976729401173
92.7112787434843
92.7516217558843
92.7358107763101
92.7251401898667
92.7379059453116
92.7255815543661
92.7231670490642
92.7625991827479
92.7319332040594
92.7077818113318
92.7353258053242
92.8090163087642
92.8746086325176
92.8595183395256
92.82666486999
92.8184126801793
92.7974335582095
92.7838816843174
92.7831931461101
92.8326702312208
92.880298760645
92.8532836363374
92.8460322955489
92.806691795775
92.8036408344519
92.852580598571
92.84946833301
92.8761088813077
92.8671092627948
92.8501935860354
92.8312935745714
92.8159487463725
92.838612328298
92.8617499804635
92.8935510782688
92.9262079799024
92.9210671833333
92.9131194460462
92.9445483359104
92.9680065108079
92.8998432747359
92.8667608055839
92.8734066056002
92.8931854959531
92.9363380163877
92.9324459376576
92.9082782905408
92.9437584793532
92.9838300088814
92.9725394028907
92.9384380549528
92.9171987014146
92.9289173166519
92.9599098763155
92.9596668225819
92.9526970970884
92.9791426508169
92.9888716518457
92.9763307472659
92.9973615107521
93.0247980523969
93.0438104682292
92.9998637275364
92.9587281280882
92.9669867025566
92.9598079370135
92.9435752626829
92.9522124472364
92.9704875024106
93.0054441763799
93.051852751132
93.0578529547988
93.0111908975803
92.9958140956728
93.0110072996651
93.0081281808856
92.9295875906524
92.9054063546995
92.9090777944013
92.8993116003921
92.9283979017427
92.9581179606124
92.8681077040265
92.8467455536602
92.9139284822692
92.9865547200644
93.0608016746392
93.0077958730483
92.9389973593649
92.9954179746335
93.0282758773218
93.0499065432466
93.043092601995
93.0157990827993
93.0347704784255
93.0803191597875
93.0437471252957
93.0438781878997
93.0650002638025
93.0717023712868
93.0406372204729
93.052811254973
93.1162998738919
93.1768842757153
93.2084885719332
93.1773142937715
93.1874242560678
93.1914835800342
93.1081969906275
93.1213001396592
93.2195229043095
93.2876678653953
93.2769915259255
93.2851195111309
93.3349230342144
93.3588160103418
93.4010395618854
93.3875280507331
93.3385337440561
93.3467922654248
93.3276146450629
93.3273729169106
93.35305528505
93.3399295376464
93.35245355007
93.4020987020017
93.393429700602
93.3957772384633
93.3886711064056
93.4075075110608
93.4750373137574
93.5347900064895
93.4944787100143
93.3723551571972
93.3656750026453
93.511458441593
93.5896870082003
93.4972818104603
93.3980900305065
93.4126877794803
93.4729558825842
93.5552237571519
93.5689188171995
93.5067072859396
93.4282042131591
93.4372361219291
93.4693157993102
93.473157171472
93.4457021157664
93.5377805773861
93.6045199205824
93.5888261791491
93.5175403778615
93.4549877237505
93.4320589375524
93.4657512252805
93.532366420329
93.596720391209
93.6067701902722
93.5720539363862
93.5433712647638
93.5204026400882
93.5564037253614
93.6655436122535
93.6091567972094
93.4526082870935
93.3988301020772
93.5099632449037
93.6018382704742
93.5569982079213
93.482067359747
93.4920735582358
93.5865239811883
93.6024307232096
93.5937539328693
93.6167628124998
93.5437641109925
93.465943875889
93.5386981890447
93.6359794574854
93.5997192827212
93.4846703362167
93.5072779175885
93.5290030375054
93.4855565082117
93.5326579253931
93.6135012954492
93.6099741280025
93.5923611687088
93.504060968786
93.4369265511642
93.477825393934
93.5482004917912
93.5946251530542
93.6437992954439
93.5770600862867
93.51113311678
93.5718499161336
93.6179620432055
93.5637019922673
93.5499619051579
93.6490811266288
93.64309293681
93.6258215751849
93.6709907456363
93.6165029909194
93.5835087746543
93.625329500775
93.6396667337154
93.6427909877852
93.6438987333961
93.6381008018453
93.5956378165713
93.618841648486
93.5888645782378
93.5806635685739
93.6156253262545
93.6463674391122
93.6341198618988
93.5925888050186
93.5928545322784
93.6114028496104
93.567002392579
93.5327880756159
93.6124870428003
93.5665380404232
93.4578617724898
93.4543999641861
93.49557807926
93.50119773626
93.4605440225005
93.4280249413373
93.4069394000047
93.5202896674796
93.6624177517223
93.5840527734953
93.5117090142132
93.6057178425926
93.600201370527
93.5814255550717
93.6054479491752
93.5788939198551
93.5484887125217
93.4546840556052
93.3977660130355
93.4332481583087
93.4311821562894
93.3561265160379
93.3407892754771
93.4391426721124
93.5057527552334
93.4679752828892
93.4883901441214
93.5171665593978
93.4392736413663
93.2311807062438
93.1067587146447
93.2313742066426
93.3416261551507
93.3487728841586
93.3433545213289
93.263819777921
93.2122484875887
93.2781910189125
93.3799054768066
93.422609255407
93.3688503649017
93.3267088006851
93.3188621105376
93.326681149649
93.3809791276455
93.4415682510606
93.4391240668559
93.4228966403374
93.4778315024851
93.5556647234064
93.477171362135
93.3841888668525
93.4391118518637
93.583834754679
93.7170293107504
93.7345339795474
93.7326837087611
93.7993023690829
93.9276860130754
93.9525693039497
93.9435982241961
93.9336929417769
93.9923247435649
93.998257186115
94.0083270117039
94.0204157176113
94.0509009718655
94.2198288408369
94.3552998683109
94.2235964058368
94.1033946380807
94.1875976954207
94.4108923677803
94.4828605822337
94.4207884136241
94.2884617127869
94.2140355461577
94.3430497737244
94.521075067861
94.3557066099879
94.1806013298272
94.3025916908039
94.4282251914943
94.5439940449545
94.5499972600176
94.679361709089
94.8374637564322
94.8087443804631
94.7997535198498
94.8102535166499
95.1493354650506
95.0803518587037
94.8576111573467
94.839086034019
94.9160371444966
95.1160113917056
95.1621343873538
94.9130947560121
94.7888460243209
95.0285376899315
95.1795125307832
95.032703402411
95.171615869262
95.5244283133221
95.724027803742
95.5136502679771
95.2686145368666
95.1548296435861
95.4145821740552
95.6582552593624
95.8431339359551
95.5875710194985
95.280339762581
95.3700240030296
95.7862101401292
96.0285213467848
95.9450132429203
95.800782258318
95.8912980530306
96.214123081563
96.0967943176665
95.9269655818609
96.0504750444436
96.1168458135432
95.9727745779051
95.7835718386145
95.569693151795
95.4740958956099
95.1468977195713
94.8590980889882
95.0744958203146
95.2535397259112
95.0594579114531
94.9568427935227
94.848499999538
94.7386912544566
94.7487929219117
94.5821488346489
94.4071436073406
94.3074827206499
94.3527104087584
94.3642346538952
94.2946171782393
94.2671521268497
94.3129545188909
94.2836964369735
94.2388876397904
94.3063216626598
94.3823289513355
94.2516687092363
94.3008110430226
94.4048326522536
94.3123517224495
94.202316551485
94.1759468343376
94.1820225788484
94.3347455081852
94.4185155264121
94.46617338623
94.4707278771256
94.4067261613116
94.2438452907487
94.1334616590864
94.1787878494032
94.3105213696808
94.5456610260725
94.6158836867743
94.5837643830332
94.7182898000797
94.8086980072933
94.7070315603061
94.5772453632194
94.837826759756
94.9415562373486
94.7857831349735
94.7723409023041
94.8592088753163
95.085386750978
95.204278581451
95.0851284592865
95.3006059510502
95.6245909171835
95.8578033072473
95.8795672851799
95.7088253287245
95.9066415379716
96.2178713012041
95.8761289626026
95.7446794504006
96.0606501289794
96.2619741222611
96.3882689399212
96.1209364775393
95.589238712708
95.7645454076659
96.2538814130701
96.3894180245798
96.1249670943555
95.7448295616893
95.9532846793805
96.273734678755
95.9394755544717
95.4987614189431
95.3998486692176
95.5700054013678
95.4429532480495
95.49748764371
95.594203433626
95.4714784036804
95.5578560935918
95.454520163887
94.9817530292418
95.0217783621828
95.3010118948274
95.5356766307866
95.6738979629798
96.0989948880786
96.3363783848244
96.1863146593835
95.7512272567837
95.7913733983835
95.9670829294489
95.6639902803025
95.6912437986902
95.8070847701664
95.5689773106718
95.5000446942963
95.4532371006912
95.4063822263762
95.4858533286187
95.3834790523757
95.20213763313
95.0944779011063
94.9346288331362
94.910861667297
94.9806786999748
95.0204887427325
95.0465959276969
94.8322020002882
94.6603209010877
94.7360116816003
94.5991031280314
94.4991413320193
94.6005411726293
94.7135697831636
94.7453287091378
94.5400779551017
94.3312097530808
94.2847737701954
94.4624428734173
94.5867497589952
94.5003648495786
94.4101230288413
94.3133447618856
94.3591293025341
94.4575964003788
94.3805174740486
94.2975150361248
94.2799666392052
94.2983046823411
94.3452142844101
94.302244946248
94.2199989848657
94.2372235800294
94.2628001157486
94.2794771799958
94.2620941461797
94.2359064287137
94.2485509902706
94.238721719858
94.1267564492289
94.0292848989642
94.0084875588948
94.0046473738148
94.069009597314
94.1537626397501
94.1584533592903
94.117666900762
94.1487644869155
94.1785401320503
94.1157828641125
94.0335754626331
94.0259218088591
94.0640004355196
94.1009005284296
94.041146668407
93.8658577865363
93.8707733511301
94.0635312907708
94.1145234026674
94.0024563597952
93.9764723034564
94.0532047521331
94.0433467848398
93.8968570618497
93.8879858539791
93.913849880241
93.905760390637
93.9337122605235
93.971123495788
94.0150898611229
94.0704632571219
94.1060935946217
94.0754141365489
93.9730843031909
93.9078362108079
93.9270914339374
93.9175043406958
93.882287167436
93.8371070927996
93.8108640542171
93.8752209961451
93.9227657943041
93.8781079102267
93.7499288578423
93.7085826009973
93.8227590147559
93.8988025549835
93.8807434211404
93.8726890485659
93.8302182172981
93.8120290860924
93.8311267213988
93.8762146312873
93.8168077904945
93.6605211784322
93.6895715384428
93.8070332301421
93.893102897009
93.8954295748645
93.8255423102872
93.7131481688554
93.7544826253431
93.8178261721634
93.8251168664681
93.8112873834428
93.7447704614493
93.6123989125602
93.6161334614886
93.7699955110743
93.8059753910937
93.7081459345971
93.6043846206477
93.6368703927803
93.6963705807109
93.5566504544664
93.4588994232626
93.6039277155273
93.7508614388021
93.7315087729761
93.7076448015479
93.6788232510728
93.6657093455267
93.5735856404539
93.3468809414857
93.2259299306536
93.3498916135953
93.5498593143685
93.6215542451121
93.5543011205266
93.3942245173741
93.2582946317472
93.2583191139192
93.1191301671354
92.9530491915581
92.9974480999249
93.051507297732
93.1590757330589
93.2353233959788
93.1400947343103
92.932948486169
92.7520818563056
92.4564526031601
92.3173845206805
92.4822513189825
92.626305487674
92.466390210008
92.2379408571146
92.1323777637342
92.0659492293974
91.8786291115763
91.7696985076018
91.8274123569328
91.718388157527
91.4555723504287
91.2725269452312
91.1571589119773
90.981979988665
90.5504065313949
89.9661363247939
89.8147051363862
90.001989090151
89.6783666972645
89.1667576792178
88.9209207496426
88.7207239637004
88.3571504918609
87.9149706826255
87.4005623502776
87.1838103239033
87.5626181358548
87.8903739772547
87.9319337756242
87.9609634467542
88.0619636963371
88.1407065946074
88.3244311757879
88.6054394659183
88.6167528017802
88.58600190487
88.9539399029855
89.3158837121876
89.4347330669572
89.545138378559
89.7513238052331
89.9795438333065
90.1933370363628
90.3752974731753
90.558871434476
90.7179585499851
90.8816178946872
91.0234440209787
91.1504759889848
91.2441542983168
91.3399688039712
91.426316299067
91.4974318782994
91.5563491855705
91.6596438455203
91.688486601906
91.5536420019091
91.5330292273162
91.8164993443641
91.8813690371554
91.7210422500296
91.769410899137
91.9212225219928
91.9308545255275
91.8701355116408
91.588135188665
91.2599318000076
91.7258990279256
92.1106987831276
92.0980886842389
92.0319021577419
92.0125530926513
91.9921190152071
91.939144689086
91.8153640316869
91.668659255763
91.5565117451876
91.9459041687255
92.2960482020255
92.1886374789749
92.0706201477981
92.2119948552213
92.2675615164699
92.1425653001773
92.0898916864296
92.0425962456791
92.0136393744285
92.125966463995
92.2308566207519
92.2359495461919
92.3197895132784
92.3471798768674
92.2242023224915
91.9819720123497
91.8105956724485
92.238709835233
92.6101604556938
92.5310768324508
92.3211644509223
92.2208480781025
92.3507278324653
92.4923823049349
92.4135075007359
92.2520665698547
92.2536830872206
92.3873613088826
92.4687879373089
92.4467336477609
92.3963510572783
92.3714446606625
92.2850136367743
92.1369624867253
92.0533016584264
92.1888119260782
92.4180017991672
92.4008066535965
92.235731223952
92.2097010044315
92.2958954637913
92.2175540596111
91.8928591558715
91.812566809426
92.1564340108434
92.3045158775627
92.1724855449172
92.0716593113099
92.0644237186116
92.1308173257748
92.1242579001388
92.0929371010913
92.0231964402341
91.8652214092739
91.8177959712379
92.0334053833008
92.0876850330218
91.9827620209751
91.9899733580133
92.0251468024269
92.0054663172279
91.9937640020575
91.939583322764
91.8409471824709
91.9657116145854
92.1813324730436
92.230573261725
92.2237861740386
92.2034756306455
92.2194452383328
92.2056290165654
92.2248887987687
92.3340234470058
92.3322071088075
92.2575998899164
92.2792270400064
92.3290569438836
92.4403220134442
92.5620945063003
92.5271554628678
92.4753469596981
92.5434472665175
92.6542473712832
92.6834269189629
92.6760990993852
92.6797192175942
92.6806878138223
92.6701269663633
92.7250657026296
92.8103387566232
92.825251680429
92.875599519743
92.8912891760739
92.8201459673407
92.829085318024
92.9449183660457
92.9931071461635
92.9893620400204
93.0099586448919
93.0430831891535
93.0422593478421
93.0538238715818
93.107424048167
93.1456440418855
93.1048885046819
93.0392993346719
93.0175889577422
93.0549280679629
93.1148212911269
93.1620510757024
93.1676701257017
93.1715058029393
93.1835790731954
93.1786807854416
93.1848671146776
93.2031846152959
93.2075532599372
93.2071803489564
93.2017018717265
93.214952857674
93.2482989557813
93.2843798322968
93.3005532944903
93.2933749805612
93.2836770103498
93.2828482017291
93.2859700470427
93.2892452809098
93.2956243562247
93.3040030744336
93.2982194359255
93.2838212713139
93.2686265754756
93.2653539712479
93.2507064630619
93.222042440426
93.2149878705649
93.2118601022205
93.174724218632
93.1368957605772
93.120307926513
93.0781151934646
93.0267931526745
93.0152766183506
92.987798603942
92.9192372507604
92.8417431531998
92.7849891968302
92.7186607036841
92.6342391999114
92.5648781768766
92.4888484602827
92.3919716100996
92.2888293209587
92.1636849413771
92.0218998765455
91.8790866649558
91.7305035996702
91.5541875157088
91.3921323850712
91.2527359559007
91.0896718450818
90.889216410377
90.6685596678476
90.4490447826825
90.250839656492
90.0541135068348
89.8246780439283
89.5772945611908
89.346389053185
89.1175925269196
88.8743202952707
88.6084909048356
88.3213930083287
88.0263068244571
87.7526214633727
87.48068992963
87.1874612721875
86.8809080771609
86.5846150197701
86.2719573702745
85.9512761519594
85.6515973065146
85.3336485192519
85.0227465945769
84.7578365968324
84.4853305010401
84.1897465592696
83.9060516817955
83.6290740017003
83.332997623367
83.0289033456263
82.7234654021883
82.4379047402702
82.1574794409099
81.8614731154006
81.5687677193034
81.3062315449487
81.0256275374265
80.7503953857877
80.5104074115552
80.2558047818466
79.9761687255405
79.725253857594
79.5017891853877
79.2703352886802
79.0408351916181
78.8453014444129
78.6522329550462
78.4704351422044
78.2784213648909
78.0817321744395
77.9310331226363
77.8294349147465
77.726688946331
77.641056040006
77.5944913951604
77.5742190477149
77.5748157098575
77.5560566412754
77.4984355615741
77.4676419549054
77.4890711969387
77.5348582919307
77.5688286556904
77.6179247204588
77.7032647183458
77.8015596905219
77.8814122178572
77.9766404558906
78.0999521566863
78.2319045760487
78.3597759940329
78.536506021296
78.7217833702437
78.8926390856051
79.1082475408396
79.3608362996567
79.6179709571005
79.8869363863537
80.1802538573241
80.5025585806927
80.828830250455
81.14513982638
81.4741817505031
81.8438025788266
82.2184646337934
82.5774393322357
82.9397742257354
83.3006057548985
83.6538250046374
84.0422521027509
84.4019756641536
84.7314021555108
85.0928290998433
85.4503739313103
85.7684545930065
86.0891777907567
86.359957906512
86.5842400878572
86.8262634696065
87.0528762961946
87.2500772399596
87.4399725139113
87.5996355808844
87.7232341680862
87.8399422129788
87.9534213339118
88.0283150627867
88.1114287165858
88.2014455289662
88.2792044247372
88.3466769989101
88.4183758569353
88.4878402119545
88.554011925536
88.5964661564483
88.6275383484741
88.6896359543635
88.75301528564
88.8022731928616
88.8750835137438
88.9488471036625
88.981343298739
89.0108507406087
89.071814274947
89.1430527491975
89.2114292795747
89.268752909754
89.2978414361754
89.3036793325542
89.4101560744338
89.6266681248815
89.8217473263508
89.95246722907
90.079887865813
90.1976875658223
90.273600254338
90.3537510867834
90.4785806554578
90.5970830698127
90.6914865650909
90.7826133768986
90.859040458739
90.9650894559197
91.0680933417377
91.1283814124941
91.1791988488975
91.2414297354825
91.3084359619731
91.3502970523593
91.4025600784039
91.4748067942937
91.5411987229397
91.6019670349082
91.6604056407965
91.6933894358257
91.7311146067654
91.7742702827094
91.8087629724185
91.8364654112243
91.8728899907257
91.9325928660568
91.9664509400469
91.9660446867012
92.0122273223179
92.0664108543395
92.0862768713207
92.1139123897726
92.1438468356307
92.1668039226252
92.2028440167133
92.2277332695052
92.2401617722708
92.2620122185289
92.2929557446343
92.2987801067458
92.3018612026952
92.3379833935451
92.3850494439975
92.3976013183108
92.3967290831562
92.3993229798935
92.4042550488514
92.4074833822008
92.4397837865325
92.4782880728752
92.4809040697536
92.4511066326533
92.469433892832
92.4815199260453
92.4677656067487
92.4594356098848
92.4554681163457
92.4551198829076
92.4627269532593
92.4274903058611
92.3899980875345
92.3797792264565
92.3914837295467
92.4208039537036
92.4331128845647
92.4096154716304
92.3990144521348
92.3781272131444
92.3401826863582
92.3399332757347
92.3677335571529
92.3682628201733
92.3694189359508
92.3922507005664
92.436649360059
92.4637980485344
92.4580069422043
92.4442682900068
92.468076648393
92.4988217465764
92.4957164890548
92.4618209044986
92.4662777236405
92.488733081554
92.4700460753848
92.4256116779286
92.4111139215651
92.4094525039055
92.4221716250767
92.4038665885962
92.3884012116414
92.3572139714953
92.3192044013855
92.308105673963
92.2800609673717
92.2598021027709
92.2545840537097
92.1949478974408
92.1854807675049
92.1916778818612
92.1679332014158
92.1388369143746
92.1036323145973
92.0777772083934
92.1136793593579
92.1077032998493
92.0029193823863
91.9362726024223
91.942865233944
91.9288618778188
91.8737010360119
91.8172220754805
91.7837637799807
91.7831201362727
91.7668060231905
91.7067308734366
91.6645815806558
91.681786012586
91.6613493433879
91.5717060396464
91.5333769876692
91.5322422548863
91.476864763766
91.4339007091701
91.4009819039302
91.3151262089731
91.2365026611361
91.2140194999405
91.2241023294784
91.1811688229028
91.0960219110917
91.0254845433431
91.0063569716368
90.9836980651491
90.937101151176
90.8342011323873
90.7720571552435
90.7463269013029
90.6625253071891
90.5980603756594
90.561577115707
90.4693239845333
90.3814938703755
90.3201658291899
90.238110273061
90.1761469222822
90.1501393728674
90.0967105716212
90.030789327765
89.9463211227215
89.8449403492969
89.7683750971365
89.6774931123382
89.5396588677715
89.4223452574959
89.3577818393093
89.307085409786
89.1826181509614
89.0192797937129
88.887900564308
88.7822090634289
88.6485888136582
88.5123478483952
88.3509398729167
88.1460676280694
87.8816131009039
87.613638319393
87.3649249218114
87.1255237766058
86.8463083437629
86.7424475744035
86.508625288034
86.1399946152459
85.8801985685891
85.5662644481761
85.2718294326096
85.0767413127451
85.0319463828568
84.9579299220657
84.8023614997906
