1798
3999.43349933624
650.420452594757
1
128
4
96.3290580292365
96.3826866740882
96.3943369687334
96.3568726501152
96.327593042256
96.2858542231446
96.3252429221099
96.3401997615325
96.3719948577534
96.4118140627679
96.3568215615399
96.2403042687842
96.2404205772844
96.3657532492972
96.4478009426568
96.4340365183789
96.3427661738362
96.3383349107806
96.4398497155948
96.5213485724358
96.4219161583384
96.3733424828747
96.4374652979843
96.4747988843484
96.3935552419848
96.3567965905394
96.299408940195
96.175552565422
96.2014390910184
96.4105480375266
96.438285516612
96.3679780837162
96.4039856365059
96.4758372917589
96.4171174644135
96.4170159727508
96.3897788602407
96.3533127491912
96.3838569183725
96.4264415527978
96.4651694939157
96.4209479124853
96.2671767666199
96.245548854738
96.3486480494969
96.425291753975
96.5342034488369
96.5282132423763
96.3826456926586
96.3239319265006
96.2708893750625
96.2414170462791
96.3183798560207
96.3696437460013
96.3491716881876
96.3616089296868
96.4073838280721
96.512058604488
96.5088635176008
96.4359036072776
96.3342428377109
96.2777477551163
96.3166464752356
96.3818414088595
96.4068132615801
96.4452314408668
96.3746683138535
96.3603764573811
96.3439409436362
96.2974268370227
96.3166633213785
96.4024866805545
96.4171690170453
96.4592814095269
96.6010085928875
96.5877472148244
96.3674959931319
96.2923127670718
96.4652898937099
96.549490393657
96.3957438391786
96.4011544957417
96.4820809495549
96.3828018148356
96.3360514521739
96.3790794357001
96.2918842667188
96.377402965216
96.4441251033578
96.4292892804813
96.5397222862419
96.611363638541
96.5528082786123
96.402628327065
96.3270068676537
96.4566183177853
96.3913193194446
96.2045524129406
96.2839796610085
96.4711298870544
96.5562802700313
96.5377038312039
96.4933486660902
96.4195934036243
96.3525287019167
96.4472788172626
96.4420476497279
96.3049348786966
96.3625781250566
96.4829317242053
96.5147282599369
96.5106220485685
96.4725107021919
96.4585001228942
96.3504662790011
96.3178319158456
96.395197650238
96.4679177311214
96.5250128576599
96.5191367943418
96.4044223779494
96.4321178071542
96.4405777670284
96.3826777466562
96.4150853259072
96.4678270432945
96.4593874230069
96.3029693208879
96.1982382596963
96.2685058577525
96.4994071513448
96.576787140699
96.442154450161
96.3823190116934
96.3799823573647
96.4541287160301
96.4460960702632
96.4264814612636
96.4801151978053
96.4354281910442
96.3579648818339
96.4013471372283
96.3193971595872
96.2358123392299
96.3368912154108
96.5749690892896
96.5647728638075
96.3801520644349
96.3333305325065
96.3241066522824
96.3530173749582
96.4020702750341
96.4170689933018
96.4267167201501
96.4614510548646
96.4300989605307
96.4544129072389
96.4526448270676
96.3869233278784
96.3807465307639
96.3653118832504
96.3587199431289
96.3446102409686
96.3448636081059
96.3200684595214
96.2430435181911
96.1639969828915
96.114080683824
96.1868878325295
96.4440060102553
96.4859327904869
96.3216091636037
96.1958486701228
96.1608228967937
96.2124608063821
96.2333253945223
96.0960117546577
95.9913721089537
96.11992878126
96.2057636488949
96.0853430560854
96.0557796131587
96.0985519688171
96.0348888296915
95.9042723884742
95.8361225410781
95.7833209629513
95.6438042725883
95.6375411147184
95.8025641885562
95.7832875438874
95.7008530704711
95.5610379597506
95.6140873527575
95.6607438343375
95.5740587875786
95.4380846285303
95.2161094709852
95.1180363075412
95.1391261698847
95.1863180625693
95.1193845242911
94.8404036637071
94.7542862185783
94.8550146648341
94.8055506354023
94.5960510720075
94.4375575813147
94.2963646730305
94.1853296670555
94.086553977562
94.0467500199983
93.8956810544317
93.8559063179702
93.8901377565125
93.7425607733667
93.5213074161967
93.4405383652859
93.3760936979428
93.2522500437604
93.116794851597
93.1598236433985
93.0320065789713
92.7904272434025
92.7083655421181
92.6611975475083
92.5644302185075
92.538636552088
92.3702385244153
92.2090226182278
92.042541102774
91.869648293786
91.869150748345
91.8750590194091
91.7813122364617
91.7396517477397
91.5339883925292
91.3288700068187
91.2501776527033
91.1866378081338
91.0374247209259
91.0245795986729
91.0168246149252
90.9297313123915
90.7004161233242
90.5708363281081
90.5272924485335
90.453912951071
90.3524305993247
90.2520196111548
90.085521841527
89.9932603658917
90.0066252246931
89.9191080210689
89.7499176101759
89.6698242405435
89.5764413587842
89.529456457634
89.477184104381
89.4155086944672
89.2456534395177
89.1117126302789
89.0077400061425
88.9672889637327
88.791856072532
88.6903584111993
88.760703115376
88.88568256979
88.8699715453769
88.7905350069264
88.7214189574884
88.5788404305117
88.3629112981456
88.260263908113
88.2360021640579
88.3589843100613
88.3775029272189
88.2826556068766
88.2309178133057
88.1369645764886
88.0607363385532
88.0139727976942
87.9413963146459
87.9295673131886
87.8950801252228
87.8673188829493
87.8127301136407
87.6850179703128
87.5863697864527
87.5403321343761
87.5072707321943
87.3506623386353
87.3428484587494
87.3967925002527
87.2538630686815
87.1431150342074
87.0871826129618
87.0617858632334
86.9121813927647
86.7359152163785
86.5767448173571
86.4697285743587
86.5140853056404
86.5965864676207
86.3952372261973
86.1880007415138
86.1369475231849
86.0954162627124
85.9629630314173
85.873259995718
85.7976777284596
85.6382226578088
85.4954804925191
85.429720531474
85.2937116224138
85.22211997341
85.1149235336191
85.0212299497311
84.9582876070159
84.8471840694871
84.7041373594003
84.6379680007698
84.5088656386224
84.3729606917523
84.1545993738062
84.1088247071936
84.1144742696651
84.1381366168305
84.0756739720353
83.9669535496758
83.8746574814622
83.7485662447724
83.6268597586897
83.6824777017836
83.5932224088362
83.4578342432725
83.3963912762653
83.4054140281117
83.4423020928968
83.4113349055065
83.3205788503236
83.354727653899
83.303834766422
83.2364452560615
83.2469468907833
83.2547179027679
83.2239532965278
83.1938934795337
83.1439861196864
83.1586854767156
83.1177205335081
83.0645004298912
83.0543672337048
83.0894106807244
83.1849532065422
83.26322228149
83.2133102699374
83.1995561178307
83.2752267808564
83.4567733069194
83.4707346974657
83.4592179021971
83.4709597584565
83.5777659028071
83.6672082730874
83.7040212148249
83.71575286591
83.7378705869012
83.7413743737848
83.8181222513516
83.9658341918454
84.1319580859195
84.1148866073822
84.1160141941261
84.272462606592
84.3449093591342
84.291336086865
84.3418720627893
84.3846208198426
84.4786454468607
84.6172163890983
84.7285192724646
84.7337385167412
84.7436759343163
84.7778282270592
84.8550551100801
84.8835864937428
84.9220129675802
84.9757268013053
85.0508826399503
85.0987084965858
85.1998364425015
85.2589725092023
85.2726548408499
85.2566786555111
85.2843864346974
85.3080113820747
85.3979391769094
85.3663864360966
85.313563559266
85.2742961037457
85.2847117325961
85.3194891588582
85.3528821997928
85.3271625274037
85.3709210048697
85.383882530533
85.4403421544635
85.4736980107686
85.4723623274839
85.4746480805864
85.5825054796326
85.6786834921227
85.7616643427869
85.794417383821
85.8555964820541
85.8680937110294
85.9239932782727
86.0299549151107
86.1064636347491
86.1735165694558
86.2191770918757
86.2093915812953
86.4030733489593
86.5683218072344
86.5781169420131
86.6285672352694
86.6827238104257
86.6558351374056
86.7742736729599
86.87147111381
86.9198156198186
86.9367233034739
86.9267766894745
87.002959361391
87.1119041645456
87.1982880798817
87.2823088336265
87.3761983229538
87.4728170462179
87.4439405207311
87.5040025725721
87.6310236764013
87.6730953989049
87.7356222425314
87.8243165741576
87.8378088299774
87.9217815090266
88.0193631594447
88.1186835437722
88.1875347286336
88.2373894791374
88.3576271783862
88.3984360912965
88.3594548551447
88.4120603058287
88.5087444569758
88.6173728548104
88.7967124765498
88.9167129620786
88.9317195047841
89.0229548667467
89.0438902209332
89.1478812626423
89.2405216524895
89.2603667678629
89.3231074538521
89.4180247146627
89.452585621209
89.5288985541887
89.6300390741294
89.6950074014137
89.7086577836453
89.7961505920819
89.9140768158377
89.9693616195943
90.0128755898155
90.0639796078209
90.1019699904096
90.2485769397708
90.3077185018439
90.270884636577
90.2563468134735
90.3574454467452
90.4818419140345
90.5086253591945
90.5970392127516
90.6895615840534
90.6725248535369
90.7399205783256
90.8830681725091
90.9012676962267
90.8948834570752
91.0056300615722
91.0968950949351
91.1592592903477
91.1671453740405
91.1846612043612
91.2444365481808
91.3333458396549
91.3728631359188
91.4144865364156
91.4598293500533
91.5454351721712
91.5826246137592
91.6450010263509
91.6699203660428
91.69020368101
91.7591365281511
91.8656254492327
91.9055487441454
91.9353220559059
92.0008423074855
92.0325445237981
92.0491369150371
92.0916298047712
92.097318627448
92.2077736587136
92.2707884547794
92.2566381807083
92.2239991254506
92.3046189669794
92.3896369055716
92.3975154815311
92.5079255262132
92.6001858809646
92.5696553432774
92.6132091186835
92.7125907091163
92.729351375406
92.6847629526133
92.7296737952468
92.795666756111
92.8173951553039
92.7953784520148
92.8814729155245
92.92331041696
92.9365179340073
92.9704737744783
92.9791613914129
92.9870534883611
93.030674706043
93.1156326916665
93.1804012800964
93.2234559860513
93.2555413905927
93.2042494518238
93.2506120169961
93.2818033190789
93.309204251024
93.3686924151038
93.3688697413938
93.3632547016346
93.4116585954838
93.5072740318696
93.5685275855062
93.5619729896391
93.6041995287549
93.642611062363
93.666132265871
93.6977526194929
93.7258911713025
93.7550861745515
93.803555040861
93.7756737507528
93.7350394869579
93.7269834585283
93.856791914744
93.9273790066509
93.9771595616791
93.9854962392615
93.9899643111741
94.0148731703502
94.0471504064843
94.0806581236863
94.1279716974064
94.2063794791146
94.2520101477189
94.2414614147677
94.2515345064629
94.2346293201016
94.3079128073597
94.3380046071205
94.278767034614
94.2323161184936
94.2463513772886
94.2752515261812
94.29180434523
94.2943785173558
94.2920882605086
94.2675232680982
94.2590683883521
94.3031793294216
94.3099592027303
94.2857578169738
94.284936326839
94.372705485587
94.4386728490726
94.4211687462391
94.4114967256509
94.4491296211727
94.5059180190464
94.4506464384753
94.3934814433443
94.4299301440366
94.5362833963756
94.5675329049873
94.5629992946986
94.5720629477447
94.582368149492
94.6139333052781
94.6324786631039
94.6592001626178
94.7194695930094
94.719297505072
94.7020836274578
94.7000924391425
94.7283614599947
94.7387190334148
94.7337438990348
94.7491547887985
94.7581565380417
94.7436295493689
94.7090602328518
94.7316787894354
94.7621410179078
94.759256401548
94.7489956726279
94.7327886513251
94.7770706362903
94.8096358215492
94.7783627615951
94.7780668229181
94.8326392275856
94.8632989327248
94.8699843701817
94.8668555872401
94.9035710817123
94.9057248629589
94.8564127189264
94.8708021010873
94.9346034162907
94.9595523714645
94.9627465499408
94.9457452662381
94.92222384591
94.9313780157823
94.9162951977638
94.8885134871288
94.8964207533737
94.9201011526007
94.9462175304829
94.9683827105547
94.9983312214223
95.0114555013351
94.9885513971475
94.9833525644984
95.0623155005279
95.0598076393701
95.000049697078
95.0016776671685
95.0362341249097
95.025063930198
95.0274237764459
95.0279604704511
95.0440288883623
95.0815888397917
95.1192473917754
95.1388571249636
95.1329316379083
95.0716467178108
95.0218912391384
95.0341342148843
95.0785548909003
95.1309680987933
95.1411486060812
95.1164938033296
95.0826805259308
95.1111779071179
95.1818805729956
95.2045755062813
95.1537266488085
95.1782947985725
95.2203978964855
95.1927016566632
95.1976065227859
95.1516175918978
95.1609511621773
95.2177806207708
95.2511550014333
95.2307352711703
95.2259981619011
95.228718131385
95.2128163642809
95.1834890875792
95.1986616353799
95.2160428673138
95.2270094739148
95.2972049661487
95.3033837944417
95.2622691083894
95.265184713042
95.2749297020225
95.2495307672314
95.2267418075663
95.2947971691536
95.3262026098069
95.2869831004186
95.3096518932952
95.3200596872267
95.2767352070759
95.2741601067614
95.2620416895028
95.2644566760194
95.3074095448349
95.353178730317
95.335665299391
95.3102965714703
95.2900619047654
95.2665961816972
95.2840157134395
95.2975546199307
95.2511318550674
95.2288749695932
95.2060704442563
95.2017761435396
95.2363069628815
95.2506571822073
95.2360114856453
95.2552182207141
95.2775177430881
95.2705293636419
95.2691600125979
95.2768573037516
95.324074763861
95.323299045297
95.3471413062664
95.3767782722192
95.3647592888049
95.3443336438952
95.3474783155991
95.3969063905778
95.4572078295267
95.475218173207
95.4116941458059
95.3965026646269
95.4083024748965
95.3597321247359
95.3541296494559
95.4751380588563
95.5614782611742
95.5990424413903
95.5609096846274
95.5070623189535
95.5249985069913
95.5554431928686
95.5571849330506
95.5716480616258
95.5069571938046
95.4542557785131
95.4502198249399
95.5327440430054
95.6239345305921
95.6209944261989
95.5907417176634
95.5813173093063
95.5752126913257
95.6064471673254
95.6799278087762
95.6418200146991
95.581096692938
95.595917575025
95.6248608467757
95.6103675287326
95.5536226057549
95.4920655940127
95.6103699190751
95.6939625479371
95.6699824428702
95.7209629584427
95.7406950785992
95.7200551088981
95.6420109815138
95.6183639271253
95.6042266780718
95.6020690863699
95.6294076316426
95.7188573321838
95.6981675287377
95.5918195593133
95.5521251963137
95.5518159415142
95.6188002059515
95.6620498186844
95.6261055574483
95.6329710089509
95.6103223236967
95.5866085918763
95.7166263720123
95.7702790245335
95.713409641795
95.67597766586
95.6870256118131
95.6693704874141
95.549566702386
95.5838156920382
95.6519871702198
95.6347639804476
95.6143202770786
95.6673419667317
95.7020418393638
95.6811124979283
95.6921776050423
95.6896808679075
95.6338869614819
95.608377869744
95.6970955009229
95.6952947241223
95.5914249123516
95.5864056976338
95.6549206929045
95.6626389981385
95.6101101783232
95.6347966412601
95.6880576030838
95.6349733293255
95.6198007723511
95.6637008241268
95.6191229933846
95.5500630435947
95.5326925356262
95.6619818772809
95.6990225470152
95.6707685785737
95.6893139949851
95.606677738531
95.555143790877
95.5878911668214
95.5755071380034
95.616506138955
95.5576242493319
95.4886154404554
95.5995389917814
95.6747492687085
95.7255544901776
95.6579213808102
95.6308348754653
95.6714323030878
95.6304378303488
95.5921875679336
95.6241492326979
95.7349222993239
95.7194939268324
95.6161319506624
95.6626948667206
95.6968395986595
95.6391407977683
95.5365210698531
95.5968369448589
95.6801113820655
95.7131634393516
95.6786769129792
95.6179452313183
95.5955300193978
95.5996796559195
95.576531760273
95.5583831647034
95.5069292340242
95.4611676071167
95.5027039759154
95.5583613879534
95.5259396221108
95.54150876058
95.5732098303357
95.5639858441972
95.5391306728095
95.4837790314632
95.5571267411553
95.6191915311056
95.5373490415888
95.3953523813495
95.3732851024464
95.4293756332848
95.4020622193135
95.350947997447
95.4250295655532
95.4544463255759
95.3071590387552
95.2799825848668
95.294936363514
95.3151406767765
95.3556723168036
95.3340413503661
95.2916824767241
95.3450036808593
95.3705615177492
95.3222955557424
95.2473978807826
95.0814682580498
94.9377445195508
94.9888486340358
95.0751458306792
95.1504308022921
95.1418787774494
95.1732329339255
95.2629588927247
95.1446090638288
95.0877356783258
95.1583583208061
95.1674602388102
95.1852164332473
95.2211410638579
95.1852711759977
95.1249962301573
95.1153533130211
95.1438444105356
95.1472781870586
95.2234763289264
95.2793775300912
95.2005579695458
95.1710116984996
95.2263975963243
95.2368671375808
95.3239899524374
95.382415477726
95.3189852224306
95.3904767627552
95.5168341942446
95.440317926743
95.4047215401041
95.5051534781543
95.6523886893261
95.6864439450749
95.6410362725387
95.6476955786987
95.6921992787447
95.7035112855487
95.7408561497165
95.8288305674991
95.8486156561062
95.9070109235236
95.7806409253793
95.7876125467725
95.953550599483
95.9525759103572
95.9517401667958
96.0119183921286
95.86788718211
95.937510063734
96.0260834650087
96.0243655401114
96.1801241930327
96.3934425528728
96.2781656213848
96.1650630181834
96.1816797048507
96.1581744749901
96.2579679580932
96.4020727694221
96.4805625275727
96.5466918196225
96.4620942031925
96.3806794129334
96.4298995399646
96.461491061319
96.5956291452459
96.7847819319221
96.761019766051
96.5122437776755
96.2766654442108
96.3223943832126
96.5472210875815
96.6030556904676
96.7804976105071
96.8612636055416
96.6151227847876
96.5692554446383
96.8020751167854
97.0497920967812
96.8772681513502
97.1713946436364
97.3727386725422
97.0398498403579
96.9355789591789
97.4280991495905
97.6032534693933
97.3929548781822
97.6951726897188
98.0170451211322
97.9181571330949
97.7137788711308
97.0685089656581
96.9283090709983
97.0023584344392
97.0595469913465
97.0570255651064
96.8721037727667
96.8023613223214
96.8515536816714
96.7598844715848
96.5657033788477
96.6393570026056
96.6237799987165
96.2823372224727
96.1951989078709
96.0808882439842
95.8116710935175
95.8058269092372
95.8493740115738
95.7955227841075
95.9479054809132
95.9416294122868
95.8028055375919
95.8748516289973
95.9098574742454
95.7427954092132
95.7086595541317
95.8833949345519
95.9513968060528
95.8387527793085
95.7968755983699
95.9359627941931
96.0430559662048
95.94749027815
95.9403349727667
96.0478601414478
95.9708353982115
95.9221969837568
95.7676015541989
95.7588886484034
95.8565071574014
95.8931691536507
95.6879464076531
95.7312592562596
96.0468967625321
96.0057472332298
96.0901402628743
96.133092233794
95.9314394576347
96.0815197076301
96.2534570207066
96.2050505228187
96.2917612560457
96.3170075027953
96.1908062830761
96.09807800574
96.2447225989499
96.6466380607827
96.6107418632832
96.3942018713701
96.4621367142558
96.702186283054
96.760744791235
96.7353443653665
96.6392661998762
96.8564674105831
97.267378659915
97.0343671399301
97.0221767851815
97.0949625388078
96.9787179886062
96.9588073746846
97.0119251703311
97.2706838400293
97.5274465885095
97.1444946415706
96.6834758744609
96.89152077054
97.2249357675714
97.3855268376331
97.4291515991867
97.1510555167554
97.1835391209181
96.9075485647706
96.3468901230167
96.6134148092064
97.1438166462943
97.0707331124354
96.6663003406777
96.5071115665744
96.400055832293
96.4994479721028
96.6866160114156
96.7772931517396
97.1362387559772
97.3407564396759
97.2297257840153
97.2455141240204
97.2547867728179
96.9929865875537
96.751362280833
96.6259208708726
96.918062262707
97.0804497483161
96.8751647447823
96.7324500352478
96.7882513735412
96.6898908051333
96.493457403956
96.5552700131034
96.6597994600727
96.4659140224831
96.2303174017185
96.4589564231669
96.6392670515834
96.4904715131667
96.3745671575923
96.2163077198802
96.0823891064948
96.0367796623462
96.2041399731867
96.2709516647557
96.192880701948
96.1393314824621
96.0510769671395
96.0190376701926
96.1223524676581
96.2069456288058
96.2183630702651
96.0605533806378
95.9183950050327
95.8401515320015
95.8739739072273
95.8602667922812
95.7848320437475
95.8864813503318
96.0537099876886
96.0659286690438
96.0367855395145
95.9344014380375
95.8865723019694
95.898112400727
95.8723249793593
95.8874070030761
95.9013361546156
95.8442641606183
95.8028467402631
95.7865306154248
95.795504015854
95.7800152970509
95.8050868456578
95.7640581449429
95.637515283371
95.6249896311055
95.7581517917626
95.8306385362397
95.8866158375607
95.8666898411057
95.7606535164449
95.7603721041957
95.8097941352198
95.7856026447369
95.6895560695009
95.6317834817558
95.6414658431881
95.5817616542001
95.5350544668456
95.6314921689431
95.7191988092505
95.6732101072004
95.6535739047303
95.725425320614
95.7217681522937
95.6077814256523
95.5966541680414
95.6388335077874
95.5987188225932
95.6149038264576
95.6734451996877
95.6552279185238
95.6369200561294
95.6557264006574
95.6567941333905
95.6376579583415
95.5703710375542
95.5441808740938
95.6116469310989
95.6093966248875
95.5451900943555
95.4801412188374
95.5001922342443
95.5245766489912
95.5185009495621
95.4436012145764
95.437244959188
95.5468929329477
95.5716055981571
95.5002499953702
95.4731834929665
95.4606659595702
95.4527402717817
95.5141351774386
95.537829967345
95.4810321898402
95.3708684898744
95.3664123866424
95.5059072183545
95.550722327377
95.5525033150583
95.461445942058
95.3619854828679
95.3926798270273
95.4104131591911
95.3616234074295
95.4186637599118
95.3950210888288
95.3371655897628
95.3512196346508
95.3710768993017
95.3817754948098
95.3540833100315
95.3310956669519
95.3416377054187
95.3812194572656
95.2996391544957
95.061862089814
95.1243952822343
95.2828289145106
95.2917935478253
95.1936919728337
95.1119292553348
95.0729582466479
95.0254648540951
94.8801869898469
94.8053085342202
94.9011341479349
95.0051513284067
95.0026906336292
94.8899781891411
94.7594889841994
94.6393105993448
94.5854240673466
94.5195214474218
94.2948495074076
94.2833424509504
94.2290237213346
94.174129322795
94.1606198332177
93.9778776243794
93.7542140195895
93.6085224812841
93.3188309206592
93.0919909490329
93.2602306219992
93.1663233032567
92.9169415261939
92.5967121906989
92.4051788514835
92.3414437676898
92.0664285593779
91.8486572551058
91.8396208175954
91.6460283624123
91.3205552652542
91.1638831835732
91.0528610094613
90.8281469293117
90.4477524290265
89.843090591975
89.7661810151907
90.0565191612597
89.5851001825518
89.0025679842699
88.7356252594117
88.4255891588709
87.932265389554
87.3736561628256
86.7856910297066
86.5357347300074
87.1766978436098
87.580155314701
87.6278255994982
87.6733086633076
87.8232230202786
87.8399010720271
87.843162358267
87.8751270205896
87.5841301819928
87.1939905954445
87.2394811155312
87.2835073030717
87.1498969875118
87.1377541174506
87.3578422822998
87.7607143434309
88.1359966712297
88.5328188111139
88.9710887034018
89.3533665691767
89.6979534003854
90.0357806968787
90.3613456968265
90.6639064047556
90.928898112292
91.1480996900065
91.3147447324272
91.4611427431772
91.6190803935765
91.7603020508626
91.703685077074
91.7645220650465
92.1993274400918
92.2972655309612
92.1223933181887
92.185531538221
92.42229244375
92.4885694096458
92.5092418567347
92.2641880697885
91.8539560123545
92.4972834015089
92.9232219288328
92.901029653733
92.8452602089796
92.767566980917
92.8804249224473
92.8697759495507
92.7644511476712
92.7034364170878
92.6454007250713
93.0446699880316
93.4096817234181
93.256859956316
93.119178376767
93.2864481542317
93.3359460821233
93.2625861232786
93.3017238714898
93.366054350401
93.2510473713713
93.381492860311
93.524392914716
93.5472568971097
93.6817031807949
93.6802067461047
93.6299488337533
93.4695136294473
93.2836018048086
93.701828428209
93.9913252936954
93.8858244400365
93.7098861726072
93.6357101279301
93.7769020655362
93.9749464160963
93.889887601717
93.693689124858
93.7435870435641
93.9268398449839
94.0026661725228
93.9326193191764
93.8598203928726
93.8564227613605
93.8316622798078
93.7941569405441
93.7091941314701
93.8046185731137
93.9958710812256
93.9328649790367
93.7776722469287
93.7635590035081
93.8981616811033
93.8131836260289
93.5527728880631
93.4510625139348
93.8263826606498
93.8752573552669
93.7345085965486
93.6038149352953
93.5869858291984
93.6316400607162
93.6292498547129
93.5953035175719
93.5557028085212
93.4269609250447
93.41006319919
93.6170604601652
93.6232281416744
93.5211504161026
93.5099099772189
93.5612107671974
93.5075585206867
93.5030098464736
93.4969265639379
93.3838302944378
93.5146838710362
93.6515674560543
93.6420383621593
93.6220232783658
93.6360633141384
93.657847910799
93.6632431327498
93.707646093053
93.7780134011932
93.7616022174141
93.7404049639556
93.7838686603621
93.8096043635838
93.916647735874
93.9832796252303
93.9186856237888
93.8571394853361
93.9289653422304
93.9880157974009
93.9780240993475
93.976310657922
93.980351816012
93.9803543763534
93.9825818514617
94.0646833231654
94.1125589692838
94.1032261658258
94.1136171383345
94.1231560006391
94.0806190611593
94.1382752520686
94.2183400304737
94.1960401645268
94.1840312685817
94.1854042600904
94.1867902149297
94.1897616017664
94.176971265414
94.2008527265387
94.2213721195993
94.2247428387218
94.1785850125688
94.1613533423267
94.2091909396016
94.2357174099917
94.2387753941318
94.2339141750359
94.2295898098369
94.2388891573279
94.2304108472875
94.2080642366281
94.2206345729382
94.2391508473557
94.2279511427664
94.2409320437687
94.2441661501449
94.2226646143242
94.2472074995983
94.2794566106873
94.2773537069046
94.2864383390422
94.2832543238502
94.2649274925169
94.2540921525854
94.2639000467622
94.2582208940622
94.2523014356969
94.2400965183403
94.2265668082503
94.2112118342024
94.2031977636149
94.2083620119972
94.1967991583065
94.1675258439614
94.1445807471882
94.1256003147766
94.102479466635
94.0939864878844
94.0610902366948
94.0159151069254
93.9995939850478
93.9556503457207
93.9012566296291
93.864755894602
93.8353184065526
93.7945507385195
93.7353932217216
93.6510490285221
93.5838065790081
93.5125213634264
93.4328598784877
93.3671131229959
93.2750876082586
93.1606911269848
93.0308375891591
92.8952409480519
92.7511380732448
92.5892141350301
92.4358784360917
92.2783202401777
92.1145279619502
91.9171894357409
91.6944560144827
91.4972800473471
91.2994573172483
91.0704613469945
90.8341501641677
90.633968071034
90.4191646799822
90.1486648462276
89.8965367517016
89.6499200666358
89.3881177455729
89.1566319632859
88.9119132477419
88.6403511364875
88.3526795513022
88.0664171532946
87.7897907671645
87.5139603095999
87.2399042553245
86.9420547545013
86.6223717300063
86.3268516592279
86.0262380551919
85.7139073981293
85.4181124831822
85.1235460317825
84.8279416818892
84.5023782334354
84.1564524841426
83.8671296824625
83.5806780315678
83.2660124564335
82.9586747512704
82.6515562961722
82.3532688875385
82.0724436228269
81.7884567906408
81.5110430596239
81.2446948806534
80.9605803297063
80.6803504404218
80.4109541892011
80.1460042250505
79.8917215578804
79.6344281007015
79.3782227500758
79.131214247882
78.8862050200666
78.649369629603
78.4572812790144
78.2913685612913
78.098537395063
77.9291711637863
77.7935636134106
77.6439369620607
77.5124901447134
77.3932079926726
77.2728879334473
77.1700486390825
77.0342749174459
76.8835227313113
76.7739921913477
76.7022131077095
76.6352933879321
76.5917502726899
76.561104276827
76.5271287803766
76.5270809649147
76.5381737965457
76.5700660679029
76.6449339609186
76.7649950149366
76.8804411556289
77.0146257764057
77.1948146120382
77.3913821142304
77.578469392291
77.8129570133037
78.0811680465638
78.3709995835685
78.6852728948308
79.0207155475101
79.3695615453222
79.7623571880051
80.1687947826127
80.5948140079677
81.0488227759687
81.4873165861109
81.894554642543
82.3189536082483
82.76573039385
83.1948453995206
83.5911569865265
83.9727987954579
84.3318191124223
84.651251975236
84.9518060974098
85.237845736233
85.4915430925228
85.7361885944755
85.9640184581058
86.1595563443392
86.3254933071456
86.480637715246
86.6235849253835
86.7555623997757
86.8959494362306
87.0192728459601
87.1349077578346
87.2468069328122
87.3709969491095
87.4595875356832
87.5364112383316
87.6513352527765
87.7484115820979
87.83099907735
87.9404876525583
88.0564626436729
88.1510061365026
88.2258871191416
88.3203062059597
88.4473238749298
88.57136943598
88.6652552144611
88.7609210269815
88.9042500940728
89.1085979284869
89.2881793021267
89.4284609849771
89.5539063242042
89.626755663256
89.6797516104953
89.7506854903636
89.8845580477895
90.0310778332901
90.1685062142228
90.2838362241656
90.4112049185689
90.5430236323045
90.6498255909989
90.7351244863569
90.8289036355623
90.9057222816176
90.9519852573473
91.0140947457153
91.1180774326514
91.185873472761
91.2156844869576
91.2587671261921
91.3093026718803
91.3840117808954
91.4255226361559
91.4645772304739
91.4852450090678
91.5059548473918
91.5612019530884
91.6271837471652
91.690769123249
91.6902848111481
91.6659592899004
91.7169710584935
91.7954167435502
91.8284915431231
91.8607796987892
91.8850079000224
91.9038730155295
91.9220958337795
91.9206236827944
91.9452504934706
91.9702571863367
91.9685457835556
91.9783040795308
92.0130924992966
92.0560529801288
92.0384899894014
92.028627646755
92.0474401386858
92.0414197497472
92.0537024478737
92.1055767194693
92.1123517363804
92.0988389017574
92.1099968197354
92.0924967272904
92.0576309328495
92.0911447084506
92.1467255197666
92.1412387956853
92.083518831181
92.0748998227929
92.0586382209943
92.0198423243798
92.0011800600025
91.9885600475408
92.0013880584129
91.9996542004993
91.9557007976235
91.92937483765
91.9115966538519
91.8856960652976
91.8676391938118
91.8481946353294
91.7976561303625
91.7924287082677
91.7939642089995
91.7798817304459
91.7472809148073
91.7420570326765
91.7408568973421
91.7169538391167
91.6887405999874
91.6437153483201
91.5979772655215
91.5796963921036
91.5459253538701
91.513397611614
91.499185686164
91.4776216693122
91.4117821781402
91.3438887150876
91.3015811147702
91.2816408532192
91.2315874891486
91.200334716369
91.1890911764875
91.1469620164006
91.0687662955618
91.0334194573542
90.9903241738544
90.8639815593997
90.800962021694
90.7791003808867
90.7194063500368
90.6709728497764
90.6218974795686
90.5763329069381
90.5379919287066
90.4583826982229
90.3567089303533
90.2835196423002
90.2371826206991
90.1569231809475
90.083728887301
90.0623850178614
89.9791371982216
89.8514107049788
89.7923198788196
89.7076184241214
89.5729741638619
89.5119955919723
89.4395174683437
89.3818144985811
89.3284405569191
89.2333035668095
89.1351759143114
89.0939927544596
88.9933059345684
88.8634606535933
88.7863789488012
88.7262365848718
88.6393008132857
88.5451297941135
88.4476085263021
88.3642549127568
88.2989391804608
88.207272949343
88.0564524640042
87.9305776087724
87.8094799370168
87.7060648517433
87.6239775168076
87.5813796594696
87.4642513768007
87.3337293716587
87.2097220600734
87.1263145973775
87.0288768372334
86.8661304974763
86.7474281774139
86.6413879515843
86.5094540888989
86.3845673299718
86.2643197429145
86.2104121185673
86.1380637429204
85.9537853018694
85.7472526082014
85.6040606589644
85.5330666187671
85.4564646366606
85.299775721398
85.1325137120716
84.9869457679822
84.8386621885959
84.6774214957269
84.5732117626336
84.3862086219832
84.1390283525232
83.9391907212291
83.731513428024
83.5011267951961
83.4302633164367
83.1431505322375
82.8174309772764
82.5651349027667
82.3024845783947
82.0212070481997
81.7643370930797
81.5656475557507
81.363381266432
81.0939205322576
