1798
3999.43349933624
650.420452594757
1
128
4
96.1199632332102
96.1035889804408
96.1520297118435
96.2415100257589
96.2508906257484
96.237140836948
96.154630723413
96.038163382632
96.0478434380846
96.1749676583351
96.1907583611324
96.1714129220099
96.0709860887318
96.0079812592147
96.0319373228051
96.0897104786602
96.1425771491538
96.2397722507427
96.2439719137204
96.2347445581936
96.1972087200604
96.1777181747773
96.1143115743878
96.017589017009
96.0519049074455
96.172924602264
96.2472352379573
96.2739334158945
96.195994233903
96.1806434967832
96.2055523902387
96.2031913491212
96.2113138649006
96.1777289397705
96.1375336427668
96.1495988374151
96.1661426752488
96.1675393718602
96.1668108776624
96.2164436346543
96.2212546353141
96.1753400762037
96.191970929696
96.2780842356716
96.2484883120431
96.1778002963364
96.1546206094963
96.1051324450556
96.0964401100939
96.1996470105853
96.2032735401922
96.1244520132041
96.1143113956402
96.1544264401854
96.1820138316275
96.2926954711765
96.3888061901715
96.2909223219238
96.0762716506076
96.0571648823813
96.1484628706823
96.2334871819903
96.2902157631624
96.3040430490411
96.2847957807061
96.1899872796136
96.1583116172565
96.1325267597744
96.036093857083
96.1783220968764
96.3486641720307
96.3473888785293
96.3111714330276
96.3918662669707
96.3420767236744
96.205599709347
96.1648722155877
96.1643747934929
96.1412272575907
96.3505830140508
96.3396876068138
96.3282525393196
96.397835658236
96.315991892524
96.2957630351158
96.4241920533424
96.3835230664488
96.2576646098746
96.117788069828
96.154605235242
96.2546037962959
96.2925285975949
96.2936855265962
96.3032724806224
96.1864071065448
96.0464849906971
96.0548797676491
96.0829258944023
96.2433751248734
96.3724747961786
96.343165430811
96.2875642053486
96.2854304357932
96.3067081268022
96.2809990317904
96.3367671690407
96.3930766295055
96.3187565300951
96.2802584196793
96.2904257232624
96.2999560845573
96.3180012820186
96.2711857973835
96.3109124018353
96.3250620287495
96.2512559432983
96.2408308943808
96.2789665509391
96.2134599265646
96.2509868831791
96.2490364844504
96.2053806750445
96.1564780294901
96.1658328230795
96.2953884409893
96.3706964409674
96.4176040634991
96.3996016867427
96.2989435770407
96.3634801335504
96.3960240707411
96.3277146999256
96.2600620697275
96.1859304706654
96.1537118901337
96.2924972560792
96.4139015542588
96.4805209850509
96.521810782168
96.3851440405871
96.1577507575596
96.0857679345454
96.2466637801335
96.4583481092151
96.4309893153165
96.3756650390329
96.3081230666071
96.2530766027266
96.3010505280183
96.4513164903218
96.4798842759271
96.4348122514926
96.3138471868659
96.2926932008905
96.3941160882977
96.3891371424552
96.3332529205033
96.3616838883139
96.4100801723533
96.4137686703351
96.4090551880121
96.4108430472157
96.3535372320176
96.3428440525497
96.3102707229478
96.1843570799277
96.158099516489
96.3265161450623
96.5309137708725
96.5214581198121
96.25856889802
96.1597471571414
96.1181540655555
95.9582954528203
96.0734088793321
96.2316128784382
96.2170966010682
96.1874944872896
96.1904137258748
96.2068005934836
96.2162721934724
96.2527687613777
96.1000390924006
95.9788402021988
95.9703162198135
95.9810376902903
96.010872616739
95.9599802931561
95.9365500260549
96.0729091209131
96.0300244859401
95.8566838262083
95.7203041176266
95.7396824155945
95.626270408932
95.5002574429499
95.524964235526
95.3684298733949
95.3046305173042
95.4144654519469
95.3473970233405
95.160961155307
94.9886928511059
94.9623537853136
94.9833040941503
94.9659515805971
94.933617963996
94.8180242031025
94.5620859367719
94.5274388612905
94.5056479811496
94.4364380961461
94.4127709520453
94.2909137175864
94.1071116605371
94.1563635333846
94.1453678723953
94.0275573581783
93.8300692422845
93.6869594965117
93.5622068199173
93.5444763286923
93.5035561138867
93.4527569313113
93.3980322460138
93.3236102706193
93.1045951747896
92.9700114950945
92.9321966887071
92.8709724083906
92.7531493981444
92.7131991309144
92.5747123136703
92.5446851098124
92.5212421209595
92.3771785041689
92.1862370307402
92.1134471872026
92.0895581163604
92.0395010372666
92.042380624128
91.8964654006267
91.6021206228891
91.5123611729978
91.59679883229
91.599368892881
91.4247630364849
91.3731087574977
91.259071378004
91.1456740564136
91.0234579673235
90.9014218492289
90.8278568621084
90.7647300010662
90.6508725182741
90.7168460300937
90.7086764905981
90.5311496773473
90.3307112377207
90.2711406745891
90.1228093084946
90.0333421061183
89.9634011908832
89.9676701664452
89.9870902510444
89.9460503201052
89.8780947414848
89.7777062332065
89.6941681978908
89.6454091247834
89.6265483371563
89.57995565985
89.5098290824869
89.4836345523749
89.45291348739
89.4163237302003
89.4317769479782
89.4440506574423
89.34678438757
89.2363392909567
89.1893188661792
89.2328824279758
89.19417495437
88.9893977779722
88.843163920008
88.8092818799098
88.767769107063
88.817768227161
88.7719902659698
88.7227201722845
88.6659201437054
88.6093948210318
88.532882425817
88.4965809267675
88.35038279718
88.1677636765141
88.0767219020244
88.0710393928107
88.0653492449569
88.0771736142776
87.9166132167549
87.8373244091352
87.706647728787
87.5594365414921
87.4508778220876
87.419825710242
87.3410970205347
87.1825574123662
87.040710822981
87.0495881158036
87.013740519029
86.8323608137314
86.589961030019
86.5148911164901
86.513539808471
86.4478361218541
86.234397467975
86.088248183449
86.0700302354708
85.9934451422306
85.7970418399309
85.6684146568239
85.5771310436966
85.53757081545
85.4571798937477
85.3760704259388
85.2849792352658
85.1683447023035
85.1003233403291
85.1103181777664
85.0814322831114
84.9198564243705
84.7796265241288
84.8030435079399
84.83906814611
84.7517575749911
84.599435354208
84.5894707740611
84.555544352713
84.4662893985757
84.4088448703935
84.4042528877339
84.3585593040021
84.3931498077973
84.4411070023343
84.4826202581213
84.418669168582
84.3514486887579
84.3102525975594
84.2516752608456
84.2515987504445
84.3266968614789
84.3724498771307
84.4201167933325
84.3625866916847
84.2864273068596
84.2901313801378
84.3702133086689
84.4662902935975
84.5341901092727
84.6133172423718
84.7295305602093
84.7055101415617
84.7515653918872
84.7880048165065
84.786172054868
84.90163234576
85.0441828265819
85.0532468336591
85.0893836297109
85.1467125849454
85.259271820327
85.2861443006854
85.3278435591559
85.3791955702243
85.5075162222815
85.642044748309
85.7206065567619
85.7276303217972
85.7609416583466
85.7913423415461
85.8776212478782
85.9068028343286
85.9816995026733
86.0997574440895
86.1802606756622
86.2266604104502
86.1871684174445
86.2154230397812
86.3307642557593
86.3364147794573
86.3951957877508
86.4237186929937
86.5559485994239
86.6327992670727
86.6227143279953
86.5966423557383
86.5990526823434
86.6308770573499
86.6561753439178
86.66125458989
86.7453493591135
86.6795155722993
86.6746280793059
86.7722045723368
86.7495148365891
86.629013852444
86.6294690930758
86.7308786226057
86.8081194818672
86.7525695603865
86.8530084216697
87.0087155811717
87.0233596312517
86.9843332907143
87.0718593039306
87.1359346178548
87.1368683040457
87.1455993809105
87.2919212335254
87.4976017226594
87.6091938543438
87.6202553054079
87.7326644815992
87.8163707864718
87.861746025773
87.8877804239117
87.9700304712123
88.0430533809518
88.0216286610691
88.0758375678113
88.1788416287606
88.1640617295794
88.120073142497
88.1817234552034
88.3357469556938
88.4539121375067
88.5554538104142
88.5856283827548
88.6493052630573
88.7137950645798
88.726079908209
88.7218070132619
88.8022735948127
88.929970989911
89.0168542164293
89.1074190124058
89.1428280217636
89.0608936248733
89.1379361076246
89.2508616753505
89.2811369993043
89.3178873785248
89.493434710488
89.61242483502
89.6420207414666
89.6863679635861
89.8002643669951
89.8657236059051
89.850744780914
89.8791673933107
90.0124587973552
89.9932044666805
89.970153013342
90.025191130024
90.194995403418
90.3383838170591
90.3563045145657
90.3327508522576
90.4555798717515
90.6238774555868
90.6771141306314
90.6458378198082
90.7124846492823
90.7440226667801
90.7738055701291
90.8674438637861
90.9709873348071
90.9578303785602
90.9140965329035
90.9519354541724
91.0373114626198
91.1769507666166
91.2679046963451
91.3252495906256
91.3475279483445
91.3267573256313
91.3893353504898
91.4282738216805
91.4363895780312
91.455241419048
91.5632407032626
91.612108279563
91.6578676584049
91.740390040196
91.8317328998286
91.8473763457105
91.8318102447676
91.8880639857426
91.9778253092061
91.993452012877
92.0493719015968
92.087295181888
92.0908145621242
92.1098442894383
92.1277597821195
92.1192344257341
92.1641107776887
92.2355225944943
92.3114859036706
92.3791001010426
92.471885984105
92.5606547281287
92.5440431181179
92.4974031943033
92.5313612702077
92.5622581745024
92.5184060681846
92.5966309820357
92.7418128946328
92.789124291253
92.8146775192535
92.8175158657357
92.8004620726729
92.8055302338985
92.8585980060345
92.8577042980303
92.8700684995714
92.8868634764677
92.9260955467259
92.9691699218582
92.9892517449635
93.0272043465485
93.1103413617454
93.1569781956492
93.1510323717476
93.1817395021605
93.1840388577641
93.1880927708635
93.1879874620522
93.1932508418586
93.2492675868556
93.2693188273857
93.262286550797
93.3079270844045
93.3792267745241
93.3543649333016
93.3124711355811
93.3588672704808
93.3695400168166
93.4135564943153
93.4930618497297
93.5290303191599
93.5712392961567
93.5366602145823
93.5361826523835
93.5905422665801
93.6184091085802
93.6733674922349
93.6964575509684
93.7044360800458
93.6919509047405
93.6440335744708
93.7009659838393
93.7751920325328
93.7790047362066
93.8294363994013
93.8687179396576
93.786444192314
93.746909485226
93.7829179661268
93.871147758025
93.949769090349
93.9875408321068
94.0225651500242
94.0042138468982
94.0342062052967
94.0371914301974
94.0295019553723
94.0979654717757
94.1069827260034
94.0631378479358
94.1081966230112
94.1662980323982
94.1639516660469
94.1656771692236
94.1417062254607
94.1633071597628
94.1850914972065
94.1792432714219
94.1607477864627
94.1626177954611
94.2166242318343
94.2357451884985
94.1938081074995
94.2288941826956
94.2360720917079
94.260880137893
94.3257419736813
94.3039500767674
94.2604882479331
94.2955731495218
94.2651483296055
94.2663445586471
94.3547910174627
94.4190266801759
94.3827001146253
94.3340861511801
94.3458172010212
94.4109756103574
94.4420921002732
94.4950026641718
94.4959773758327
94.4693651694348
94.4509697158738
94.4641936605611
94.4723413307231
94.4913810551029
94.4837061350701
94.4949991559178
94.5497787750687
94.5726004024061
94.5329414293102
94.5576204360384
94.5674136158308
94.5731439816889
94.6588266635647
94.6559371641178
94.5985512246086
94.6017959998189
94.5617930219604
94.5649585746185
94.6032685799451
94.6125395417987
94.6055393092801
94.604251672981
94.5924030333703
94.6117400117726
94.6592966059685
94.7050797958312
94.7097542838082
94.7169632497862
94.6689108624217
94.6552969865513
94.6791203336411
94.7201568835564
94.7316940442579
94.7317100923541
94.7416288254967
94.7452298783054
94.7191077254712
94.710546768671
94.7421061249866
94.780991656924
94.8146087429554
94.8598647147021
94.8392080637459
94.833882686171
94.8349500265463
94.8487729108598
94.8536202755551
94.8312435422764
94.8156491046042
94.8387120840532
94.8390371582692
94.8402743018778
94.8441367255396
94.8490104505318
94.8737998176415
94.8681428487086
94.842052609273
94.8801866153709
94.9041820008499
94.9016485294856
94.9125185941749
94.9406733665977
94.9273369032634
94.9317151786732
94.9543313711908
94.9208364071251
94.8823327376984
94.935293225981
94.9489907380795
94.9030021376357
94.8430380249409
94.8883884153125
94.9515187966449
94.9637661580736
94.9800654436635
94.9908605605151
94.9749427641189
94.9507486217064
94.9435711288116
94.9702675720257
94.9960831432603
95.0607566245185
95.052075349009
95.0295071595214
95.0191324002162
95.0049614598653
95.0100302507465
95.0194149191599
95.0017363040485
95.0306485252243
95.0603168454052
95.047543769944
95.0462658276453
95.0755504406189
95.0474788367238
95.0891853951667
95.1096739940887
95.0106357888465
94.9800515512389
95.0830747182313
95.0767027659273
95.0288193961067
95.0626204927195
95.0514751073313
95.0040745994966
95.0102817613319
95.0236337460599
94.9885133183941
94.9586820592253
94.9829411025316
95.0061121729699
94.9667786694463
94.9303255405307
94.9582577518615
94.9974655052969
94.9984008610853
95.0069823750797
95.032052204423
95.0240696549442
95.0422214229466
95.0769710075188
95.1000301678225
95.0536826204017
94.9869568305528
95.0421990162247
95.1105252483702
95.1247656674828
95.1183112011489
95.1666568011703
95.1818646043156
95.1560392527108
95.1472419049498
95.1192810108241
95.1417943082928
95.218749709527
95.240375597448
95.2645405909399
95.3181544084842
95.2258802781257
95.1751297642222
95.2464831575229
95.2706456087541
95.2240297801447
95.2856694113898
95.3936583369549
95.3777291730535
95.2853424319581
95.3160099245385
95.3584775251344
95.4016407411456
95.4431466452476
95.4124555546119
95.436696397995
95.4202293650462
95.4379994656186
95.410098995564
95.3384221565144
95.3758852434502
95.4306327341243
95.4272003266804
95.3945858005518
95.3811388539241
95.3938914263804
95.4400402852386
95.3637193251896
95.3521658235763
95.4404517511472
95.4765562632555
95.453816148147
95.4790795233961
95.5029863270705
95.5274493711227
95.5651088728149
95.5616184485748
95.495638985684
95.4233305850342
95.3677420648555
95.433257094305
95.415362074745
95.4240393794217
95.4474902451336
95.4500806238905
95.5171101785533
95.5161635941059
95.4875803495913
95.5594208739076
95.5580860928668
95.5704262653828
95.5491158604845
95.49263996066
95.4626850188532
95.5338438526672
95.5612724478602
95.4577066636631
95.4493868247338
95.4745671951441
95.4533009429875
95.4498738717521
95.4609434280339
95.4226599464083
95.4554951344498
95.4709301536708
95.4483405257001
95.4417863152638
95.4726005482763
95.4822270151821
95.4735788712347
95.4240191209404
95.3540359260897
95.4089452371998
95.4880745493112
95.5044911660632
95.468722016464
95.4238517169166
95.4523687488248
95.4675106082678
95.4466536170742
95.418358338933
95.4660339035111
95.4873350832704
95.5104576490056
95.4886462769986
95.4255833118637
95.464954181609
95.4972002828788
95.5233971894443
95.5470254769713
95.5843104998449
95.5355556934717
95.4349148617698
95.4125039024146
95.4509403510845
95.4810420038971
95.5133793382698
95.5351424259702
95.4759980925823
95.4095269961285
95.4081066697222
95.4798659415332
95.5470865590014
95.5364394904301
95.5368100069238
95.545185928606
95.5247596688982
95.5191376958538
95.5678391505407
95.5434708380061
95.4659208193021
95.4188970167122
95.3971532718959
95.4353392049319
95.4660753181076
95.4248060324505
95.4495323828696
95.4408555750095
95.3925857394188
95.4226323595318
95.4234217411469
95.4231217886687
95.4779307339006
95.3517565897812
95.3286430246405
95.5164131237339
95.5734146652268
95.4083876747305
95.3611041530512
95.465150520206
95.4940023106449
95.4626917840552
95.3990918741025
95.4007097815476
95.3664997752085
95.2377058096327
95.1847334546559
95.2051149289446
95.206408410084
95.2145998895984
95.2339102565983
95.1985632129689
95.1501082127402
95.216386318751
95.2297207088737
95.1479186405217
95.1610656962738
95.0717919256647
94.9191807415218
94.8840832294666
94.9140884250806
95.0111539839893
95.0653709830717
94.991733006451
95.0624210001376
95.1644688153202
95.1484736173429
95.1450302068821
95.1417529165487
95.0278758506239
94.9409615188498
95.0040622970557
95.1015395555084
95.0821341559199
95.089445976573
95.0944873458036
95.0101834728478
95.0175578600516
95.0706445796004
95.0662909136182
95.0772808216001
95.1311527975923
95.1596101746347
95.1931232783156
95.2605444170506
95.2406230771726
95.2365187743308
95.2862281011994
95.3151642498637
95.4374192795989
95.5362775640802
95.5632154391646
95.6413240142616
95.6054139249945
95.3967680230743
95.4728638314008
95.5311671019831
95.482219928836
95.614611993151
95.9070273561313
95.9411450760183
95.8709181019293
95.7171386468565
95.7070819689835
95.840623938278
95.9123926524215
95.8963209246499
96.097085142652
96.2668783608324
96.2075549794183
95.9335245387409
95.7407829109653
95.9329850998603
95.9019481499083
95.747214278968
95.8303538709644
96.1040487208923
96.3478949863617
96.3230498546087
96.3832576473735
96.4773271202673
96.4066813512905
96.2019138530273
96.3021547687425
96.5680253278439
96.6199364098983
96.4964295967619
96.6442186440953
96.7147778206904
96.4638353435219
96.5981350596224
96.3794366243242
96.0872416329956
96.3753360884977
96.9408135979888
97.0518501248296
97.1027587929064
96.8136995713848
96.6366119494361
96.8015413618805
96.9670428786057
97.2336495596351
97.171907727433
96.7521912100397
96.8442479696866
96.9913235061974
97.3421232049776
97.7021921256869
97.4419972804282
97.2066937011618
97.0000133623457
96.91961736131
96.9395044913527
97.0641949749645
97.0826885690053
96.8712417360391
96.6098790075871
96.6130846034553
96.6445835791051
96.4743900931087
96.3904624411148
96.4792210032271
96.4048175316451
96.2149759793661
95.9293540173821
95.7658478601555
95.7339419358202
95.7590141975239
95.8226886438657
95.8633459344785
95.6662285945136
95.5868168980854
95.5751526715145
95.6685689286952
95.7275960860032
95.7009788174612
95.7888138793584
95.7424240320488
95.6488490747709
95.7025213639404
95.7985154988787
95.9054345545806
95.8653712206767
95.813788895312
95.7868515319081
95.8012084980514
95.7396448716988
95.7147943706623
95.7150501462987
95.6984179238771
95.616822620762
95.6782618255513
95.7657925032663
95.8922120945611
95.9443412077907
95.9650265579606
95.9689030512141
95.8766900555737
96.054355827436
96.0936969999006
96.0244745165931
96.003282565356
96.0866538777338
96.459588764456
96.4691980996321
96.2497227887165
96.1999609544021
96.4000590096858
96.5381146282502
96.4413246332081
96.4830004344641
96.7456536299451
96.9442953579945
97.1552115247374
97.0411618827584
96.8818707307278
97.178738157132
97.5442873129704
97.5193379458034
97.5606499282182
97.6691920145417
97.8036707475846
97.3571524210552
97.0526405644374
97.3123544738287
97.3514806957189
97.243491484528
97.240199074296
97.224058260102
97.4541903945165
97.3585331037356
97.0895077129993
96.9311006066072
96.8357586134431
96.6898468652726
96.5001140187745
96.7186779312911
97.1163041465389
97.0340982717941
96.6010206739732
96.3741003778834
96.3908124125622
96.318554878097
96.6500866814509
97.0859232058064
97.4388465297765
97.6560753883459
97.547707399105
97.1150252172312
96.8731590839259
97.0381974142813
97.2815752326517
97.0611781930648
96.917078045703
97.0825872949027
96.981142575459
96.5875351211686
96.5809782604729
96.6274967135793
96.5810837916301
96.6059948410725
96.4601209467952
96.2262528492799
96.2592096537403
96.3610039174796
96.3934959702911
96.3023300914882
96.1243426551965
96.1154653723916
96.2410983948848
96.2626429655968
96.2488080501615
96.2464179013091
96.1955755464622
96.0007552971313
95.9473771359465
95.9727153814128
96.0805173020867
96.0618720719372
96.0444600038904
96.0432363487625
95.9743442196907
95.9187116396341
95.968329099158
96.0064636405522
95.9360402830193
95.8463257355176
95.9096221136189
95.8975551950861
95.8782261087095
95.916720733086
95.9003068524906
95.8638636895188
95.8559419044072
95.8022506743226
95.752883392325
95.7557685884972
95.835304803871
95.826928863111
95.7539781218146
95.6362306354771
95.5531640746067
95.561179935995
95.7195905930892
95.7911842696934
95.7854900822679
95.7994269642822
95.7141772092094
95.6148764681808
95.6176194964625
95.6272090921855
95.5961330508764
95.5702473234555
95.6146213253963
95.6456933872114
95.6176780700543
95.6799452986376
95.7591762767373
95.676459439754
95.6007009954748
95.6193461244071
95.6248531470952
95.558870443711
95.5460339041567
95.5866137100504
95.5606070087189
95.6348383629317
95.6884843312181
95.6289044255686
95.5944780184031
95.6343539901661
95.6296566656775
95.5705279626492
95.5188988570526
95.5308426526609
95.5695404549219
95.5122012602075
95.4582537371628
95.4613626718436
95.5531955750032
95.5958499667074
95.5608388652733
95.4430911960943
95.4038461717132
95.4563401515268
95.4751902014481
95.475156297819
95.4807364040153
95.5168873761264
95.5158143917707
95.5421780335015
95.5275562467706
95.4469208656711
95.3447452270119
95.391960072363
95.5368538760766
95.5561861315546
95.5720673393144
95.503070080133
95.4207733325894
95.446827801593
95.4316337852688
95.3784662759405
95.4352777243755
95.3732625218602
95.2937495875184
95.3748169854444
95.4676747837631
95.4156188325734
95.3459457269388
95.3006407911323
95.29821345937
95.3873553339028
95.3094584415864
95.1392861873777
95.3152338234443
95.4081754517364
95.3803213929425
95.3167650056946
95.2301138268965
95.1692673030058
95.1246571051137
94.9588669265002
94.8432348232639
95.0081730939309
95.1992695988665
95.1637417143651
95.0482489190788
94.9507385839849
94.7856152459952
94.7257668394615
94.6672540092461
94.4290630234461
94.589807015076
94.620212391286
94.5428595411343
94.5291041192095
94.3358284491944
94.0946922824772
93.9174497696204
93.6771770830557
93.5256023388032
93.7632900644708
93.6933965833071
93.4930939488912
93.2139336470255
93.0297273341468
92.9901992559468
92.766504684204
92.6307581287734
92.6489905070817
92.4969861714198
92.2302123052729
92.0680053419488
91.984001185707
91.7543411660306
91.3486328289304
90.854114623788
90.7099506282681
90.887855957632
90.46313835334
89.8995868634003
89.6068966205685
89.2753563389936
88.7324256167373
88.1361423740289
87.5379310295401
87.2293002674161
87.6432229040545
87.9168860814474
87.9350459365271
87.9279023257133
88.005937900715
88.0169083107333
88.0168653571471
87.9709280839212
87.653543209182
87.2582683037746
87.2290084954803
87.241154905209
87.133389465561
87.1235204055216
87.3159810416013
87.6978800604778
88.0717849934308
88.50670577015
88.9792738008964
89.3563807460265
89.6445753963015
89.9597001628989
90.2962142164978
90.5601727440287
90.7769186566307
90.9866088062021
91.1519180958664
91.3052513405851
91.4475951780344
91.5342183037696
91.4182022080096
91.4333909537031
91.9121032124411
92.0321577339342
91.8694161438946
91.968398439783
92.1511852260695
92.1661632883843
92.1593401557786
91.8718492609006
91.4893458917676
92.2004840668537
92.6529118546128
92.6348926980525
92.5260258003013
92.4073512388294
92.4214417966337
92.3419269133031
92.2070957250968
92.0876370488249
92.0342538642075
92.5334149479306
92.9065284640102
92.7233828843238
92.5738245228984
92.7296677754424
92.7350730805114
92.6116708540051
92.575336539267
92.6145021097786
92.5167004915409
92.7255526126368
92.8814006430791
92.8936103485182
93.0040094365699
92.935030190697
92.8187034465557
92.6066949672534
92.4658797190662
93.0529383239347
93.3186058968948
93.1271807508517
92.899529361786
92.7602065933025
92.8810291902773
93.0797626667653
93.0014091279501
92.8334476450904
92.8915459244101
93.0365082416182
93.0959435368293
93.0423206716966
92.9855169422193
92.9577583965157
92.857620235159
92.7759441915885
92.7214167016829
92.8980755717823
93.1287430634239
93.0373132251919
92.8228252315079
92.7788238244795
92.8899230970589
92.7791836409393
92.4881422357284
92.4273040660161
92.8436973143202
92.8692409379756
92.7272152061597
92.5591263872131
92.4948177055414
92.5552078749466
92.539851143392
92.4490416699003
92.3472345502149
92.1893922964677
92.1891827929408
92.4239721527387
92.4248732737272
92.3182649260565
92.3039261594549
92.3347369953889
92.2684692468272
92.2437004270034
92.1843573019202
92.0748780752076
92.2887567634062
92.4960779449534
92.5133092883784
92.4660505250834
92.453491843795
92.4739808099161
92.4774843329734
92.5445806347204
92.6694823729921
92.6666297705992
92.6649072627439
92.7764889618214
92.8311263377097
92.9873559491953
93.07549856045
93.0254622252073
92.9993396587505
93.1217667944304
93.215620589783
93.2355045776094
93.2520630034397
93.2721711942548
93.2955452327424
93.2879074115054
93.3855844260202
93.5061354324616
93.5253087918778
93.5448161281632
93.5462817208221
93.4999984418997
93.5546976310447
93.6746779725162
93.7182157896503
93.7183912618095
93.7499510360029
93.7986941865843
93.8211598327402
93.8292969605137
93.8368475545829
93.8286808569563
93.8170658359339
93.8027210542498
93.8372342841818
93.9254452908924
93.9612658686005
93.9552036607797
93.9325087091476
93.9121553763062
93.9120122879574
93.914009702004
93.9270669494561
93.9307858453394
93.9307838771824
93.9539718926825
93.9910961824248
94.013428118809
94.0203277369929
94.0367230996482
94.060685474701
94.0587933269753
94.0404406701594
94.0368705862202
94.0614752834167
94.0752311191545
94.0695860699881
94.0602040675081
94.0492325465876
94.0364890618151
94.0104476136546
94.0079087611874
94.022867682352
94.0227319698935
93.9768833486029
93.937736298568
93.9346588128678
93.9174687164809
93.885946762848
93.8675607427236
93.8471144249559
93.8187295504586
93.7798072732257
93.7229874794047
93.6692627030468
93.643844922404
93.6112902918419
93.5985084310953
93.5714580600902
93.49627130847
93.4181358754337
93.3513325897912
93.2970769769933
93.2381032753087
93.1493581722661
93.0756793123264
93.0041140674356
92.9172886566417
92.8156425501563
92.6849773237264
92.5449704025567
92.4020068522998
92.2455143965389
92.0707943345715
91.8997906101016
91.7353142857823
91.5435807217849
91.321041108396
91.1003846951289
90.8657861895589
90.6140663644519
90.3493728993686
90.0650777482293
89.7620275344693
89.463245985933
89.1519165732393
88.7827751565557
88.395625432655
87.9954063993429
87.596863567861
87.206273742078
86.7942635015314
86.3793941986622
85.9674019631615
85.5656187554723
85.1530031905856
84.7214654108614
84.2691992460836
83.82153964187
83.3815880832513
82.9504299091446
82.5560389784102
82.1718425490996
81.788680217694
81.4038242092615
81.0057257881577
80.619323653299
80.2459530947279
79.8755883494268
79.533570315971
79.1875984356451
78.8518128581055
78.5078250230833
78.1384907690752
77.7668936251639
77.4426450413811
77.1344796080306
76.8076155119648
76.4784760005925
76.1311621378626
75.7872203701265
75.4555249449855
75.155501834217
74.9304890066779
74.7909089040505
74.6868152211368
74.5756549181618
74.4686997677046
74.3723079923643
74.2696130615769
74.1785106125056
74.101937063261
74.0440480052811
73.9869318634819
73.9345989788873
73.9134354921222
73.8873140817829
73.8659549091463
73.8660059509171
73.9034968005539
74.0007697845319
74.1585387798713
74.3908417697267
74.692208437848
75.0126698949809
75.3732800014413
75.7618275008249
76.1720384931494
76.6245395744718
77.074890704851
77.4951323711413
77.9051710957663
78.3018518745389
78.6995668285534
79.1330953242035
79.596148517629
80.0275238952817
80.4639641494972
80.9333494287816
81.4139424336338
81.9099098295844
82.4019427760336
82.8418711932139
83.2843311940267
83.7325487793568
84.1351318127641
84.4957469063433
84.8783871673307
85.2519273618244
85.5646018220458
85.8443283446659
86.1084470439547
86.3380130332406
86.5465490009866
86.7197866839242
86.8999646108403
87.0709187398094
87.2456881069497
87.4049839980981
87.5364310349384
87.6474089746118
87.7331743429871
87.8235230404975
87.9155004983762
87.9699881517066
88.0244110346154
88.1097452040253
88.2148243043706
88.2639932976742
88.3105976875612
88.3414213157527
88.3777043323678
88.4212421142838
88.4817550754335
88.5351415221681
88.572964846678
88.5761721807441
88.4386020747603
88.2502233242418
88.3536707447114
88.7006078728872
89.0182949541066
89.2608845137593
89.4619636870967
89.6274259000125
89.7568281419146
89.8684745389394
89.9833628826327
90.0581369316919
90.1504543370064
90.2707879119873
90.3959520080071
90.5140588423845
90.5953386187863
90.6591571059223
90.7196450104855
90.7711768183663
90.8372641609435
90.9172083724626
91.003947374412
91.075749007861
91.1105967080711
91.1790618207256
91.2522090947662
91.3015106524202
91.3213411995827
91.3649973716355
91.4374839877925
91.4768681251014
91.5009189443013
91.5176814386763
91.5418141347217
91.580572804989
91.6192571989942
91.6810116667239
91.7105219509735
91.7192409717655
91.7588427883409
91.8001815260928
91.8282677501984
91.8696653571542
91.9028485614243
91.9074366133443
91.9065721968358
91.9394147744046
91.970990592039
92.0145651994435
92.068536647511
92.0914249630958
92.0832844545897
92.0662385298967
92.0644855517045
92.1151673243239
92.1714889826764
92.1748017613418
92.1633651077679
92.1737086393745
92.1873776563084
92.2009634033166
92.1867672479704
92.1866238406394
92.1896887849334
92.1829047221385
92.156329023297
92.1379145981664
92.1240833703079
92.0696341930756
92.0274392334846
92.0385421331201
92.0624589196343
92.0830120755
92.0488663297816
91.953900986428
91.9321360113051
91.9495645949053
91.9485171189875
91.9030690155799
91.8619519321966
91.8921371682287
91.9371895987745
91.9639303731137
92.0265774549082
92.0300728518023
92.0337314734208
92.0622753899306
92.0650000098528
92.0382700510354
92.015166251909
91.9547084851057
91.9469891345042
91.9910590933646
91.9928145957938
91.9482068878351
91.9405923053785
91.9376747206544
91.9109816437966
91.8720339058647
91.8362294339954
91.7940326777705
91.7122088310773
91.6579588127838
91.6924649364851
91.7032642521254
91.6383073455538
91.6049579255154
91.5829942878182
91.5267464295073
91.4911562833009
91.5025013762629
91.4709372172095
91.3809764071356
91.3240673228647
91.2984753014718
91.2826288351025
91.2422413053863
91.2086246279908
91.1545834147
91.0698271557643
91.0178382534047
90.9698116883586
90.9111326040668
90.8453209889689
90.7940585493903
90.8014553317244
90.7857660791144
90.6998146486294
90.5960064254534
90.5344020639939
90.4831414299305
90.4128684823859
90.3501521154225
90.2768948518573
90.1818333551937
90.1015052008519
90.0628955964434
89.9880150466198
89.8619238994153
89.7514285698729
89.7047003581267
89.6421904075157
89.510261152187
89.4057149281627
89.3466560917925
89.2365263735114
89.0997488662173
88.9905224790443
88.9037841363214
88.7966214603051
88.6692234118313
88.5122575579364
88.4155362526651
88.3606728393274
88.2298470458754
88.0295447877399
87.871049781813
87.7055272379937
87.609507238968
87.5577000402685
87.4718236662414
87.4093536700208
87.2516023521438
87.0753792537187
86.925136959431
86.7990663446089
86.6704690636619
86.5305276892342
86.4292876343046
86.297224192558
86.0860679921355
85.904872098959
85.7317056541472
85.4797478976071
85.1604216503984
84.8838991807101
84.5616274096985
84.4397046643329
84.2054890013105
83.7826589537894
83.392726940635
83.0546144506075
82.7238960857925
82.4761012686026
82.3181846270667
82.1297717029798
81.9611188348275
