1798
3999.43349933624
650.420452594757
1
128
4
97.8234888056364
97.8545866657747
97.665349110365
97.7074234968102
97.9162096285965
97.9075556479199
97.8055754846462
97.7896926757897
97.898827971494
97.8806584480589
97.7986044162693
97.7992773703714
97.8201270162521
97.8226126710872
97.7949313453579
97.8191848154674
97.8651795519948
97.8221766416082
97.7534982876561
97.8396627309492
97.8830904799004
97.8630757254136
97.8904965181169
97.8811442588128
97.8252241481528
97.8523111273561
97.7872253745866
97.7025166935925
97.7134879452997
97.7656508202577
97.8621430732991
98.0332015542859
98.0321489875119
97.7816597666072
97.6342265824473
97.8472597316734
98.0623978203729
97.8519588810009
97.9429201651374
98.132447410305
97.710350747064
97.5680463981916
97.8018325896535
97.9322658168182
98.0593919853407
98.134604054643
97.9755695039724
97.6994537637197
97.5568922025774
97.6083053453963
97.7508914817936
97.7137458479148
97.9423957743797
98.5696095853974
98.3636821991048
97.7991195576277
97.8004880724266
97.8048701357085
97.6026323792522
97.408179281665
97.3989059661797
97.8171841604918
98.0901130520869
97.9513697770111
97.7982565495405
97.9724687047786
98.3210259798128
98.1455753981475
97.477566394223
97.5840286301532
97.8457721440454
97.9205837276749
98.1140676347656
97.8012062394324
97.6729378199072
97.8056563318914
97.7431644483065
97.9199604513718
98.2137875704539
98.3898182479947
98.4232694807146
98.2717406235857
98.0316245141364
97.7318420983365
97.583983362632
97.680478108817
97.7809740616575
97.9172588906304
98.0535390001458
98.14762226884
98.1364002067574
98.0698159646245
97.8958034800223
97.86075225005
97.8214755131309
97.7388643195307
97.8180557600511
97.8914743953925
98.0216759461164
98.1053140404138
98.0810946623573
97.9920800167585
97.8751450290575
97.8710760342781
97.8437730000613
97.9281671853731
98.0361323089044
98.0077467412546
98.2046677328047
98.3107388817726
98.1042910936668
98.0010999010011
97.9956671765473
97.9018906769678
97.8454223780598
97.8459276302989
97.8886723887233
98.009494177618
97.987048014402
97.9546105721023
97.954324256376
97.8812626117663
97.898822182995
97.9393465017553
97.93817468819
97.9681802264982
98.0466580248605
97.9876231149623
97.8245926791746
97.7740470468513
97.7200078557724
97.5975054150332
97.5100123354166
97.4833637361476
97.6833357707016
98.0907306972087
98.337474469812
98.2804302570303
98.1319249085037
98.0628102164463
98.0256821780166
98.09933662971
98.098623155073
98.0516461240184
98.0841766158249
98.0616400588719
97.968383609022
97.9285748384319
97.9082897044865
97.9970552087477
97.9909807952842
97.9072012558183
97.7380332654133
97.67751584265
97.9091103704435
98.0834119855085
98.0812933862576
98.1524499358856
98.1068967440408
98.1439814382163
98.1697181420516
98.0507678200512
98.0129643438307
97.8551795479989
97.6445446154051
97.7440523244568
98.001805630107
98.1723211400054
98.2020106837693
98.1116695597473
97.8887677266685
97.7174553096739
97.5717190381059
97.5618834730556
97.7797574636653
97.9309816652284
98.1182526913972
98.2752601085145
98.1759212616831
97.9973814238755
97.9216001840068
97.7977048526108
97.6415349529122
97.5605951360836
97.4647849756018
97.3486575691991
97.323885770871
97.5060788433735
97.6788511506469
97.8312025361303
97.937328749333
97.7394280946222
97.4624431593497
97.4045121529606
97.3364041283431
97.1659529668446
97.0294862439379
96.9568235177057
97.1139592681637
97.2735556384277
97.1845347813153
97.0710885324303
96.8787375684099
96.683957824358
96.5427575550015
96.6283936610838
96.7317822893365
96.6604621153143
96.4985700369896
96.3432942482482
96.2822369897021
96.2388798694813
96.1501962040903
96.0876531637226
95.9830510055671
95.8146648819067
95.7412908488943
95.7380278737467
95.5861084710905
95.3378114003332
95.2712039733593
95.2882849287455
95.2453824438228
95.2515023718987
95.1099644656143
94.8682742891391
94.6710592926284
94.511466615817
94.3803040792574
94.3967427226366
94.3674383197472
94.3353675549233
94.3565776377227
94.277366030208
94.0988055037028
93.9034411521052
93.7548524141891
93.6611515102368
93.5568756973955
93.3977165807973
93.2589192778733
93.2368672709388
93.2129134193855
93.1418555110518
92.9926892687498
92.9390521405009
92.9413868495251
92.8824285514284
92.747842807878
92.6406434760836
92.5189929346217
92.3965217096725
92.3649001953389
92.3313876465551
92.1899132879341
92.0567750774756
91.9371140402666
91.7815910217179
91.7460977395781
91.7174638611721
91.5935042450281
91.5167542115361
91.4725572871167
91.4052770989221
91.2525528303693
91.167919512064
91.2412353772655
91.3167510974918
91.2847150899504
91.2274773631134
91.2026776132281
91.1625216021948
91.1809599459318
91.2015280539272
91.1366070951083
91.1004475685138
91.130408211268
91.1488925511976
91.1321919580607
91.1346700591199
91.16609871367
91.1945312777466
91.1576153467024
91.1229761519718
91.0995503257137
91.0491414116127
91.0250315858881
91.0160907991436
91.0859130917521
91.0593420364677
91.0161967591857
90.9957052362481
90.9940859089912
90.9784748554736
90.9039050364723
90.8305143495915
90.6793791113313
90.5898222506033
90.7523690771415
90.8495463625163
90.7603481417572
90.5532065584574
90.3743124680203
90.3313659047521
90.3421555874204
90.3298912193959
90.2636854832822
90.2375379912511
90.1918010922777
90.0648180606703
89.9431355565159
89.8310894998246
89.7310297641915
89.6617717459606
89.5507460370602
89.5406382770827
89.541915540234
89.3879135181858
89.2329661064934
89.1132010292109
89.0106971478581
88.8253489500129
88.6674420166743
88.6987366761757
88.6980795738622
88.5305008459095
88.3515767271494
88.2424093121366
88.1894887421929
88.1367635683457
88.0485630025352
87.8939867241621
87.731015967474
87.6569242622008
87.6043267430146
87.4663960975967
87.4075210022968
87.300146373151
87.2024756294738
87.1949386585122
87.1661931841383
87.0738896497866
87.0113493725519
86.9481702179014
86.840167113465
86.7842392136974
86.7199359599968
86.6918055309441
86.7523997242206
86.7379753011143
86.6999990029376
86.5728661593657
86.4306658724582
86.4265416333879
86.443644035132
86.4460178332792
86.5127127574402
86.5945288441408
86.5925345481698
86.6443907615353
86.7715837779755
86.7827454344685
86.7968239671126
86.9565416332974
87.10873323836
87.1432241492402
87.1259630684624
87.1716186516081
87.3335195427637
87.4046120794986
87.3912005476965
87.4551669272962
87.6372599928453
87.7330786230103
87.7537135920871
87.8589647465934
87.9639576749147
88.0148783825884
88.0890622697923
88.2298415170023
88.323784801792
88.4047107310698
88.4703674913016
88.565020575466
88.6367174695654
88.6756802362249
88.7982756374182
88.9159157069513
88.9939152119148
89.0858479591516
89.1552490593383
89.1633451531611
89.2016409551698
89.3029473058424
89.3337916328898
89.3778451802018
89.5189988126497
89.5882860241833
89.5197025212442
89.4896232599867
89.5368854500717
89.5716824382272
89.6048021144043
89.6294646243472
89.6494753805444
89.5938493223741
89.5950968678825
89.7716896364103
89.8862303907891
89.8468805564213
89.7793185366585
89.8452442035354
89.9557350726838
89.9160868862621
89.8849313197679
89.9298098759616
90.0355955849191
90.1742094725699
90.2341272909843
90.280585443941
90.4004558962442
90.4830976160978
90.478689202596
90.5480901972721
90.6886119378354
90.8061327805699
90.8700415991333
90.8873315664974
90.921849027596
90.991135284809
91.0380888647348
91.1768122881179
91.2588010970374
91.2445775733498
91.3283194038477
91.4087141519908
91.4066593330334
91.4465067426435
91.5504159101263
91.6304936285591
91.64780658374
91.5987316501511
91.6290415863684
91.7742511098619
91.8612735507308
91.8585099051237
91.8928922986549
91.9821811918464
92.0868253361356
92.1695747995101
92.1589741459396
92.1129723582171
92.1930238592691
92.2868548021852
92.3551748127012
92.4072082116758
92.4239252957659
92.4702276347861
92.5607835186585
92.6947798054324
92.8145231077135
92.8608121515049
92.8871018178015
92.9365867216453
92.9960228756395
93.0837750985851
93.1366884526709
93.2045146294994
93.1924642835764
93.1756020557259
93.3260133555725
93.4597645451414
93.4123001900946
93.3951090671766
93.5069632460642
93.6313438508107
93.7263660296562
93.7907112169116
93.8456317762607
93.8882625196039
93.8730203810561
93.8094862170242
93.8750407973218
94.0716214765219
94.0813305254944
94.0530303274249
94.1708322473814
94.2536809743783
94.2874301456487
94.248555405878
94.2393574047476
94.308916599081
94.31612386138
94.3753076201252
94.4764107590642
94.5374037949543
94.612879262965
94.6745669565097
94.6491396195613
94.6804409430508
94.7266380800062
94.6867446574949
94.6810821008175
94.7575805177864
94.8249725596566
94.8347845932262
94.8680212012685
94.9775743786273
94.9951140117373
94.9442426373035
94.957384244106
95.0239985317552
95.0584833171855
95.0968980701016
95.1536687098054
95.1659911944898
95.1672262269364
95.1622699442718
95.1272984927499
95.1731906572945
95.2492673775465
95.2721706800461
95.3349650743665
95.414501472105
95.387115371731
95.3661064097641
95.4317366572701
95.4895521312971
95.5061277404423
95.4713755484463
95.4633306742744
95.5321058770104
95.5564933913297
95.5618621777997
95.5450954399139
95.565737989572
95.6196820208365
95.6841921442202
95.7166115768531
95.695550551816
95.6356122742542
95.6760596553415
95.7771136566444
95.7754305731518
95.7749978703944
95.8044432280837
95.8193218115041
95.8554893279662
95.8921264210875
95.9329183489348
95.9209916647717
95.8819149635136
95.9107317708665
95.9781052435798
95.9750134111389
95.9645515042487
96.0026502053771
96.0372803073851
96.0308246631882
96.069773744305
96.1171853423564
96.0692924542681
96.0181999240232
96.0299570214885
96.0572064529073
96.1099208975232
96.1099780646945
96.1124824176371
96.1842936120769
96.2381641547262
96.2326382156916
96.2023050104382
96.1610092203427
96.1452994971034
96.1448392218569
96.160922784406
96.1887531101382
96.2706700956724
96.3325257284936
96.3128709756936
96.3158794090929
96.3398270586512
96.3664048417934
96.4218766055339
96.4047946868653
96.3684206418403
96.4001452564287
96.4585680797772
96.4674994595098
96.4165911402012
96.3905850126732
96.4131325821103
96.443237170894
96.4783573069587
96.4620199187739
96.4744279841728
96.5455978289877
96.5311477268232
96.4675156212379
96.4786626310917
96.516728376503
96.5710221629515
96.6250320298028
96.6182218938132
96.5265404488411
96.4777595026733
96.5097420491739
96.5575635945765
96.5610679554599
96.5426600709503
96.5417730164161
96.5872511307454
96.6304307021866
96.690277586514
96.7035810884951
96.6510371522477
96.5894215848961
96.6124607840849
96.6702064686688
96.6888845404976
96.6833911538423
96.6617371399404
96.7023044976996
96.720777160766
96.6463512019878
96.5952270177818
96.6118414167813
96.6568973744767
96.6790215190018
96.6963551694053
96.7208734581929
96.7398632383061
96.7580301801641
96.76175123317
96.7252284078825
96.6977664762363
96.6940971359957
96.7513116316004
96.8188917509226
96.7575525299371
96.6687899139221
96.7347606600382
96.8236175452986
96.8379976575511
96.8199571373451
96.7904825981958
96.7606039959394
96.7563532354871
96.8042818076237
96.8487487948621
96.8250236755123
96.7891945385366
96.8121995893559
96.8510229667451
96.8267823382568
96.8260434119049
96.8493512648569
96.875615973338
96.8813726875627
96.8612771389363
96.8392758388276
96.8310686088038
96.8719419484929
96.900666868423
96.8806726766615
96.8821961289328
96.8970973503957
96.9260506141079
96.9328094952395
96.9031410034165
96.8882669560603
96.885026343195
96.8878338421793
96.9299147386002
96.9868485405539
96.983826704585
96.934242697001
96.9105508577038
96.893625452628
96.8921461729243
96.9242062053943
96.9417053038388
96.9244433642904
96.9439095254348
96.9628588737252
96.9504691361917
96.9521898552858
96.9591207777518
96.9538219524461
96.9422269794021
96.9382572240658
96.9646582522343
96.9611633864366
96.9557574726062
96.9725344077816
96.995515351646
96.9975841657261
96.9807342735868
96.9823083588096
96.9955125294675
96.9972458633925
97.0079113530337
97.0024419871603
96.9836309367134
96.9532958715723
96.971773171757
97.0304436661553
97.0449036640364
97.027522456954
97.002839990107
96.9910150383852
96.9997490077769
96.9997764568876
97.0191009724544
97.0329301268613
96.9930008852388
96.9633630304746
96.964449889598
96.9353119488615
96.9250603728443
96.9231199647091
96.9293706400756
96.9247759224187
96.8961664239677
96.858601222142
96.8079289354714
96.8408953451946
96.9043880059571
96.9238787945554
96.9585796488195
96.923706629333
96.8497725774989
96.8451481882947
96.9141449969605
96.989239258097
97.0254899875206
96.9963413867067
96.9559666964822
96.9354187821152
96.9339800426046
96.9893173741301
97.0405068353867
97.045553669904
97.0189613062135
96.9690255403442
96.9800820875833
97.037537118364
97.0563527332961
97.0065960688495
97.0154877654115
97.071661541738
97.1194436370903
97.1301530081497
97.0861472726206
97.104051560286
97.1703965764247
97.1888180632048
97.1484311963906
97.0961186668587
97.1003872534034
97.1591173561874
97.2273248129031
97.223732012221
97.1890790696564
97.2356175936081
97.2904675574354
97.228587141781
97.1690215019223
97.1667763301901
97.1648252264155
97.1537599854951
97.136026861201
97.1430582706588
97.2308176278306
97.2767149428088
97.2727084145836
97.3027747590653
97.3733868911498
97.3968181940982
97.3295884009809
97.2514222674194
97.2103528039132
97.2569432157485
97.3736182120361
97.3321652440348
97.3012704668553
97.3595792187728
97.3229494277485
97.2816347042278
97.2711506472687
97.2664639402112
97.2926994688658
97.3321302132716
97.3753518645397
97.3395673787645
97.3308079875271
97.3685331782973
97.351407967824
97.3560503709551
97.3897334107793
97.4113806499048
97.4199433090952
97.4368427533534
97.4356530044558
97.3483193431159
97.36573211329
97.4129272894218
97.381275053226
97.3555536275175
97.3793915370399
97.3763662341119
97.3402823419297
97.390659576422
97.4540502190267
97.4555545482379
97.4081884099926
97.363758573131
97.3963124360175
97.4590387223206
97.4765543517156
97.4103956842323
97.3421013995582
97.3145748957582
97.3738564455444
97.3567949804709
97.2945354318233
97.3865245629898
97.4198518463324
97.3424065498273
97.3600054699896
97.4114943468672
97.4087081966464
97.4025194630842
97.4126515624228
97.4496595632192
97.479824974279
97.4807622637879
97.4790986201647
97.4304434963813
97.4327236968005
97.484228696086
97.4309618484006
97.3929709281804
97.4127726512397
97.4031621158957
97.407372460966
97.3768236861697
97.3794547917081
97.4059680901392
97.402405538173
97.3889444611028
97.3910206991268
97.3602825270431
97.3433907697581
97.3933799854164
97.4139785759396
97.393478434666
97.4266592555833
97.4869024313677
97.473591317787
97.4240783365095
97.4394058405834
97.4677280054435
97.4535442210916
97.4009462293386
97.3516022273804
97.3500104079145
97.3185959548963
97.2377684364706
97.2464534672071
97.2636705950792
97.1788407458285
97.1093572750965
97.1007193830963
97.1482315421247
97.2488071943362
97.3623267529295
97.4615094413744
97.4096082088868
97.3260875276423
97.4621029383677
97.6418846438326
97.6876549557687
97.6796938592372
97.582564083931
97.4181902952094
97.2337899977526
97.0809320261523
96.9984235645577
97.0304082590991
97.1394049724775
97.2191579859061
97.2428301606198
97.2755296206512
97.2766017851373
97.2366582220769
97.2365543242701
97.214245161226
97.0696903623774
96.9069953295865
96.8887552031836
96.9310715171942
96.9448815162393
96.9599821331828
96.9787339827357
97.0121876664428
97.037001654784
96.9826642136511
96.9230166448097
96.9814928423664
96.9796733704577
96.8958416181824
96.8584122247441
96.9032347820687
96.9985427356728
97.0497108423033
96.9628299508879
96.85304300826
96.7816512627949
96.6933073703886
96.7905149535467
96.9472682187547
96.8829005847098
96.8943329434303
97.0823396525683
97.211941289573
97.1375979855076
97.0445726526045
97.1029948364539
97.1691050724195
97.2811220859108
97.3694476355873
97.3345959278003
97.2668881008944
97.2140354190694
97.3107325911335
97.3938173839633
97.3339073334613
97.3461429000244
97.4908751940486
97.5315211963547
97.4261319636587
97.3993625559011
97.3730830211474
97.3521855577653
97.4240541683801
97.4551327448723
97.5476978969895
97.5712307340635
97.537183632802
97.6361428852723
97.6466883092991
97.5349161285279
97.6101095110193
97.7488213904506
97.803514281095
97.7089814439767
97.5760053115349
97.6420542695348
97.6675267760606
97.6406668283015
97.9597934215064
98.1723640493245
97.9427337449251
97.8421717715826
98.0518113482367
98.1236089943543
97.986558463743
97.929964059367
97.8803483197339
97.7796526057431
97.8682080216615
97.7462810576659
97.6528756625998
98.0535941112522
98.5814450502805
98.7667550270408
98.6587923840734
98.4501238569809
98.2650360721318
97.9589011240553
97.8978142588567
98.0780574146988
97.8942308794335
97.704902100236
97.9609380380522
98.319067481606
98.8698423192821
99.2610166340839
99.1168579400338
99.0396061849737
99.0848545699391
98.9408622841058
98.772295338291
98.7660914626778
98.8630927678613
98.6676709852675
98.2890705590679
98.0913874938554
98.1627575910467
98.0551103076421
97.9097577135641
97.9899214865718
98.0091836305282
97.9014083905759
97.8117309843191
97.7996967581862
97.6947852250746
97.4870604171364
97.4304280199327
97.3602398513042
97.2421730091335
97.1914317423133
97.1923518429859
97.3744970177208
97.5107732946838
97.4784041300314
97.5145759433218
97.448177600633
97.3581284096513
97.325192704212
97.2809676866082
97.4109452457306
97.572081093894
97.6240967055017
97.5578836315731
97.369402923415
97.2971727289651
97.3050463265034
97.3966285376874
97.4855425368284
97.4822982243952
97.5346420381787
97.6723470916551
97.6216271810782
97.5227938549548
97.5966849587067
97.6126138065924
97.5629969266418
97.6518912403599
97.7353667285574
97.5874369882848
97.5583154217253
97.7791987051526
97.9045616190678
97.7220473210738
97.4829925443694
97.5858394189766
97.7032890602211
97.9354698277507
98.0734616032963
97.9952862232878
98.0477579678269
98.0032481092179
98.0247673784971
98.3029806359564
98.5106829052394
98.5661479813733
98.445297862279
98.4027031147995
98.5893280626628
98.7347768206777
98.5657504773267
98.3701605538229
98.4467851963262
98.714049715347
98.7782012693245
98.6566313706841
98.5299276559687
98.3145075642349
98.2445396093697
98.5950021163574
98.6228211149756
98.2700387472793
98.1760037182246
98.2315001151922
98.0930706724009
98.0599764338722
98.2331855764923
98.2094871198247
98.0324497534482
97.898696324725
97.7152990091469
97.7643101072703
98.0582817618572
98.2800737523244
98.4072765903533
98.1501934480426
98.0111508587024
98.2346263375147
98.2701144176875
98.4767751682668
98.4963578046342
98.241866124001
98.2982460505344
98.3974313021673
98.5208821006342
98.5405889391351
98.3547382461578
98.295941632559
98.1773163118083
98.0890647003315
98.0759921028255
98.0827681994343
98.0387155901995
98.013709335458
98.1675516805701
98.0682345727347
97.9193285781517
97.9504362086863
97.9481081147926
97.8833378900661
97.8247984343123
97.8100490605315
97.8155535992028
97.731995692448
97.6102483471999
97.8456406588488
98.0136764544749
97.8982645372263
97.7374033015052
97.6592168699123
97.6387519416672
97.7033719807021
97.749604406923
97.7004753363028
97.7184485958016
97.7155139372318
97.5935880036652
97.5802696550688
97.5602726170578
97.5446779702731
97.6191004321797
97.6233433679959
97.5877108388899
97.5175555978539
97.4532887575837
97.426767474411
97.4294203352535
97.4706532242719
97.4838849637681
97.4971794640865
97.4539642745328
97.3614395746958
97.3855770317114
97.5047574950004
97.4795052678107
97.4066471298803
97.3730835734823
97.3952223653588
97.3962053887614
97.3969240810326
97.3752732320481
97.3359635786395
97.2836338895184
97.2189593748017
97.2567935086163
97.4478876293561
97.4966889034763
97.4737142522504
97.4303736814084
97.3294780247454
97.2407478108087
97.1979987102411
97.2225436242442
97.312103474474
97.3242260057433
97.3907042510491
97.4728476754838
97.449922615614
97.3821925383486
97.3277122269297
97.3394786216944
97.3713166740175
97.332390220622
97.2379446587149
97.2033124406818
97.2280853372051
97.199114383163
97.1451286103233
97.1522295548758
97.1765369450712
97.1598207699333
97.1219784174658
97.14527885031
97.2478541089698
97.3073118017327
97.3159369642857
97.2626242024125
97.2121667329504
97.1956356112494
97.157264095619
97.1446650687889
97.082352505637
96.9737699933252
97.0008953651588
97.2100663105326
97.2965457565647
97.3645231947314
97.2862460681799
97.1465902186265
97.1676567954955
97.1751922700849
97.1086667293904
97.1252511965779
97.0790809854192
96.9812083820878
97.0190032148525
97.1271832245659
97.2286246340921
97.2191984297343
97.1210369496589
96.9708680665456
96.9547638161095
96.9957437530612
96.9187981752382
97.1482121432699
97.29372329916
97.3006146557476
97.2793074763281
97.0700341017653
96.9198087989442
96.8470359596266
96.7364199808443
96.6737044750451
96.9148870516202
97.1192293517801
97.1595527874457
97.0566082456624
96.9001882583148
96.695536040626
96.615243117694
96.6122096565507
96.4774912444452
96.6332564952519
96.8213410973486
96.8617611652329
97.0061649931583
96.7652132048101
96.4996696327934
96.3349827328474
96.138096722671
96.0535219846302
96.3486572109711
96.4239094708728
96.317521129075
96.0487047124743
95.7986456378557
95.8464442901608
95.7721277455471
95.722711145124
95.7810859738456
95.6870268992841
95.5226540170054
95.3610835707774
95.1028327511116
94.7590170402695
94.3838000327345
93.8835819584808
93.8240373068296
94.1926114841994
93.9499809403777
93.5931993710338
93.420550237414
93.1350370248254
92.6755955990817
92.1353718038065
91.5833458123152
91.2918257387462
91.5733588988281
91.6291186724063
91.3843051957605
91.1039148204918
90.9346524327533
90.7146183834837
90.3516930834089
89.9484762864207
89.3163399410501
88.675588450564
88.3229429862171
87.9372100681893
87.4723437490044
87.226076903078
87.2637597658881
87.600742394712
88.0921399481655
88.6656541541796
89.2845312565258
89.9061109012788
90.5035188376459
91.0619549725397
91.5544358645625
91.9841408768749
92.3930921748056
92.7561156528737
93.0497426169137
93.2563918343758
93.428946175186
93.5781403044478
93.6224925046977
93.746655702969
94.2927982429478
94.5033086761206
94.4213737903756
94.5555703323008
94.713347158648
94.6272345505855
94.596397387423
94.3513566811107
94.0267352845814
94.8510743603433
95.4605179004558
95.5343883750337
95.4887151055478
95.2475409774998
95.1748190436428
95.085430757541
94.9104717495293
94.8807656073281
94.9690193929433
95.5650622998769
95.9533250645061
95.8206189543698
95.6609987409627
95.7365096488378
95.6754714220611
95.5175804610253
95.427707580242
95.4353154336467
95.4233323138698
95.6860334785575
95.8951716362854
95.8883626852825
95.9543541650509
95.7986855694175
95.6344499646597
95.5029764681625
95.4578552431763
96.0364102707082
96.334555737492
96.1774707160157
95.9801284566513
95.8462044001047
95.884491651958
96.0534320245824
96.0182533513719
95.8720442181963
95.9442154105995
96.1267616218109
96.2414455033365
96.156048921251
96.0057649008401
95.9325249867157
95.8328978649694
95.7962486547518
95.8583467725223
96.0415234491731
96.2938848884432
96.2463143630542
96.0739791154496
95.9596194543945
96.0023622280134
95.9237678425255
95.733116360849
95.769181146082
96.212140613517
96.3312522220514
96.2583485452074
96.1324197172637
96.034585543899
96.0945903194198
96.0848979482047
96.0201021795002
95.9584220430534
95.8599558112678
95.8598886605796
96.1157859342098
96.1802820570716
96.1178812427725
96.0876362086619
96.0893039208048
95.9999292500431
95.9483147036409
95.9344895632584
95.8338741039979
96.0265221520409
96.2596560577488
96.2816428042836
96.2154319386638
96.1361325524611
96.1325690522156
96.1158922061015
96.0963915018772
96.1238292116573
96.1024538314953
96.0829226330005
96.1545021446641
96.1726647250207
96.2584959003976
96.310307721657
96.2535820287096
96.1885730836727
96.2278555222392
96.3102119942551
96.3076385060164
96.2843615764208
96.2248300270345
96.2166215045362
96.2210607214786
96.2738815624643
96.3395657820767
96.3283787944498
96.3072653446388
96.2708065821592
96.203921603213
96.2435436370201
96.3717327182141
96.4300232623927
96.4256801283763
96.3826109598621
96.3410488404477
96.3290107363001
96.32022570256
96.3065118919358
96.303230827337
96.2927251694242
96.2469264064492
96.2355906198688
96.299634301022
96.3611626713429
96.3873714839285
96.3606875373091
96.3329480693583
96.335043433778
96.3369050652139
96.3038779235943
96.2859891634353
96.3002387669964
96.3017048792008
96.317624872575
96.3155461514286
96.2936571624697
96.3126167695675
96.3279778855481
96.3221097479195
96.3074580357429
96.2847262428366
96.2789630391815
96.277287475879
96.2711165917904
96.2665234757257
96.256416259481
96.2415277105513
96.2405095930013
96.2264600117384
96.2003277691106
96.1931430126277
96.1838280327269
96.1731475411015
96.1489568596947
96.1172287131367
96.1077414199755
96.0855899630455
96.040662347918
95.998179503213
95.9490281314194
95.9104111293031
95.8872844112396
95.8502123589928
95.7942280563171
95.7291180954775
95.6742751452717
95.6134420813242
95.5453272766134
95.46516474042
95.3881727740171
95.3104490568747
95.2207044504152
95.1242882310615
95.0355682474124
94.9485551663801
94.8364275806374
94.7250662950673
94.6382359296779
94.5182914046702
94.3835167240714
94.2690293858159
94.1595202622432
94.0405766148914
93.9064494717798
93.7814494007206
93.6616721425234
93.5184697568687
93.3778691969002
93.2380603121343
93.0701925115855
92.9265690574546
92.805416795381
92.6450007638926
92.4664041277623
92.2966769207664
92.1149915132289
91.9345990025169
91.7606638661786
91.5810306598259
91.3659872670551
91.130579507334
90.9092479217275
90.6920580164751
90.4308507773224
90.1754574158724
89.9526090782119
89.7344820308921
89.4867637131049
89.2379085291979
89.0107659871334
88.7909324526945
88.5736078239771
88.3372386452531
88.0976236899526
87.8774428836829
87.6793683492246
87.5045410980105
87.3048157336165
87.1143232863068
86.9256142084739
86.739657084647
86.5818933073185
86.4121794039706
86.2204501941362
86.0631474510659
85.9199088195895
85.7741932608704
85.6043036706451
85.4498647569171
85.3212843514406
85.1956151952442
85.0818014849455
84.9670156851711
84.8770439870821
84.7993637027331
84.7269853501605
84.6772264488798
84.6189641289089
84.5640588148625
84.5270805220883
84.4933872758639
84.460277570418
84.4336542291285
84.4186052602934
84.4334675340139
84.4659446354032
84.5079503949654
84.5496558276833
84.6163997827226
84.7057288664515
84.827736123216
84.9591334586878
85.0975849296372
85.2406941653748
85.4188576245134
85.5867462679907
85.7433316409537
85.9007038738676
86.0696020196179
86.244818019471
86.4499125558607
86.6797169600129
86.88554111295
87.0641684546776
87.3184473781413
87.6011549769368
87.8502417151253
88.1086493846628
88.3860664690949
88.6728035448302
88.9573468733758
89.2155083646065
89.4484670327654
89.6893895670966
89.9566739165482
90.212320630023
90.4269461760382
90.6047005255725
90.7738898799804
90.9410902098469
91.0838383898694
91.2044447936171
91.3123886972545
91.4053869629533
91.5133592976652
91.6076909363739
91.6549022472549
91.7355672599524
91.8072278367058
91.8585268647983
91.9444299121264
91.9964843021745
92.0321490994947
92.0696978444622
92.1058854646247
92.1592375261971
92.2075208035926
92.2548248620017
92.2846584829712
92.2901146643414
92.3177177630457
92.370121581072
92.4187156198578
92.4746938995744
92.5735694038248
92.6404552421603
92.7055919768072
92.8058079673978
92.9116267261037
93.0007407544535
93.0858259145149
93.1812263146038
93.2601606735242
93.3290655298267
93.435752147287
93.5107978164597
93.5612695370882
93.6088917484448
93.6708609319871
93.722692481719
93.769768703297
93.8538134194982
93.8950128180853
93.8998490945683
93.9408043834988
94.0012759263614
94.0516299759418
94.0762984127474
94.1179384483476
94.1657709593332
94.1775417124061
94.1937351616959
94.2407245722641
94.2627821630537
94.2439234510821
94.2414995068475
94.2768084074491
94.2922917924259
94.3166159660461
94.3390225620301
94.3631215308125
94.4165974068809
94.4408419986866
94.4433911339186
94.4885739473707
94.5127200026464
94.4970884944343
94.5036929532326
94.5198530155272
94.5319592352997
94.5559568857246
94.577528558183
94.606906161974
94.6228594751534
94.6374434278476
94.645554715444
94.6665467862243
94.6714248267117
94.6526860193739
94.6603058205217
94.6749496013802
94.671728113624
94.6810849758739
94.6940057714092
94.6750025450182
94.6834604779465
94.7375618743296
94.7776702181522
94.7597065528078
94.7093718410958
94.694745222253
94.6729251105383
94.7053183091782
94.7534555501834
94.7475051511682
94.7583377488803
94.7602123050797
94.7398703040106
94.7547108610728
94.7464651298213
94.7365027879577
94.727985055204
94.7318442770305
94.7192511276607
94.7120155448466
94.7321142555844
94.7199763183845
94.6981229831101
94.6752281677306
94.6638486466175
94.6963546592382
94.7074288931853
94.6786715910984
94.6896491074871
94.711626466809
94.7030787298898
94.6693417478008
94.6313071032519
94.6296065409249
94.6258205932701
94.6127097356654
94.6081000403395
94.5956507353464
94.5611352232058
94.566209236847
94.5329561960259
94.5075715454314
94.5184363502702
94.519547352924
94.4737708293301
94.438237562873
94.4160538245122
94.3979128423175
94.365723632684
94.3719668729649
94.3727735205665
94.3177865250127
94.2500040298382
94.2425197974453
94.2324487735236
94.1631717702632
94.1418692935623
94.1629417449449
94.1162175230421
94.06746024226
94.0526979915419
94.0289798258906
93.9893838315284
93.9402427368467
93.8683167351294
93.8260176350149
93.7906256273431
93.6982821670266
93.6423512380158
93.6041655772794
93.5371425368919
93.4951000970404
93.4697812193391
93.4189409407318
93.3746269938228
93.2882418904962
93.1792412101107
93.1251843254607
93.0856226657462
92.9985017819778
92.8679636074791
92.7343795379516
92.6396552478126
92.5434249331553
92.4314508011532
92.2791400024225
92.148882875026
92.0413956774436
91.913418195781
91.8067372660353
91.6637867082466
91.5154941024053
91.3597699784337
91.1798045038289
91.0360588713496
90.9378648240924
90.7860341392631
90.6575686437683
90.523332878415
90.3947871542135
90.2318665398822
90.0649449304301
89.9473503714843
89.840473979548
89.7108844627514
89.5715689078345
89.4305783746643
89.3377196684406
89.155718476213
88.9607624477945
88.8122260477902
88.6395239675959
88.4704969870534
88.2751019688331
88.0304584037045
87.6781344777124
87.3548493718754
87.4644456903587
87.2552694681659
86.8910110457303
86.6527965514676
86.4038758033385
86.137389546787
85.9095502644623
85.7115222110811
85.5027748202711
85.3128076523883
