1798
3999.43349933624
650.420452594757
1
128
4
95.8709095772229
95.9010473271148
95.9316886048279
95.8257561677604
95.811048485953
95.9030474402222
95.8515103823267
95.8822343406301
95.9209786298039
95.884677891939
95.8903551417573
95.8903393591164
95.8323905108782
95.8738955233086
95.9910013614248
95.9890023543052
95.8972670465228
95.9120018452716
95.9142286393726
95.8232894167314
95.7562718303497
95.8302556479728
95.8769516796105
95.8343795756373
95.8127058176453
95.8472279595311
95.8134067738632
95.8242061268583
95.9377708605342
95.9449275241049
95.9314303899893
95.8937574777798
95.8108834815089
95.8223014925054
95.9521975813875
95.983696197056
95.869845412665
95.9083199254112
95.9469826452364
95.9589072973608
95.9349379645843
95.9000084183542
95.9471494810279
95.9527358937517
95.9460114219134
95.9589169506877
95.9122177909841
95.8590237174159
95.8317323173447
95.8442987093809
95.7633926557648
95.7633497180332
95.947872746651
96.0753489714774
96.0758748471686
96.0650348924788
96.0545158240672
96.0702128333647
95.991910012176
95.9197971342741
95.9816328621306
95.9645773416843
95.9328339474459
95.9717667931992
95.8633267286051
95.8840562675816
96.0558224120868
96.0614089979348
95.9588899331731
96.0091332163998
95.9930131186088
95.9756693424076
95.9952645396223
96.0186784407826
95.9511299208141
95.9398655449984
95.9737393735856
95.8871436921468
95.875726453038
95.9594382996969
95.9657717712332
95.998734321072
96.0446163082174
96.0157955736014
95.9831480678986
95.9797712399129
95.9789138243374
96.0260205411887
96.0802032850551
96.1468615038652
96.1236248508276
95.9784475862433
95.8734556464971
95.9313644007606
95.961673741077
95.9814609606661
96.0104086209499
96.1237262445492
96.081433456571
96.0265681156936
96.0691275544376
96.0349814512974
95.9772531120044
96.0022603637144
95.9404882678909
95.8244593788369
95.9247585955696
96.0452941265163
96.0486988716799
96.0793779815343
96.0252654593418
96.0250549342616
96.0218950547971
96.0307037406103
96.0670770881982
95.9926257861117
96.0052375011429
96.0514861957714
96.0527539317881
96.010997286991
95.9920332883262
96.0537607872939
96.0832869778433
96.0748401519787
96.0364210373477
95.9717656066164
95.9143037131273
95.9841792600208
96.0823720896621
96.0716265607419
95.9143390110866
95.9156046786478
96.0375890770679
96.051206038831
95.9712505404345
96.0188902582896
96.0293443551785
95.9473288387013
96.0260539847263
96.0530605958207
96.0278361866893
95.9596536156651
95.8949866410851
96.1623933196339
96.3328833262048
96.2184470526531
96.1105744704697
96.0512340151297
95.9612743423464
95.9889249226888
96.0315123507647
96.0599508658279
96.001253210017
95.9279534565722
95.9898505621134
96.0524449715138
96.1041961740319
95.9790372626113
95.9544583678756
96.0378924890749
96.0664303986384
96.0589483009812
95.9514904642466
95.9994651631513
96.1071359862169
96.0096852094162
95.839466385084
95.831204474811
95.8889634427202
95.8904563522852
95.9791206150415
96.0847201895972
95.9749270631806
95.897742044857
95.785077159866
95.6116708465767
95.69095264835
95.9049845043534
95.9435138752396
95.8685553500496
95.746512526253
95.6227476121901
95.5114723653108
95.5300637530252
95.5965462956549
95.4891470254363
95.269702438058
95.2470648617696
95.406256446362
95.5104562895804
95.4371052234528
95.2441304136592
95.0609067967238
95.0913634415188
95.0507968674686
94.8843758999671
94.7994349007256
94.6738627023829
94.6281394552132
94.7843746699455
94.598620857837
94.3286518914626
94.1852237793415
94.2433211246489
94.1565397974932
94.0720324213524
94.0283041920523
93.9659745421439
93.7565781595525
93.6064131020419
93.5357391965317
93.3982948650462
93.234116157716
93.1218825960328
92.9809071610651
92.7804058298708
92.6468429935705
92.6427181340951
92.4322304807929
92.2042450520371
92.098201189738
92.059867844137
91.9358530086486
91.8150093551529
91.6755115424058
91.5816852410598
91.4928529147687
91.4053085941327
91.2052588404003
90.9371774034784
90.6360515653857
90.6479404373259
90.7987178907764
90.7154678039114
90.470237145821
90.3323426476052
90.2579782746207
90.1224287434089
89.8855844593479
89.6860176406622
89.5123085794317
89.4191645639027
89.3767976822929
89.2759311582311
89.3262417544427
89.3745699003906
89.1577184226039
88.7735179698101
88.5376139879234
88.550238320881
88.5821143709487
88.4188119112378
88.2619665632665
88.2321284494666
88.2151722900256
88.0311617064434
87.7925710389779
87.8111609238878
87.7828798143991
87.6220160250488
87.4609093603104
87.2908851330024
87.229443612493
87.2909900239644
87.2167189329827
87.0520621924136
86.9941744467753
86.9906297762667
86.882736489404
86.936657701855
86.949457435108
86.8020113335888
86.6814776285243
86.7074593172822
86.6496320950279
86.6371772367006
86.671018887136
86.6926386954666
86.6454772453118
86.5823159971834
86.4849087047819
86.4942189256585
86.415847749583
86.3932632608356
86.4353229842454
86.3717212687969
86.2231471780234
86.1660933420107
86.2112702739317
86.1669642230763
86.0056788466672
85.9385021741901
85.9622145902567
86.01140345393
85.9306796393695
85.8775406018342
85.746658721914
85.5880940053589
85.4761116370827
85.3904435914811
85.2760381887351
85.1905174124036
85.1584602439469
85.1027950005496
84.9849458156857
84.8361493118366
84.7682440957843
84.8044779429882
84.6787716689747
84.4417895874564
84.3746952164967
84.4062319209897
84.3272098896667
84.1676861517701
83.9978969479524
83.8923961876221
83.8224437111654
83.7798967613171
83.6051327508644
83.4325042476927
83.2383270513268
83.0639572929356
82.9614189916305
82.9867430189648
82.8199156331266
82.6936986029572
82.6032412753678
82.4288561558516
82.242772654239
82.1499814758218
82.1334872252052
82.1440475918169
81.9263852594222
81.6663332402948
81.5953056277636
81.6605538797654
81.6740177608899
81.5196099987706
81.3147017642216
81.2695732180335
81.3202972997086
81.3481667662633
81.2395084482508
81.1471308927792
81.0950078423435
81.0711303868761
80.9601500406915
80.8658817061229
80.7690496597781
80.8375727240228
80.926316335402
80.8974541544544
80.8420857896797
80.8189951150421
80.7599021381235
80.8056014632659
80.7810914877093
80.7650516484644
80.8246365916298
80.9732327036446
81.0186229549642
81.1065027451498
81.2504738968949
81.3072350162491
81.3001114291368
81.3572385993346
81.4621134176495
81.5514291613145
81.5851838159131
81.6261766841287
81.7269708830524
81.752181962533
81.8067350149629
81.9767843747203
82.1201462552286
82.1756062828601
82.1538578379201
82.2854043868394
82.417296572633
82.4577440209536
82.5432528215891
82.6874877359735
82.8849337590442
82.9661260310598
82.9357644700961
83.0341023054693
83.1070983295256
83.0999319217886
83.1318942607897
83.3024349825347
83.3360529447966
83.3943672301658
83.4992291772821
83.5003268995099
83.6111053586925
83.6911986959673
83.6906638950599
83.7746269464955
83.8040292363832
83.801580679927
83.7854713711368
83.7988859327252
83.7605692827034
83.7335623168365
83.6802547279821
83.7365347008282
83.8367149190742
83.8742102990977
83.8740806125682
83.9071505642864
84.0276772885427
84.1105614178146
84.0988986230234
84.1390839874414
84.2128818687918
84.378338391122
84.4444269978308
84.4836927492656
84.4494157172934
84.5203116647395
84.6828990515814
84.8135342585292
84.8483793517794
84.9892878485357
85.1141772574086
85.251975278489
85.3017102036495
85.3424204277843
85.4224220973737
85.4947616689397
85.4997855740663
85.5736309273046
85.7131482719316
85.7907666223913
85.7496036022555
85.8296582520379
85.9437560159651
86.0393138678491
86.0772420986579
86.0775682117491
86.2198156213404
86.3666186735367
86.3649076344436
86.4846309743235
86.5699064935296
86.5526259262347
86.6333073761855
86.7881444228211
86.8920058320202
86.9644334978203
86.9618782261453
87.0514357027315
87.1656383177529
87.2533454987298
87.3345593050592
87.4411146518936
87.5395312039762
87.6141317937657
87.6790999622324
87.8059601210907
87.8935923334188
87.9473619874112
88.0044120066416
88.1155543374364
88.2439192649591
88.3944129193248
88.4018863798886
88.4315936946819
88.5407965691017
88.6715098703854
88.7832711020188
88.8618905420302
88.8796477467164
88.8670078825036
88.9154829682956
89.105885650484
89.1999098750886
89.3161438428375
89.4173913821895
89.4511969680325
89.467270019055
89.5020310628104
89.5858265426462
89.663310605165
89.6986439223488
89.8228858670095
89.8628623684232
89.9133324189804
90.025381989419
90.1243289176643
90.1368878400951
90.1408453354313
90.2500047236779
90.3483965015106
90.4305937944337
90.5018884696999
90.5496634887198
90.6084239530073
90.6706833426098
90.7559415486878
90.8037469080029
90.7989142940404
90.8627468547375
90.9723425565575
91.0082624484479
91.0302197188452
91.0647799184129
91.1497570442695
91.2063235689833
91.2575802538029
91.3005452241862
91.3449862779037
91.4033169217755
91.4409145320061
91.4838543172902
91.5998467236888
91.6632539560215
91.6544367874839
91.6684677954537
91.7223412743891
91.7946490840772
91.8426042692337
91.8711471240374
91.9648804290163
92.0261585679587
92.0612891561338
92.1343958682309
92.1758614190426
92.1222572730393
92.1389885338885
92.2479845436628
92.3186196795225
92.351876727361
92.36336201186
92.3720034930324
92.4420667702796
92.4395283315088
92.4344389657751
92.5271846170793
92.6460770238296
92.6453623521896
92.614787957784
92.666008448953
92.7493770182695
92.7484788346802
92.7683778697985
92.7816369405535
92.8495150120075
92.9185062144047
92.9341817793196
92.9624580866157
92.9964087490961
93.0063111365737
93.0458958376665
93.0575103627684
93.0693757942943
93.1143684341208
93.1604553369687
93.1697977325146
93.2000832184461
93.216763748339
93.2716050586583
93.3267108420245
93.2766968910431
93.2243052980423
93.2532115298207
93.3934864401583
93.4598923241279
93.4323427877868
93.4444821106777
93.4965037622893
93.5142264714658
93.4773096610455
93.5654897919987
93.6361389056039
93.6714386604569
93.668648181252
93.6579546268104
93.676611192801
93.7122292857868
93.7563220708916
93.7455301707456
93.7442450419861
93.8406140096235
93.9381032096047
93.8844359543881
93.8565234034333
93.8869608071811
93.8490160262316
93.8683256745287
93.8966023401779
93.8913947933132
93.8682984084046
93.9475825314008
94.0293860171197
94.0701435158993
94.0646039619105
94.0221394263722
93.9988053703243
94.0074132542423
94.023730687558
94.0821238675774
94.1603980826576
94.2082599982317
94.2018824772244
94.1630997240302
94.1824125371328
94.2180838743743
94.2403211601632
94.2141555110757
94.2111045722888
94.2407097767719
94.3028626829498
94.3889570660259
94.3702686887892
94.3129474842041
94.3067831205555
94.3445101940692
94.3654898715888
94.3426359667729
94.3200349155704
94.3547609077256
94.4219213012046
94.4710527010527
94.4433700212353
94.4100882703299
94.4436459278765
94.4869264235613
94.46076821477
94.4536714376518
94.4742446267472
94.4833431202541
94.4739186899968
94.5255467962857
94.5599876833693
94.5397654332547
94.5581409483292
94.561065059166
94.535981649081
94.5538877292303
94.5734248698421
94.5694458686576
94.5671879381232
94.5472288538039
94.5432804493877
94.5800658176076
94.6395080748003
94.665342766662
94.6450311503004
94.6792597987331
94.6938588817739
94.7166979090998
94.7546870210353
94.7385954741123
94.7045698068305
94.7231209707578
94.7521225950837
94.7322449278059
94.6761177557567
94.6850184301711
94.7503064644799
94.7721435377461
94.7290209651399
94.7668879573362
94.8180457675196
94.8314293235313
94.8292219992485
94.7943433274363
94.7619087718474
94.7849853776334
94.800998472265
94.8121247836685
94.8442184720771
94.8728957557046
94.9170993811241
94.8898926241273
94.8807294637077
94.8878290416207
94.8697380442865
94.8984968379987
94.9034778973499
94.9014560911888
94.8894856502508
94.8931514295544
94.9115820371756
94.9408804782288
94.928880013492
94.9247044855553
94.9248310153571
94.916726976737
94.9068012765536
94.9184974789362
94.9673957149543
94.9991573109263
94.957898712757
94.9550231351422
95.0028347027658
95.0453527190021
95.0425642194556
95.0081875779849
94.9868561565956
94.9756170194159
94.9782228039587
94.9786421426536
94.9458739193084
94.9618193330355
94.9927159402102
95.0302743985957
95.0816352123678
95.0469413547744
95.0328371352966
95.0597779032104
95.0772427184699
95.0790402841685
95.1225023913001
95.1587144021734
95.1132187187779
95.0568704169386
94.9652814067672
94.9520611317288
94.957615260885
94.9284168974313
94.9526716163531
95.0345681749355
95.0515230191688
94.9624624709804
94.9068939618261
94.9565226281029
94.990245760854
95.0070300467855
95.0103446814328
95.0124976321946
94.996162095654
95.038305249303
95.0639287509745
95.0724879571982
95.0715895471639
95.0423199189175
95.0730947331901
95.1873318287704
95.2262325420424
95.1415724062741
95.0797266458924
95.1457635743515
95.249074292224
95.2509411747748
95.2313848994773
95.2040714624362
95.181592248778
95.2088989806858
95.2516858684436
95.2476890517319
95.2460705916982
95.235522509841
95.2277368193598
95.2888184851482
95.3501738357864
95.3318136100832
95.3373424723546
95.3519657378686
95.3274827426362
95.3347259533923
95.2915214100457
95.3223129390743
95.3588108881753
95.4218156464445
95.454355112982
95.3541435921288
95.3407690050642
95.4266224748522
95.4436235759527
95.3758042283489
95.3350490411567
95.4099000930513
95.4328097844311
95.3832840311104
95.3957247939126
95.4375901992248
95.4835974541274
95.4721038558245
95.4157913879778
95.3512064347982
95.4619570754827
95.5573118028036
95.4665642592797
95.4133828271675
95.4243532184024
95.4212076507132
95.4395722141593
95.455918623833
95.511441354874
95.5494090529221
95.4935505314284
95.3893606878132
95.3626298303645
95.4327953360432
95.6034491132179
95.694441685639
95.5904329894153
95.478892501705
95.384624332475
95.4022569393184
95.5347295662604
95.5657896632184
95.5201484407967
95.4751486139276
95.4009451371679
95.5017454817102
95.5821961715364
95.513178239394
95.4912671274257
95.5471668058489
95.535727634809
95.5445807146921
95.6129297656438
95.5518365657043
95.5249246449554
95.5220728441426
95.4494864292355
95.4239456381422
95.465250348009
95.4586409252847
95.5380069919415
95.6537919406218
95.6723156365409
95.6251997294174
95.5812753938504
95.4700838328288
95.3724192322176
95.3934245713068
95.3968030039741
95.3955158626116
95.3788570460668
95.4367513704889
95.4563503008903
95.3945816552128
95.4013312899167
95.4404834633973
95.4438189625463
95.4453857151186
95.4792234499087
95.4783269362661
95.4690152244963
95.4920398417304
95.4816269941378
95.4891832844412
95.4956232891589
95.5744710758936
95.5422082115397
95.4052660145667
95.3698640197509
95.4302627517328
95.4911372995926
95.4550241499369
95.4172692269403
95.4239481894491
95.4409751945304
95.4329626399407
95.4027169578079
95.3962476927788
95.4316439915917
95.4525052415336
95.4002126806128
95.4171275619441
95.4351361295852
95.3888858069564
95.3891173927259
95.3910293458847
95.3751627405952
95.3479854821609
95.3441091576831
95.3390903138752
95.2354426407703
95.1924788418319
95.2926303800656
95.4321686440765
95.440065855147
95.2793940443659
95.2506684411542
95.3871895529894
95.3645569927583
95.2713051667034
95.2829346889237
95.2971717225141
95.3095718033957
95.2205100505253
95.1234614679063
95.0847154404326
95.0158831071729
94.9929782883182
95.0477565947239
95.0641649049184
95.0649216907006
95.1273792656333
95.1990224659682
95.2037391443257
95.10334122425
94.964721713192
94.7931421570499
94.6456322656424
94.688814643754
94.7843720416474
94.8189008480009
94.8617329548267
94.8627190023291
94.8677030021054
94.9638800245269
94.9594818534545
94.9255894005341
94.9124851431116
94.9370604743291
94.984809384636
94.9035060894567
94.8030401513383
94.8962705273113
94.9764955864559
94.9449169049406
94.8378138804511
94.7323314598583
94.8011994584814
94.9269337674811
94.9850884461815
95.0441465675079
95.0527528654414
95.0052674755494
95.1446206287982
95.2394853893395
95.2262740484012
95.2258092487697
95.2808379868897
95.3064019731891
95.2822085886349
95.4185469768859
95.4556393481547
95.4129173107437
95.38289588331
95.4279102638078
95.518710286437
95.4313261342433
95.446678290452
95.6951491799107
95.7398825067255
95.5453780735287
95.7788003128797
95.9196768256759
95.5516897462824
95.519620274399
95.7073582731945
95.8640154624907
95.9342875719712
95.9032536512961
95.9295350832713
96.0458399390863
96.1538397327611
96.3815174634451
96.2604217723584
96.0420196021725
95.9735324212432
95.9505096503904
96.0955231591378
96.3007778216756
96.5196065198154
96.3583747831203
96.016451913325
95.9329085353005
96.063007670484
96.1394135229771
96.480011828901
96.599593254071
96.3602149407592
96.5270768986174
96.6142385742187
96.4734820106827
96.4350894763032
96.3614742704311
96.4199380527377
96.8028721303355
96.9197877350628
96.8011869126797
96.6124307998632
96.5309808011649
96.8715607728967
96.956304230849
96.7582311678257
96.4907947081211
96.6670883277477
97.0720018515753
97.3993632949313
97.6879140423279
97.6120436139327
97.4383467212592
97.5244662913071
97.619620089536
97.0574113025885
96.587728875989
96.6218485265117
96.7193611829369
96.449431127566
96.4650418741598
96.7120068440228
96.6653412203924
96.4377270891381
96.2094991480398
96.0338967741389
96.152027860096
96.2673058689569
96.0281515148419
95.8275069349356
95.8447276544636
95.9173910546127
95.6938531355057
95.6280072778186
95.6503086156041
95.6523511978309
95.5479601671287
95.5004428753047
95.6287646761378
95.6912800979705
95.6422779404355
95.4622249745371
95.4826260133662
95.6526279814637
95.7255313958367
95.7791817826033
95.8771219580737
95.9363639477049
95.7594788885127
95.6809978009936
95.6418551034979
95.4753825398906
95.6453840379679
95.6965581604961
95.5884817871009
95.679425491398
95.967404121222
96.1627467144513
96.1457318747079
95.98727624067
95.9334062334602
95.9801938585587
96.168830046061
96.2648054230978
96.234492102521
96.1335137951933
96.2160556329239
96.3594676456545
96.172484256434
96.1975188120075
96.4867269481336
96.5758436870267
96.8777706636032
97.0094144867794
96.7694137295961
96.788804806849
96.7612284441943
96.9504316799961
97.1090221608524
97.1311641839687
97.356199611834
97.2697856616055
97.2869725708262
97.1446215999334
96.9019310310523
96.8289874486786
97.0259480812579
97.224298738875
97.3137241431937
97.0626959019792
96.9873401325389
97.3752850471109
97.3960103011021
97.1696344035715
97.1423546973352
96.9717718516907
96.7990200951508
96.4074088097103
96.2194369116846
96.4032719252504
96.5486062962766
96.2702665110182
96.3201506836361
96.3489114983711
96.5178194544636
96.6299844991941
96.506208330868
96.7297975889471
97.0159867830868
97.1922158225295
97.0744732589176
96.8368780767382
96.9258156881248
96.8316622870583
96.7692176675036
96.8886689522548
96.8992250861729
96.8726962773486
96.8685228448843
96.7232155914392
96.6275738856819
96.4669186305495
96.490838384344
96.4521509973855
96.3918226213268
96.337194959275
96.3690255979674
96.4039944215606
96.303381199696
96.1558217756048
96.1031944344847
96.1582851951777
96.1185797679286
95.9679595210296
95.9651104268288
96.0522684458326
96.1107245937172
96.0643203150919
95.9399892518141
95.8941503993285
95.8440366212594
95.8163610326539
95.7456914795578
95.6592348873416
95.8221880862259
95.9529824892298
95.9385011363353
95.8885227131909
95.8427588839725
95.8748320628027
95.8721889566081
95.8352526242571
95.7762067668478
95.6833978066487
95.7584224261572
95.8552933651039
95.7924418620495
95.697968735504
95.7024201767912
95.6547235804102
95.5494007988335
95.5572445864313
95.6271627519606
95.615074628106
95.6225644602126
95.6564513808328
95.7536832121439
95.7313768078132
95.662168305377
95.6164596039191
95.5637949240349
95.4876954411908
95.5166416608886
95.5337402858073
95.5431918219199
95.5734970025736
95.5985420818619
95.6020525698254
95.5355202091826
95.5716898708264
95.6139786000292
95.5514060195853
95.5039076623339
95.5215963472879
95.527553573508
95.4737911822818
95.4640714430582
95.488306123614
95.4803678132088
95.464693945385
95.4396265175473
95.467371012622
95.5558848972145
95.5982357260159
95.5235510982156
95.3960672248757
95.3696804070224
95.4048088971383
95.4385137044818
95.4163291793931
95.3606581355734
95.3289379483195
95.341213834108
95.3752018317376
95.3976373842588
95.3560831078006
95.2869720016386
95.3398952994454
95.4307285695988
95.4065552002304
95.3572321979329
95.3367833688363
95.2921478364345
95.3419355466587
95.3857674237894
95.3245894958357
95.2053432654437
95.248087348137
95.4333699687477
95.4673904625972
95.4261982029843
95.3393396541546
95.2724444578451
95.2928600348738
95.2813585051309
95.2433946227015
95.2632596443736
95.1590360921697
95.0969240073752
95.1949114418884
95.3134374863582
95.3062606392878
95.2343404679566
95.1778192994929
95.1559519518559
95.1560702611024
95.0278966834405
94.870350762987
95.1276345168201
95.1795502191162
95.0945498891399
95.037249432354
94.9548195865992
94.9099609672597
94.8850275230815
94.7291155882029
94.6589359038115
94.7562884311109
94.831060481098
94.7925621406009
94.7120298660758
94.5882367362571
94.4921558719862
94.4940780424804
94.3555927391555
94.1232665331152
94.2361234314842
94.2011095220515
94.1574438450593
94.1254901141695
93.9372048681627
93.7521428723431
93.5720967508535
93.2533357945713
93.1351452904124
93.3094594500415
93.1966875739824
92.9192231840497
92.5787284586793
92.4338111775979
92.3491822191236
92.1091215840998
91.9844147196403
91.9669727718573
91.7606763026013
91.4215151989026
91.2494081167651
91.1355892554961
90.9338010065707
90.5704557672376
90.1038795368886
90.1788561533934
90.2441924618178
89.6885156783192
89.2558534489677
89.083614378009
88.6628211859309
88.0884171127552
87.5256033097064
86.9079246788905
86.728929635398
87.2511339929139
87.377524384546
87.2880500393623
87.3159843386989
87.3739649875571
87.2225686083567
87.0815951186773
86.8406729519733
86.2877479619018
85.7900817134271
85.5998161459637
85.3357598141053
85.0390050313708
84.9637197360463
85.2178926385791
85.6570423160997
86.099660392473
86.6558535853261
87.2903086003005
87.8556656513749
88.3535664913324
88.8256690647365
89.2476323174564
89.6199239105017
89.956283121343
90.2669367938064
90.533724392923
90.7800462183775
91.0050749820399
91.1581170289918
91.1139498341905
91.2337185437547
91.7895241761373
91.9071305469493
91.7735163969718
91.9260092136833
92.1377880180144
92.1887380333577
92.2375372412764
91.969719806904
91.6445258736618
92.4116924151631
92.8028060809915
92.7841732882697
92.7499908681659
92.6963269911422
92.7654860118198
92.7122074276558
92.6500193803231
92.6118700748638
92.6148859455897
93.1106040676319
93.3921712327948
93.1955415713169
93.1009219231224
93.2377543644559
93.2550873045433
93.1945216379835
93.2346381274904
93.2947207215703
93.2378104247688
93.4170287722627
93.5479981888151
93.5638726430896
93.6247125996887
93.5832594256169
93.5383296098395
93.3732519307137
93.2316397754849
93.7593329063686
94.0125093039236
93.8561244698635
93.6909325466587
93.6117752690381
93.6967381312202
93.8340121020303
93.786577017689
93.6762966378335
93.7346003777892
93.8705770792074
93.9305455764115
93.8669362199797
93.823181874188
93.8045277911191
93.7404142754503
93.6942721365413
93.636164412358
93.7654530898806
93.9708581443732
93.8988009880415
93.7325811399288
93.7091479719639
93.7981877368864
93.7066640537558
93.5138583748853
93.5401827048954
93.8585060423395
93.8691315593492
93.7673579165828
93.6408029920842
93.6303705808515
93.6736518621558
93.6482418189483
93.6073003492968
93.5697163723064
93.4507398578218
93.4730156925298
93.6697066761044
93.6686069294271
93.5892889624518
93.5753335743763
93.6064385718244
93.5496237048846
93.5531155851888
93.5350936923792
93.4867624417356
93.6316536985632
93.7430441750181
93.7554570622799
93.7169594010749
93.7086720115305
93.7164351824126
93.7068654863243
93.7417466530267
93.8179008895898
93.7792727601786
93.7560818246734
93.8111204893598
93.8225939808541
93.9248950205097
93.9925340101489
93.9276889220518
93.8658737829342
93.9182250574924
93.9610817519817
93.9689526001209
93.9768969985135
93.9649177393054
93.950444938619
93.9441941929544
94.0041141017255
94.0456451759002
94.0323640099884
94.057271505192
94.0603863454983
93.999291231978
94.0477438762808
94.1283780526915
94.13135923623
94.0859199914296
94.0678295309046
94.083865794858
94.0983745842597
94.108340406525
94.1078900395828
94.1055425063333
94.0889229680128
94.0673453796057
94.0727387878499
94.1060160568323
94.1215006172363
94.1039282730514
94.103565413375
94.1037037579327
94.107222431211
94.100419372431
94.0914613058771
94.0889365254637
94.0821714610481
94.0924679558463
94.1146114615089
94.1259926339244
94.1270283912143
94.1185408343393
94.104271073501
94.1092187570565
94.1231595675078
94.1211024853878
94.1083666850349
94.0946501028651
94.0952210804399
94.0856752402695
94.0689601048851
94.0615431346024
94.056466884191
94.0300687629705
94.0196236134558
94.0129957620394
94.0049653820281
93.986624315534
93.9667907822026
93.9444135253321
93.9130781597393
93.884596106565
93.8625666981918
93.8266943370315
93.775603325084
93.7355941893834
93.7120865194955
93.6798994134448
93.6345194978107
93.5775172192872
93.5006846330047
93.4286187207821
93.3685362277221
93.2968088946281
93.2078219752965
93.1112947611769
93.0115128535347
92.8889891198718
92.7679569652763
92.6420134840012
92.5017679351206
92.3521603229353
92.2062896985719
92.0518071070507
91.9024286230817
91.738090022978
91.5516830022397
91.3795603707059
91.2088859244981
91.0237031247909
90.824361463632
90.6301417406455
90.4353220775198
90.2143891508746
89.9945043396777
89.7679354670653
89.5316816425605
89.3072843013687
89.0729888318784
88.8073239309168
88.5595918289781
88.3137633137016
88.0645891365901
87.8166624926046
87.5646109535642
87.3313158880329
87.0927494022253
86.8046830628852
86.5440777714728
86.3047419404781
86.0386142647585
85.7585074869833
85.5009992314671
85.2396299952535
84.949895066156
84.6689786748364
84.3991102906205
84.1280378507107
83.8555999906175
83.6044398338306
83.3535736832221
83.09087954082
82.8264050232553
82.5599296868042
82.309916178645
82.0472661520664
81.7916112851474
81.5465851531783
81.2916153512365
81.0257439562106
80.7844920708621
80.5406569021463
80.2894070385475
80.0589749542139
79.8416312473697
79.6466268084731
79.4602360344251
79.2862658833089
79.1455625106429
79.0345325083179
78.9037909615902
78.7449259518747
78.6051996154186
78.5034781425865
78.4085665255749
78.2994269742812
78.2045872774225
78.1020915118213
78.001720417851
77.9454040686131
77.8996575238826
77.8723643855282
77.8648966365874
77.8853016664699
77.9339251858991
77.9964382974514
78.091347540307
78.2219552959196
78.3603163715867
78.5255596073397
78.697582200023
78.8653993745814
79.0989552257726
79.3408599856087
79.5695939981819
79.8249693435297
80.0922333704708
80.365650290791
80.6821075035324
81.0300148008558
81.3988199770424
81.7653903395293
82.1104075188368
82.4891114684253
82.8782460131801
83.2311835172872
83.5876799189649
83.9422563572228
84.2662423622245
84.6022782460278
84.9214169188768
85.1989623515268
85.4359115888141
85.6835648308854
85.927627278193
86.1270458157959
86.3113916790774
86.4649759928928
86.6166241181
86.7565324312993
86.8777843088358
87.0033286891987
87.1360739803005
87.2470192839304
87.3437286098544
87.4460008400851
87.5493562784595
87.6449085901542
87.7392646543695
87.8598217518813
87.95358690236
88.0422501616257
88.1371711328935
88.2475390014371
88.3607423520746
88.4411877279896
88.5101991651169
88.6092334010216
88.7105286353918
88.7666625126723
88.8327787026789
88.9608427000426
89.1613947009321
89.3542450579688
89.5096937461089
89.6277022914033
89.6824141955557
89.6760813475921
89.7605380076277
89.9166740051351
90.0582907934864
90.1880452242447
90.3039691379586
90.4135859878136
90.5198713786074
90.604662127001
90.6746553032458
90.7342926233766
90.8261031671528
90.9281669189239
90.9892832214635
91.0162620094857
91.0653517981141
91.1416570617336
91.2104155654751
91.2442096710082
91.3135079004221
91.3875433459819
91.4169960235747
91.4591305061162
91.4989102696172
91.5339108151333
91.5818624773477
91.6114418493693
91.627027047856
91.6838557593814
91.7428558321676
91.775913618848
91.7882746249363
91.8314491706787
91.8478145848554
91.8459011198546
91.8722016838674
91.8934903973532
91.938930997511
91.9745633913592
91.982053564188
92.0200763314746
92.0218244883478
92.0007488760149
92.0413903323999
92.08654374662
92.0641663191535
92.0554120130085
92.060452831593
92.079774261634
92.1055494325828
92.1467920184073
92.1769143587568
92.1665041067428
92.1480965350176
92.1277940894744
92.0903282833688
92.0872696321859
92.1159264836214
92.1203628957499
92.1115976034014
92.1216942033759
92.1233285686809
92.1119603788088
92.07490751932
92.0271466643361
91.9969061358513
92.0064861313079
92.0127118546283
92.0003682219041
91.9786387230799
91.9782974320841
91.988094804007
91.9299274823364
91.918348236912
91.9264366697894
91.8663531234288
91.8291711464692
91.8416937844468
91.818357449501
91.8066044893911
91.8002469377549
91.7712883748041
91.7430150441935
91.7111551522705
91.6676804525043
91.6339728053239
91.5991388707908
91.5919176045789
91.5484289719473
91.4903245263733
91.4781464417986
91.4417046262945
91.3948566671742
91.3228867680099
91.2974602343234
91.2873981011298
91.2125730110007
91.1603939929521
91.1282992290393
91.0792313021462
91.0137449599082
90.956676125251
90.9110778139793
90.8562142472214
90.7855796839525
90.6868020830671
90.6228712273894
90.5909052377984
90.5014169720354
90.4548698767546
90.4171129227786
90.3785100877531
90.3016635329038
90.1762107448848
90.0924194082934
90.0196709668844
89.909046735423
89.8328026478306
89.7973806670972
89.75093347139
89.6435870908536
89.5768832943486
89.5122497752045
89.4377160850832
89.3794628023012
89.2851556498533
89.2004525960512
89.0957195216829
88.9938840648917
88.9071747695807
88.7996856765871
88.6947604000337
88.648124122727
88.548834662644
88.4080194925243
88.3034325638565
88.1787323359876
88.0540244944838
87.9762682489613
87.8408821307363
87.6979013010996
87.5828269267836
87.4660924850132
87.3262846300584
87.1962131504489
87.0696308487157
86.9413963711924
86.8453464342067
86.7198750415212
86.5257852472624
86.3626895448665
86.2502664556984
86.1401809281905
85.9795453961727
85.8477630303771
85.685636521651
85.5166065195777
85.3385291961193
85.178225697498
85.0415839462566
84.9653958164559
84.8315346466306
84.69330142972
84.516385680292
84.3440155675878
84.1594598195538
83.9506519540701
83.7015728777739
83.443623780209
83.1479305759355
83.1112435220418
82.943233597126
82.5979893397941
82.3231116872168
82.1071295133446
81.8783680516531
81.675374495372
81.5212143986555
81.3594703057092
81.082036693777
