1798
3999.43349933624
650.420452594757
1
128
4
96.6400740748886
96.7037747995205
96.767453620391
96.768991134138
96.7270309079348
96.6750779999018
96.6538870543629
96.7358467676975
96.7896265825459
96.6959589577844
96.5999191205467
96.6527710779985
96.687049604715
96.6031522153246
96.6039357456758
96.7080546688171
96.7291232354877
96.7040192884891
96.6829297190461
96.6594303842235
96.6776015641085
96.727872771277
96.7492668819217
96.7587965644819
96.7335763308395
96.7493536758523
96.7704259373714
96.6800708571685
96.5981288944628
96.6457947974592
96.6603972346535
96.6977192752581
96.7516124314379
96.8210793491109
96.86462956016
96.8219924390666
96.7492330909143
96.690142321996
96.6767374405341
96.6518353218369
96.6557481284038
96.7469795594718
96.6969344682884
96.5618307039644
96.5291706310894
96.6369927033198
96.8240702789355
96.9478697085337
96.960343188095
96.9309527085584
96.8429830803025
96.7318335923941
96.6407942583375
96.532729871876
96.5308791578807
96.6340156574956
96.6633294033269
96.7320672171153
96.7707503015465
96.773180739325
96.7712865499633
96.7057329648338
96.5942804166168
96.6124458016896
96.7397871253689
96.8250113216488
96.8990581270882
96.8678056126356
96.7137815131196
96.714740900142
96.7299692548034
96.7158692789403
96.6724278307521
96.6621712781505
96.8342280913726
96.9828416022357
96.9043994512489
96.7248961289521
96.6044711260107
96.4859235429497
96.4206317561694
96.5296417132923
96.7569709333919
96.9202391056742
96.9260283403344
96.8290119779105
96.7406642295297
96.6293034594732
96.4183302837075
96.4762979602748
96.7134509783195
96.836664352117
96.9314278150499
96.9611252585043
96.7842290504757
96.6849211482994
96.6562062244679
96.5418347196664
96.507494094987
96.6966884374455
96.9120896293992
96.8489661399776
96.7968342285581
96.9105329589894
96.8251245285359
96.7705533551901
96.7909230600706
96.6624764339111
96.5342906998535
96.4902839269887
96.582715347867
96.7271067765121
96.7645514812995
96.8403509330246
96.9438111476143
96.9282226021622
96.8641485882128
96.8246943798296
96.7432259046927
96.7353426202917
96.8325309243198
96.8488758423331
96.8109952807236
96.8760855714264
96.921764748548
96.929863259881
96.8274267893193
96.7502572696749
96.8154666764624
96.9665970758619
97.1410315005316
97.1287856886412
96.9697013288226
96.9176872743825
96.8094396814254
96.6581040570239
96.5952358811089
96.6389122685612
96.690141858592
96.610995381339
96.5536450523531
96.5795813678996
96.5766649735972
96.576201902741
96.5162574977658
96.562535346332
96.6703329253721
96.6939087462456
96.673961446714
96.7438131227823
96.8870143611066
97.0346675829864
96.9858700476272
96.6982311133868
96.5888785143912
96.7668503803781
96.7650370652689
96.6569436708391
96.6237001366399
96.6992600107272
96.8643156781924
96.9680278833987
96.9243543212163
96.9855791982028
96.9767839669927
96.7910237595735
96.6692235675453
96.517360065987
96.4238636753224
96.623515520773
96.8171844145824
96.8646371255428
96.8711478278579
96.8980522827217
96.785068319982
96.4588447781637
96.1316819781258
96.1144965617392
96.3674552573258
96.4769878364387
96.4805075017976
96.6592825557008
96.7871651388243
96.6987640173906
96.6883582795717
96.8116013173737
96.7164933841637
96.4458779423659
96.1838659123164
96.0522893610099
95.9543484197192
95.9110990956904
96.0160165153193
96.2530425711644
96.4767996602106
96.5884258526434
96.4943030286937
96.1951843804365
95.8870353220573
95.8059293432758
95.8200889329983
95.7992827978572
95.6855827620109
95.5887495787326
95.6243214010362
95.6068520698157
95.4464705101069
95.2703801183749
95.1185501770621
95.1114183661066
95.0990675216075
95.0421686048011
95.0959148298881
95.0997876198831
94.9311783394361
94.8122434117271
94.7058503852506
94.6217936603645
94.5062218728581
94.2944199731749
94.1191615802896
94.0576710795083
94.0410976173377
94.0352556816251
93.9817406195536
93.8831448768469
93.7723797994744
93.7231759669192
93.6832004891978
93.5589230771478
93.4108278452537
93.2904524063253
93.1047532187881
92.9562939021288
92.878343801251
92.8919674361284
92.9250108663208
92.8507203059131
92.6705125337113
92.5816411759459
92.5591757264257
92.4805353192907
92.333635875007
92.1557601513686
92.0383262956209
92.1179707472103
92.1136054645586
91.9854749944984
91.9161578655786
91.8385051605959
91.7322947066092
91.7127509182937
91.6205043604517
91.3914723416468
91.1471141828884
91.0373064047027
91.0145222234555
91.0174302202466
91.1025112839877
91.1770245031822
91.0818570014208
90.9400562787019
90.7694509325571
90.7228689917539
90.8167499129208
90.7760359166371
90.5962166625188
90.5363159659796
90.5848779851994
90.5145819923796
90.438079452738
90.5552251020245
90.5664588820882
90.4758078886844
90.5194219406025
90.5815094855546
90.539313367966
90.5165347849915
90.5275074033694
90.5192895082646
90.485178948069
90.4415103673218
90.4335440855693
90.4209219205167
90.265740925972
90.1625581557247
90.2070106156216
90.2380032760347
90.1721171311051
90.1057479143724
89.9952190309303
90.025174664238
90.1484651451276
90.0703198108283
89.8327338432426
89.7323822745044
89.727729821683
89.7387407298788
89.6883103318738
89.5756582702672
89.492725688731
89.4998286836083
89.4715149217127
89.3088111549882
89.1040982518064
89.0196128009375
88.9838695483109
88.9668594679263
89.0033558974438
88.9542049668182
88.7456640125376
88.6696966075251
88.6488301575566
88.5228080819565
88.3385129250157
88.226389665581
88.1880694949627
88.1965087317838
88.1143164464575
87.9854473431846
87.9751313910003
87.9335835083774
87.7508443273417
87.580728189832
87.4406987686175
87.3729161573995
87.3572121813349
87.2350381412223
87.0614922741006
87.0102246776987
86.9805507372419
86.9070219616037
86.8607006051345
86.8585180996731
86.7410754065118
86.6299744566952
86.6607698292023
86.6631874376374
86.5525126507327
86.5168875038911
86.416034684704
86.2941484632468
86.2725347133319
86.2177040537236
86.1400439210394
86.1679034124525
86.2058240131356
86.1847133896872
86.1178827675674
86.0974593629605
86.0710662015557
86.0693599520829
86.1498009558941
86.2040868140981
86.1665133293718
86.1226595094211
86.1334644385067
86.2499236559238
86.393244913507
86.4006999093683
86.3578613337802
86.450905166657
86.5308032793721
86.6254417038727
86.7655381301982
86.8961339378292
86.9581670021379
87.0246133695889
87.1356987465444
87.2727495360715
87.349351826943
87.3823586619997
87.4531037443834
87.5693328670539
87.7013694500495
87.8375525133241
87.8967682176785
87.9448256621427
88.0501101416057
88.1705761624467
88.2037186304933
88.2799317230257
88.3484898394447
88.3763747517327
88.4984945822284
88.6489243276145
88.6472581504988
88.6861795608687
88.7951905931732
88.8268270363141
88.8167508852254
88.9127921243246
89.0143142242223
89.0541685810125
89.1096573798239
89.1905028677598
89.2257839374556
89.2963283812968
89.325092831379
89.264621837079
89.2575724497385
89.2662199511794
89.2839552722949
89.303733388714
89.3054835752151
89.3571921009209
89.3026866882134
89.3265057205525
89.4503595276881
89.4778510845743
89.54178471601
89.6577099277332
89.6603228135031
89.6275383353057
89.7113259531217
89.8989899300811
89.9654562084101
89.9268042349392
89.9259627113446
90.0797746923039
90.1743470490282
90.2042633552581
90.3107644495881
90.3584678317186
90.3948559807819
90.5132852220918
90.6146245792698
90.7327301486019
90.8616105151027
90.8817966853745
90.8883553257071
90.9491819867458
90.9182524140767
90.9154205768788
91.0333184718912
91.2112349360401
91.2302774235257
91.093914468072
91.0544499363583
91.1828327208812
91.2882424708949
91.3396176468327
91.4104606817714
91.4773864757472
91.4959973010224
91.5125154148167
91.5934053564532
91.6708312820128
91.7342481677351
91.789468083309
91.8066117055221
91.884794330281
92.0061561445732
92.067045325788
92.1288473896619
92.1956191937654
92.2099994307727
92.2768587193076
92.319712840856
92.3067360379499
92.3040140581381
92.4435777997498
92.5972511690181
92.6277130193793
92.6194473829296
92.6117619077619
92.6429173373407
92.7599331399448
92.8526080790553
92.8935271873949
92.9424685105295
92.9899726683326
93.0271914913773
93.0604149839948
93.0203891893794
93.0602715710312
93.1592759865492
93.1765466460748
93.2078254842132
93.3175971184326
93.3387202701836
93.2955415669024
93.3528679843455
93.4701348424041
93.5313426291427
93.5356971503012
93.5394131107464
93.6278573976589
93.6663859815759
93.6413442095316
93.6769017600623
93.7646902264559
93.8055717547584
93.7676844756725
93.7815369960774
93.89756687615
93.9471465466091
93.9710068257828
93.9749196119251
93.9865312961147
94.0027211940234
94.0278801619945
94.0675227681784
94.1123702657176
94.1949960765389
94.2562184561924
94.2094678464941
94.1795962004456
94.2213703876823
94.2562891521248
94.2611802126999
94.2992094206844
94.3543167680387
94.4648064080845
94.5209957289172
94.4376966204734
94.3955969138923
94.4742662968963
94.5392751092028
94.5426640403071
94.5338195437564
94.5521837720066
94.573039968355
94.5947576377576
94.5902420095697
94.6097732813859
94.6648013687523
94.693187765187
94.7218403545292
94.7250157878459
94.7216020999244
94.7609224688358
94.7339006295594
94.7423627756263
94.750268395728
94.6973410434914
94.6961295302291
94.8309829697779
94.9202324711878
94.895824475309
94.8995068215208
94.93356712882
94.9219601824039
94.9724361449349
95.0596252442913
95.0391837093866
95.0259762727936
95.0594043101688
95.0409439849247
95.0025470442017
94.9792150316582
95.056461174291
95.1231817149984
95.1281429503813
95.1414022061734
95.1339438552493
95.1437801596641
95.2058631840945
95.2043923005531
95.1920478242367
95.2542631702913
95.3016416987502
95.2854210714677
95.2640561211604
95.3282278460419
95.3934122285057
95.3787819773024
95.3284957508364
95.2716523647064
95.3238537180033
95.4030707794748
95.4000835100251
95.443987656711
95.5001050034863
95.5356221908681
95.555301853148
95.5458084827228
95.547496960744
95.5157787171002
95.5109850632709
95.496718678163
95.4642504597155
95.4875143312486
95.5040250593626
95.4902962453663
95.5158797187303
95.5208549543319
95.5179768688208
95.5663957967594
95.6156118264218
95.6284002773835
95.5707157790708
95.5264809401682
95.5813335703445
95.6111603597786
95.6193118747986
95.6016690993773
95.5655475354317
95.5661558926046
95.5937362903543
95.6402173669592
95.6739152284927
95.6348967938518
95.6563142546589
95.7120475453164
95.7118683030159
95.6949187904334
95.6933953638249
95.6616449168333
95.6400386741766
95.6872274195568
95.7495596620768
95.7357459596472
95.7373277361634
95.7899975434738
95.7977336202317
95.8163648001746
95.7898156391013
95.7369217185498
95.7648434965677
95.7659713413749
95.75452951666
95.7685382866386
95.7865345851107
95.8251951757044
95.8513316981032
95.848457678495
95.8367812773635
95.7829522101799
95.7584185744013
95.7229848547246
95.757688359833
95.8743929924389
95.8543375887221
95.7824387851321
95.7539879569893
95.7294579306441
95.763548681399
95.8250034214253
95.8503138764244
95.830727242376
95.8207684384332
95.8242831127227
95.8465434952726
95.8516575740398
95.8474315124642
95.8672132583508
95.8914918075258
95.8677563003125
95.890425643288
95.9314614046116
95.8982095347057
95.8387027086514
95.8370246697999
95.8643184223712
95.9143420234413
95.9264652535909
95.8964806160068
95.8842131161105
95.889425522556
95.8667279222278
95.8654458593184
95.918053553624
95.9445477270861
95.8906430938287
95.8822497249932
95.9290195816711
95.9342819348918
95.9381753198088
95.957413316525
95.9722715435861
96.0207495946965
95.9710034971819
95.924219009721
95.9567562838528
95.9731651267325
95.9863849082059
95.9908731907773
95.982455428506
95.9829329145879
95.9535171104004
95.9254569136518
95.9562560829386
96.008984003702
96.0222501727516
96.0217741548745
96.0372674642437
96.0134018752659
95.98874737952
96.0135316073974
96.0177483957667
95.9966188256279
96.0149282143403
96.0765819695333
96.0876078329177
96.0169654518818
95.950145258267
95.9689233693429
96.0057355075801
96.0259593260709
96.0574596970009
96.0989375703473
96.1095967019326
96.067045717666
96.0319806173002
96.0093224876233
95.9916274328582
96.0389378391686
96.057903427308
96.0156204773281
96.0406130976792
96.0709594394783
96.0746933194102
96.0927001519518
96.0826973342958
96.0839837403815
96.0743423796684
96.0336924288627
96.0513812421219
96.0867170521106
96.0829932016434
96.0528302768669
96.0400258970531
96.0557082014564
96.0836008660962
96.1054978765181
96.0909936691849
96.0989253759842
96.1455148274817
96.1107689396893
96.0846814897675
96.110332976078
96.1237930450817
96.1455850617701
96.1620376131727
96.1593768822896
96.1474000284411
96.1469338056873
96.0943318971059
96.0810099669328
96.172652509408
96.2200004703447
96.1808222929271
96.1682482537954
96.2123856788794
96.2456083490097
96.2424567148424
96.2258457770885
96.2504688823607
96.2747018568656
96.2507494212113
96.2543580481773
96.3146673267948
96.3697387062104
96.3591721886057
96.2854740395922
96.2656479091814
96.281171010565
96.2721571313702
96.3075396727433
96.3046624455231
96.2816952537432
96.3250672862107
96.3347678102069
96.2663507489421
96.2653813590227
96.3776567798153
96.3901975779486
96.3252434350052
96.3754758568166
96.3831654959345
96.3370487499735
96.3351092782235
96.3997019718401
96.4645909301221
96.3950699525801
96.4282996193766
96.5585468244871
96.5250722181686
96.412351372255
96.3851678988522
96.4493148078614
96.394295268686
96.2499406669801
96.310890958285
96.4396116419575
96.4675779370294
96.4619734903828
96.4279857795987
96.4010599459659
96.4045894656701
96.4265527885411
96.4853956913582
96.5624787990029
96.4967577286379
96.3743808009282
96.4264285615523
96.4847131693742
96.4475660556473
96.431011149558
96.4097587363559
96.4985608380964
96.5515323996752
96.4624800318868
96.4173401329404
96.494606070544
96.5284080812642
96.5252705356258
96.570238818764
96.524225652139
96.4652088451066
96.5218225046111
96.5419029170754
96.4631900120908
96.4703488054332
96.5268222985539
96.4390839210765
96.3809916124102
96.4570721740623
96.4542310181542
96.4207092010912
96.4680235541762
96.5042737262845
96.5232429796411
96.4846600830503
96.5151978936265
96.5814643626069
96.5038576092735
96.4518612928762
96.4388872966917
96.3971203324722
96.4125755254707
96.4771315327052
96.4638430257902
96.4191855275739
96.4613113725383
96.5471874793003
96.596975282863
96.5600101689869
96.4531922488196
96.4056328557509
96.4163861447721
96.4613850537113
96.4784153001569
96.4157111626404
96.4378405109198
96.4721733387545
96.4707572327058
96.429715629564
96.419279758133
96.4684263478435
96.5303144481501
96.483520763682
96.4183665591804
96.4451199741566
96.5022956544672
96.5071904451891
96.4644061072906
96.4948469242614
96.5185334712967
96.434470682191
96.4027922433645
96.4783074293999
96.5001942542378
96.4169895990885
96.3926783461095
96.4384172435926
96.4453155036478
96.4396292993756
96.4567893251464
96.5290712532288
96.6302308167183
96.6443652780831
96.6218526885885
96.6167207603129
96.6492834663777
96.6639628664113
96.5723594096389
96.5513575370267
96.5669249142311
96.4379593168444
96.2923013306776
96.1952694689539
96.2349236821118
96.3360675922537
96.3743563469221
96.3592402895047
96.340910544386
96.3629789516976
96.3390452594166
96.3652403959806
96.3907649073307
96.3160394213715
96.2847571351628
96.2944229158143
96.2371527148418
96.1822610533371
96.1937539010051
96.1970461958317
96.1005696628858
96.075622006535
96.1912482916595
96.1926492718148
96.1228854080501
96.190902324307
96.195058069675
96.1449677770326
96.1760560596807
96.2015510959035
96.1261929560491
96.1143863466457
96.2170791049795
96.2305976553162
96.1488236912236
96.169373386276
96.2367439393539
96.2825827143365
96.2726767172125
96.2622422073172
96.2957184075844
96.3544598872506
96.4333308670951
96.4746353130115
96.3817807144672
96.3130310661504
96.4457319874226
96.4882323504863
96.488340083227
96.5781313492398
96.6351650752687
96.6020819557451
96.5180097087488
96.5643002407453
96.6543943479808
96.7918323314256
96.8972402971789
96.9006224687248
96.9053650029556
96.9335580702572
96.9357085792109
96.8340860388958
96.8259973787643
96.9324750773196
96.9443472318854
96.9021086380834
96.8216158352884
96.8177177168656
96.7411051203189
96.8590213551058
96.9399033953984
97.1083197229444
97.3414346886686
97.3323342678007
97.2860734523301
97.3745828511367
97.3179440275499
97.3947251621575
97.4658946123498
97.3983255402005
97.3931971185644
97.2855315238177
97.142801469585
97.2329998637353
97.2901400274591
97.2401239414235
97.4110066156762
97.5560021463682
97.7548473304963
97.9030152570658
97.7615176303362
97.7506373048219
97.8482892924886
97.669682863133
97.5660702631177
97.894529862389
98.1962884715199
98.0413605512463
97.9728980263851
97.9707183685188
97.7465127917692
97.8011034865511
98.1035323267112
97.9593360804885
98.0539811009043
98.5509877247454
98.8708740667876
99.1617257097696
98.9012762596914
98.3298435717563
98.1943549293183
98.0815061090911
97.907321237592
97.875530650628
97.9021683091461
97.5723104744022
97.4877418700454
97.5592643403414
97.4713361648347
97.4195661045043
97.4987198485675
97.5200583647279
97.160469681978
96.9228871115218
96.8192049374499
96.8228294200926
96.9318995752987
96.9518142434205
96.8184139065756
96.7611245676362
96.7066306227403
96.7439063652413
96.7233385718076
96.6059092694881
96.5837666989199
96.5151650978058
96.4201325330666
96.5136414003218
96.7039138119305
96.7170000908726
96.6702598031784
96.6361408176617
96.7381540813315
96.8656880360891
96.8013604831612
96.6820525861203
96.6544472867951
96.737748962205
96.7863735268597
96.6854074140247
96.572376542019
96.6830707512389
96.859709219815
96.9285249211763
97.0898519518862
97.1957199166214
97.2721913181798
97.1276822161833
96.916839829332
97.070797861493
97.1352670140351
97.2142122716081
97.2325803978462
97.0796808368755
97.2075233541616
97.3493286252181
97.1501269371023
97.1825805708233
97.4661731564361
97.6080545469386
97.7411576463822
98.0047493378856
98.2529851987022
97.8927371101374
97.8091828934722
98.169263327587
97.8475653426531
97.6512601434182
97.7507550090462
97.6645353930646
97.7963300654073
97.9301924363676
98.0114385673983
98.0228273545683
98.0124804939108
98.1870407951186
98.0948015122699
97.8772422577554
97.7735063249031
97.8102392931278
97.6943136366761
97.3695782566813
97.5182563932203
97.8420873495664
97.8005181645722
97.6738360641167
97.6061152353281
97.6996142862296
97.6547139489353
97.5523709917043
97.5377056508346
97.7720329545103
97.9622104443619
97.8151919265561
97.8198870761919
97.8777911082222
97.6506864437676
97.6529926604714
97.9304711985524
98.0524833202666
97.7060960388327
97.4681658650238
97.7573255582557
98.0044713656844
97.7599857244522
97.5221622875344
97.332498969394
97.2671221371378
97.2697970671771
97.3080555676476
97.1335779395779
97.105537179613
97.2325248337924
97.2349170563833
97.0030129431014
97.0126308244367
97.0366995238047
96.9638538170685
97.0731050044393
97.0154173073259
97.0104162213177
97.0880849610564
97.0418502917929
96.9608930917151
96.8338924281324
96.7068683271749
96.7572455382614
96.8572602486646
96.7688779460055
96.7698469777202
96.7649440013612
96.7656466303718
96.8675627201459
96.8153236802825
96.7296935527935
96.7278914221673
96.6867756682637
96.6882443691435
96.7127529732114
96.7110313836629
96.7215615537728
96.677080894846
96.54706867558
96.4932048145958
96.6216283985315
96.6503472950713
96.6570863579562
96.6801609120345
96.6294336127051
96.5624261816858
96.4698227312949
96.5229683291138
96.5849065851146
96.5154874235006
96.4026118818503
96.4100263667419
96.4543441871792
96.4563175512315
96.448956276276
96.4557915028375
96.4354576436994
96.4689538777597
96.5302818084322
96.5062656371029
96.4933444111212
96.4511391987768
96.3899858230691
96.3602234570277
96.3696895216268
96.353788824599
96.3396585652087
96.378297245157
96.466025615166
96.4771329725716
96.3875830639618
96.344678637967
96.3868729990655
96.291301694974
96.2654918333674
96.2931802051429
96.2809679317163
96.3197985160453
96.3544443806128
96.3260910788544
96.3224688398403
96.3779813700554
96.3611179571513
96.309533003827
96.2865237324748
96.2549037818933
96.2159319865799
96.2740802283303
96.3895790622494
96.3404751649581
96.2243428073753
96.1610752514802
96.249713258078
96.3024869357152
96.2448225916566
96.2005777857179
96.2190513531494
96.2114334055023
96.2828617539397
96.4022390442903
96.3656614462506
96.2546828032704
96.1905060182946
96.2648056259383
96.2056460392751
96.2073428625353
96.226374173562
96.2109023362619
96.248025282199
96.2600396773249
96.2555026506994
96.341587435833
96.2910791167237
96.1510082886211
96.1587337339422
96.240397488938
96.241581654454
96.1853022357181
96.2108348253019
96.2834967044752
96.3067479202134
96.2231934295112
95.9572114482061
95.9999056983408
96.0838163930202
96.0483882942597
96.0790227950064
96.1534090235621
96.2352084108772
96.2571304343429
96.13000951892
95.9341482749167
95.9717549772997
96.034931291758
96.0308250143472
95.9587017058462
95.9309012784244
95.9856792028884
96.0039441073107
95.9767417886367
95.799835885545
95.6895217958093
95.6367751191282
95.44677309421
95.5656147129563
95.5943877512455
95.5403755825951
95.4803367652429
95.2787593052433
94.9465763535984
95.1559982359504
95.1929932438932
95.0073177426593
94.8913600195897
94.8820555730976
94.8869038801122
94.6230237059984
94.4006561215407
94.4311439956207
94.2764309593717
93.9294469026754
93.7679743387331
93.760149137633
93.5702870438095
93.19783608671
92.7241177704811
92.408542411409
92.4151453871062
91.9739007599564
91.3962198520071
91.3584258091644
91.3567704800175
91.0330059043441
90.6187263005696
90.1981490223905
89.8124178612054
89.8754393330354
89.9660600762313
89.8177702824085
89.6079705944278
89.4110717282575
89.0997607812342
88.6395646251142
88.2672340583148
87.7656689810729
87.1153672519742
86.7941322391751
86.7402201798871
86.6230275528351
86.7501416610376
87.1747407945157
87.77669191816
88.4262353771375
89.1238921781719
89.8133427005987
90.4176138430076
90.9157847582986
91.3879933801691
91.8450254586097
92.1987548199665
92.4968338436091
92.7685769969372
92.9738509262775
93.2059845620357
93.4641800241781
93.5889317008408
93.5224569405804
93.5476568452798
93.9588875754675
94.0442550307137
93.887320808462
93.9983690335782
94.302167518634
94.4215190383303
94.4826698640868
94.3083880898643
93.9625030855054
94.3167760763539
94.5763009560304
94.4320940960011
94.4905646268852
94.5727874373926
94.763580138904
94.8478574430286
94.790684553426
94.6832529084842
94.5410242562478
94.7243292528404
94.9173933567444
94.7295961700299
94.6521499068316
94.9597449275401
95.0276905385584
94.9966689804435
95.0378007439527
95.0728056140199
94.9029825855729
94.8993415989207
95.019717337042
94.9563731483741
95.1135443975801
95.2482730500468
95.2288796723013
94.9981174883752
94.7026382810233
95.0066812468613
95.3094940395334
95.2319415703571
95.1138907348525
95.1195164728486
95.2778433349875
95.4088543270079
95.3036887386109
95.0995186067959
95.1605253020203
95.2879273335472
95.3184103857525
95.3152098109438
95.3394995393294
95.4356870854506
95.4060667944842
95.2783944593752
95.1701051082202
95.214697369707
95.3917268792938
95.318810089811
95.2065539298587
95.3004871416436
95.5478638842469
95.4740816498313
95.2125967184175
95.0675456570077
95.3358756857945
95.3336557441277
95.231722908821
95.1964118561654
95.2001248106538
95.2963327590752
95.3666292638452
95.3848020661877
95.3720536636762
95.2520074514833
95.1583472942423
95.3267233369653
95.3131413185658
95.2148429754058
95.2682328424017
95.3553573138458
95.3432578290382
95.3392927495779
95.3166743091194
95.1666457617174
95.2007273304888
95.3165690187783
95.308338791521
95.2952793340383
95.3233259809926
95.3484964713995
95.3430145943685
95.3756451305987
95.452084413431
95.4545681165431
95.3883776768454
95.4001451094136
95.3740981661235
95.4390948603654
95.486130912303
95.4243184081728
95.3862219509922
95.4537928244444
95.4904301010063
95.4583911075693
95.4718391574963
95.4883333360455
95.4885845162054
95.4613831126153
95.5016852457819
95.5257130871435
95.5057626533222
95.5156520599677
95.5324076256493
95.4736731339265
95.4794472622437
95.5457612833086
95.5298180887531
95.4989173478481
95.5125428761749
95.53913062832
95.5540764638651
95.5657378861223
95.5915374889965
95.6119870295667
95.6014885883023
95.5349432452202
95.4767773782274
95.4754869074341
95.4984068797214
95.5193460717937
95.5209098684823
95.5372849883514
95.5556974798537
95.5531515989149
95.5590461368932
95.5740328262168
95.5645087278477
95.5423255339686
95.5320994970825
95.5386008842346
95.5323179573424
95.5460992543464
95.5522842292602
95.5354448939096
95.5311432424418
95.5329780016326
95.5358901594251
95.5281122261469
95.4914486637947
95.4646435841347
95.4779970188752
95.4766200951374
95.4673695762817
95.4690693625477
95.4347851951754
95.4013380199554
95.379776130635
95.3448346521992
95.3223716429444
95.3249216974682
95.3043551063207
95.2420128176759
95.2033730978895
95.181632792198
95.1443018963185
95.1005849171977
95.0426427383401
94.9667635614257
94.8848958938254
94.8208316324198
94.7724625695403
94.7120515424464
94.6378587035158
94.5593639763455
94.4690157731644
94.3540910442185
94.2539395862859
94.172434882887
94.0618206741416
93.9412761431342
93.8169153490365
93.6880055585733
93.553230178353
93.3968486568256
93.1986595594245
92.99628444973
92.8121774567065
92.6272924985842
92.4446516725397
92.2502957088175
92.0423348572304
91.8354247351448
91.6371921223175
91.4093539554685
91.1563127959046
90.9119696765932
90.6717676088399
90.4390240762171
90.2036528640956
89.9322633128327
89.6534318059276
89.3737761428476
89.0769005976248
88.7907630098579
88.4974062594375
88.1617776812147
87.8228543978932
87.5129017101996
87.1836792093537
86.8542767145828
86.5315845888169
86.1902058050746
85.8203194976252
85.4508143561035
85.0767906664176
84.7208595228709
84.382318753137
84.0522623824197
83.6939214918533
83.3610524952678
83.0474478583142
82.6951784637282
82.3532405480582
82.0422674107636
81.7376439865856
81.4484095202964
81.1585244806945
80.8440738740233
80.5247778414663
80.2435281748997
79.9353021146413
79.6309083376262
79.3662673302164
79.1165963760005
78.8590793016358
78.615240035326
78.4035183110154
78.2449775500616
78.0901832943966
77.9196619563603
77.7802264993577
77.6580756513014
77.5454586027987
77.4574390275013
77.3653161199542
77.285573546496
77.2036276163817
77.1408421485878
77.0921670779787
77.0640101531511
77.0511613164933
77.048684222088
77.0850644243936
77.1380880967981
77.2082067616382
77.3158629567906
77.410742657273
77.5473473563787
77.7086248739546
77.8951648995098
78.1040405507637
78.3192537721881
78.5180029320847
78.7537601465407
79.0068994725769
79.2900429517751
79.5591679047816
79.8372818989355
80.12123750176
80.4087988753751
80.7143836812949
81.0399613571895
81.3743687495059
81.7295756690877
82.1037215889708
82.4760108971159
82.8091054092724
83.1638094292828
83.5681332611521
83.9685915208347
84.3230977688155
84.6658406079576
84.9842505171518
85.259805104921
85.5433450092003
85.8609486405788
86.132067876808
86.3778618776202
86.595213947209
86.8155944136811
87.0156602153504
87.2229264998451
87.4308120459993
87.6321870425165
87.8006704091808
87.9381436100383
88.0905730801261
88.2516577074733
88.3992461834185
88.5037290149439
88.5810040193563
88.6643366188419
88.7540868802849
88.8448622725101
88.9284535990399
89.009356174282
89.1112123506377
89.2215834491514
89.3022934938996
89.2491896282313
89.0964230219001
89.0755686696807
89.2308790888078
89.4642676327395
89.7010897192546
89.9124395918142
90.0857014222391
90.2356079105531
90.3827438903022
90.5409408467845
90.6978834542836
90.8705344791118
91.0155775768491
91.1366260638516
91.2821409838281
91.4150015772445
91.5142486194873
91.603846086306
91.7134406724933
91.8043279724955
91.884684414711
91.9647533887391
92.0290885262186
92.108551408882
92.1713338880196
92.2044899320408
92.2529659485704
92.3204054539329
92.3937977655074
92.448333618249
92.4947283212607
92.5164591723776
92.5516115937613
92.6209181920952
92.688831001543
92.7536311805673
92.8036537617257
92.7925347717595
92.8045119099185
92.8445347591953
92.8921578325701
92.951749187762
92.9559946997448
92.9587825488743
93.023757516039
93.0652387280337
93.0806544600893
93.0948635639684
93.101708548176
93.1215443969524
93.1532194470426
93.2045237331768
93.2505455787059
93.2469925230815
93.2450751060119
93.2734239909556
93.2902079203654
93.3063855971153
93.3367652197256
93.3653265394446
93.3647566876462
93.341255700199
93.3600116174309
93.3958066327604
93.3983255256108
93.4023842181938
93.4197482813454
93.4100812709179
93.3948226696073
93.3950934619977
93.4248833185858
93.3998929900828
93.3770342852331
93.440852868217
93.4511339980502
93.4198741628329
93.4128148030057
93.4308674494591
93.4471520608638
93.4589720932888
93.4373987471993
93.4293683839045
93.4303573601456
93.4299419631046
93.4511350093041
93.4535892911882
93.4054269432947
93.3800313515118
93.4212007783815
93.424495735085
93.3822420532737
93.3691814894341
93.3886494928602
93.404801305389
93.3871752723599
93.380180700175
93.3663037143983
93.3094637016472
93.3006073760021
93.3148885382361
93.2713762244948
93.2435176391615
93.2468835858897
93.2274213733913
93.1821885598685
93.1950383116922
93.1844186541023
93.1304327421795
93.1230087385801
93.1274976286953
93.1026215820486
93.075998713758
93.0298538043579
92.9335999871051
92.8805216726262
92.9226890774223
92.9552352007862
92.925079932328
92.8453106274278
92.7977986247567
92.752180588195
92.7308843715205
92.705527746316
92.67291303924
92.6262347742358
92.592265147278
92.5385018600261
92.4755750067972
92.4139452325882
92.4077340258733
92.3997123703265
92.3140594424205
92.2001121862488
92.1431393021377
92.1086497021512
92.035950536339
91.9572187428003
91.8623785581904
91.7421975543289
91.6734895355987
91.6241603436962
91.523352538193
91.4167791353538
91.2895528392995
91.1590999490055
91.0582432735164
90.9107227246813
90.8094812841258
90.7302096838705
90.5432788856547
90.3688578995235
90.2831238610704
90.1345323916716
89.9788839174868
89.9237771506215
89.7793455538965
89.5760671284787
89.4706186144306
89.3816704176594
89.2298555512755
89.0595448107945
88.9403035519459
88.8257735662139
88.7222620389561
88.6030002087688
88.4724490704802
88.3569086222152
88.2314695022569
88.0876481776079
87.9354468482334
87.6959634369432
87.5404754546433
87.3407664086393
87.1249712151109
86.8790958722412
86.5543752202667
86.2482608052746
86.1174742975587
85.8529080648624
85.5561334049984
85.3491726366568
85.0769796094626
84.7610684935348
84.4502848889988
84.0837207877797
83.7972455490793
83.5586815244022
