1798
3999.43349933624
650.420452594757
1
128
4
96.8639921274712
96.837239334124
96.8419868495405
96.8928788891195
96.8958657144538
96.8512099881037
96.9165959138997
96.8912627099169
96.8104577717134
96.8354729584492
96.8759394008553
96.8595233051902
96.8729127852355
96.8696983136754
96.8237703739444
96.8073439697061
96.8800829120278
96.9916599988679
96.910764428674
96.8339399098096
96.8201654184758
96.8122314956626
96.8744982523327
96.9146059423716
96.937261020101
96.954334944918
96.8851948499879
96.8238600943398
96.857100450793
96.8921532503032
96.8877953305465
96.8754945700986
96.8043953083348
96.7529767176375
96.8012861864926
96.7533174467329
96.7153046095942
96.7953577954931
96.8323702371319
96.9313571517555
96.8459218463107
96.8315267223105
96.9436628252157
96.9635312293667
96.8439522003163
96.7069659818858
96.7612952799159
96.9225725548023
97.0872313241496
97.1243340346369
97.0470085676764
96.9103447957217
96.6991010125077
96.6433890886971
96.611928126591
96.6500687934844
96.7727521098822
97.0644182403463
97.178566491757
96.8626151680246
96.7446286343675
96.9131740278584
97.085945647551
97.0525578690237
96.8926335954873
96.7866332980735
96.8371120023857
96.9510408803476
96.9725536908774
96.6816497125593
96.5613272495401
96.6202036954466
96.7982031889131
96.6058497956532
96.5107508270612
96.7799298303714
97.2290102096566
97.2295077092219
96.5834022058607
96.2886496034185
97.0081345960686
97.1886007171834
97.1387504502165
97.3424360414869
97.1681332250217
96.7648667377355
96.5502793685056
96.4659371202381
96.5020248736781
96.7133473743992
96.962085462512
96.9199551042907
96.8868045202456
97.3152176315088
97.5050379878728
97.15406953395
97.1457145152094
96.9911395166928
96.3726706807464
96.3018932279592
96.7907593167806
97.1759912816832
97.2358586253077
97.1735686415734
96.9386589910806
96.9387085625829
96.871795787308
96.7058540222206
96.8661514691062
97.172417321854
97.0950411326021
96.8449797799506
96.9292139477557
97.1006477234818
96.9235896215673
96.7827281225215
96.8295639770866
96.870613352538
96.8241805306525
96.8954139105276
96.8918277278848
96.872357260114
96.9102757221954
96.9365377786594
96.8831063595542
96.7409736376445
96.6471065541525
96.6983488598869
96.7937301772284
96.7522887890913
96.8051318650118
97.1132334395842
97.1630464820189
96.9850474279516
96.9722555326305
96.9827374999391
96.8401428885402
96.7208900428913
96.7755695048693
96.9717308337372
97.2117021893781
97.1963445795993
96.8765091294068
96.7653948154718
96.8688027204951
97.0881716966133
97.1535639877845
97.0402326480396
96.9000560273329
96.9613297079582
96.9980452989013
96.981989456103
96.9777092301619
96.9787173784824
96.8741697130199
96.6413236082625
96.6164403015658
96.8278699122257
97.0483629796076
97.1130652797383
96.9491642802452
96.7807775465195
96.8691851428706
97.1461866222709
97.1885274536631
97.019189145585
96.8204392292153
96.6654284710581
96.5743267092124
96.6614555204864
96.9189711670474
97.1161917881572
97.2186753826523
97.1400592888783
96.9038749110714
96.7629255706917
96.7816685580085
96.7159764052739
96.535144773992
96.5267450938259
96.6741479800654
96.8192690062571
96.7996513565521
96.6767327696365
96.6644341761371
96.7894405982659
96.884245738693
96.6741706347213
96.2875417486684
96.0842456131645
96.1683181112471
96.3236229896628
96.2680085344379
96.2497324083143
96.3436572699605
96.2954428314197
96.2363418547566
96.2463189511425
96.1381900628741
95.7471895700153
95.5155730295761
95.6664605821339
95.8655876071102
95.8483759895102
95.7557071773286
95.5258587164843
95.3620362862755
95.329579232459
95.260601692834
95.15056221239
95.0101226201864
94.8438645755007
94.7925159491716
94.8906143540572
94.8207939634646
94.5478916127132
94.3833757762263
94.3581026705063
94.3487557226287
94.2414271178025
94.1242894274546
93.9823422607172
93.7147152176043
93.4721094478141
93.4048920891309
93.4041343619351
93.3692777440548
93.1661160794748
93.0219035591545
93.013679100757
93.0455196455955
92.9450215310163
92.7177324092427
92.535040798714
92.3603802448402
92.221672011466
92.269861784923
92.2435096886979
92.1017270016528
92.0764353492037
91.969761771772
91.777240831774
91.5766669787475
91.3364035086195
91.2364825595141
91.2833872603314
91.2702902801294
91.123713467102
90.9768455288944
90.8988812876857
90.8120317911274
90.6764700313005
90.6056755815191
90.4964564848305
90.366244488058
90.3246986415487
90.1759045523064
90.0604447918469
89.9860807350828
89.937332051588
89.9857791502888
89.8155523510317
89.5827709118894
89.5849167038462
89.7008413734187
89.5859612610394
89.3897903305729
89.4220301338069
89.5289208731652
89.612977587129
89.5350249450095
89.4557184070213
89.4408041043869
89.4309063906211
89.4704852074525
89.4561735818631
89.4403243365692
89.4200133314892
89.5028722450358
89.5681566545537
89.5059041493358
89.4360209319118
89.4490602992422
89.5054388860352
89.3680170415729
89.2448937657627
89.3699810906696
89.4664900178043
89.4749536867064
89.4148106730815
89.2507176265793
89.1997616626105
89.2817898360891
89.2304737141704
89.1313259326218
89.1659076254691
89.1057398633538
88.8798114766262
88.8137578420684
88.8351237680113
88.8743551567203
88.8829596161967
88.6997730482365
88.5033760824893
88.4449760132108
88.4724482039863
88.4847886546226
88.4336708225097
88.2951419818404
88.1861414671938
88.1633510522093
88.0467340188413
87.9128035805441
87.7547972505064
87.6455758351875
87.5599332742404
87.4322586426875
87.2643821169576
87.1330144545374
86.9937686625824
86.9056667713568
86.8799966964795
86.7880163710073
86.6293616561768
86.4692994816052
86.3383109751874
86.2820629059544
86.1776362580382
86.089329739036
85.92536032379
85.8321310213248
85.8034757023401
85.7382336851328
85.5803660457903
85.5214762476242
85.4958515252119
85.3329245131737
85.180081432497
85.0772071831045
84.9554393182608
84.9195690657034
84.9067350524925
84.8421982064
84.7737075681849
84.6893559946827
84.5940776208884
84.5464174389402
84.4881733265205
84.4715440752796
84.4565428272608
84.5101323463738
84.4983204527261
84.4529572504501
84.4199659117619
84.4283771377432
84.4128237098901
84.4162599261863
84.4772325205432
84.5825067963664
84.6934867363588
84.6954769555106
84.769580769197
84.916179632859
84.9570604599333
84.9935879387154
85.0995394866421
85.2333470746865
85.2910261608253
85.3671432394239
85.4593119221638
85.5167718037518
85.5868985959182
85.8243901111136
85.9966195382761
86.0280742843392
86.0913091027755
86.2256602226277
86.3389389651833
86.3837062057666
86.3907196657413
86.4717212578957
86.6127518819165
86.7386018215692
86.799189430071
86.9130309575045
87.0817919099517
87.1474083903025
87.1267736487338
87.211203501101
87.3686940214054
87.4934833323643
87.5594015267329
87.5889308286112
87.6207267677645
87.659511974169
87.7000027327496
87.7765520224756
87.8278685842754
87.8829669369276
87.9082596136784
87.9162034676764
87.909941349412
87.8984051860489
87.9529188379965
87.9426672422813
87.8916183061762
87.9022039010848
87.9884118790164
88.0906219648602
88.1369447809558
88.1990465999352
88.2410928807027
88.2866717896142
88.3671134349574
88.3271237311537
88.2855794147
88.4335760724064
88.5624269099673
88.6129726874645
88.7480669892715
88.8679694435662
88.8929981609368
88.9668676323525
89.087793784074
89.1808790068204
89.2607593991158
89.2997414965422
89.3418230710855
89.453756920667
89.555669908718
89.6461036414789
89.6803219998145
89.6207496421736
89.6592240035334
89.8105551979648
89.8788902383089
89.9278901669694
89.9729086372758
89.9443100824498
89.993724116861
90.1234811875369
90.1306987181077
90.1275737207443
90.2100611909833
90.2874291704862
90.3858491286504
90.4909040078884
90.5377567767409
90.6019064332469
90.6178727779895
90.5970328045018
90.7237305020886
90.8726395052917
90.8832815042609
90.9033852990254
91.0367439914148
91.1780745019378
91.2254493948206
91.2004340382217
91.2423421542721
91.3555649293925
91.4294926990728
91.474969316357
91.5791856039903
91.7158850332435
91.8192236892381
91.8341470792012
91.8197880541112
91.8673699643198
91.9350022710187
91.9982204916527
92.0546510069597
92.1401112045322
92.1804640823128
92.1814839085939
92.2303932292362
92.3469546872059
92.4068108336897
92.4444253396122
92.4725104775418
92.5282999521331
92.6183712960958
92.6612941378928
92.6628795636828
92.6906694456603
92.7538039120122
92.7603552540169
92.7712658355063
92.9059921986174
93.0070588545741
92.9776592921034
93.0087719789754
93.0917623184413
93.1436723460604
93.2153979770959
93.2615697042415
93.2836570178844
93.3291098390052
93.3429838791755
93.2992602222434
93.3525377257556
93.4908728219342
93.5364541527826
93.5098724934084
93.4462506525704
93.4517356333505
93.479404748579
93.5540204904828
93.6606451883727
93.7248365059115
93.7462663712085
93.7691957294473
93.7607913400755
93.7197440585272
93.7156644847677
93.8025914137644
93.855393445852
93.9297100754726
93.9622656420356
94.0108260083261
94.056897149975
94.0338690859328
94.0647994110721
94.1546412193836
94.1810669466551
94.1557053855057
94.1158663312453
94.1242589970776
94.1980041071728
94.2480810492274
94.2257302801463
94.2049101914804
94.2435820741484
94.2620177646817
94.2716751874016
94.3360160751405
94.3702247482215
94.364674323418
94.3601654583837
94.3455824078885
94.4029114208932
94.5302012596312
94.5684587110026
94.5172707518354
94.4822516572197
94.4521817778273
94.4646410429797
94.5696528477677
94.6265274268454
94.5891017888298
94.6278491116348
94.7083112933981
94.7223183630638
94.6925275219082
94.690547203044
94.718391278918
94.7407934036444
94.7601835108563
94.7762893132946
94.800951885424
94.8329975634789
94.8135557105323
94.8155838854451
94.8748217345427
94.88404715138
94.8745531081316
94.8580400701072
94.8515167934878
94.8485540409876
94.8665860941603
94.8758470785198
94.8863522842178
94.9587759633739
95.0004880640777
94.926230185852
94.8936360051404
94.9511053803714
95.0129575765973
94.9992435431147
95.0102328391494
95.0826319756068
95.0473461749362
95.0068617916263
95.091683396042
95.146719641358
95.1101991334363
95.0812856187103
95.0749570549031
95.1021222562434
95.1657049815308
95.1934953997949
95.1890218100928
95.1888233814628
95.200760313567
95.1781092107453
95.1466706512922
95.1801977334036
95.2299156425917
95.222163399121
95.1916008934799
95.1577605898489
95.1674749151893
95.2261152502163
95.2487575415875
95.2661130730435
95.335603586742
95.3413099466394
95.2933493740915
95.2936528504464
95.3276304844911
95.347834023585
95.3522552342625
95.3484804145531
95.355796131252
95.366502565278
95.3515638839341
95.3508378181871
95.3815380561406
95.3808036117443
95.4085661532212
95.4240061797411
95.427932541314
95.4663082820588
95.4654178291894
95.4266477674559
95.4427238022924
95.4634760323989
95.4232454394932
95.4146078424173
95.452765091115
95.4615125492163
95.447696114755
95.4584133814307
95.4750080422399
95.4454399740322
95.4339638866304
95.4803927058616
95.4780838359261
95.4569429849284
95.5058927059412
95.5322893709663
95.5121841091745
95.5014828791933
95.5110180530756
95.5082132246081
95.5571446785868
95.6251128266517
95.6033875657418
95.5330111912038
95.5134411574635
95.5546924990642
95.5971284594139
95.5828655492816
95.5354983402867
95.5381774186864
95.5804079537212
95.6240497737207
95.637536664583
95.5783617347661
95.5706652657299
95.6039159527467
95.6181946538293
95.6310450141751
95.6398765561018
95.6175717285396
95.596479790843
95.6030678438391
95.5896576378839
95.6359931148469
95.7100536510714
95.6914553212986
95.6418898136962
95.6207136888034
95.668485702855
95.7312917886624
95.7031678304706
95.6376822193734
95.6274571057118
95.6320071794039
95.6783974560246
95.7034904019442
95.7119018511048
95.7295124001683
95.7126559235145
95.7139540431518
95.7089328198412
95.6907304400117
95.6913622450858
95.7212970850004
95.7606934142438
95.7503265174621
95.7430028504106
95.7090456261666
95.6826233335579
95.7123906423765
95.6938921971767
95.6702549942262
95.7351275551186
95.7787147765273
95.7642173802073
95.7701476766971
95.7646050937567
95.7515513083353
95.7662161373158
95.7620128577426
95.7348873110363
95.7288834075286
95.7331100906226
95.744925114965
95.7548439801852
95.7389933013414
95.7151360484061
95.7317503850452
95.8256711285374
95.8566288858495
95.7945399012507
95.7656158439635
95.76837740765
95.7225556304578
95.6828957767806
95.6603473794033
95.6270159036662
95.6282795666608
95.6611444937322
95.664404695382
95.6677756715565
95.6787529482686
95.6519157208597
95.6299115168599
95.6720972297979
95.7387887964761
95.766775505141
95.7496370044939
95.7256822128212
95.7201911408266
95.7444143092407
95.7578645343687
95.7293878873005
95.7133533263084
95.7947945901326
95.8713738130228
95.866657654942
95.8072620398726
95.7145084394965
95.7100550767835
95.8386087289699
95.8940653202347
95.8803054268628
95.8866610744994
95.8959304983285
95.9008524165947
95.8847266584048
95.9002613080095
95.9742277313799
95.9895431596276
95.9612365563959
95.9502155570373
95.9073474274574
95.910859164176
95.9592075355863
95.958041849508
95.9939064946694
96.0373648223023
96.031048484924
95.9785205472993
95.9529534239446
95.9764089939563
96.0016138575298
96.05797692866
96.1165162762945
96.0816469123959
96.0383590651747
96.0216615685708
96.0104351182785
96.0272549817677
96.0530819318629
96.1100884919463
96.1909021972798
96.2127044998452
96.1852298545261
96.1626263100206
96.0755743688242
95.9676315713709
96.011693047232
96.1222430296242
96.0593858181319
95.982119530573
96.0745788024805
96.1008026666347
96.1058762510394
96.1054338466096
96.0942882960592
96.1222149252052
96.138513371371
96.2150414478154
96.2575257751752
96.1666520959047
96.1411648624143
96.1754742464045
96.1479975516044
96.0634350668957
96.0201126180792
96.0879564827078
96.1869151563543
96.1921492976095
96.1641737968238
96.1353756481258
96.0264326810362
95.9901584338524
96.1552016235743
96.210013534731
96.1452142669454
96.1649269657919
96.1451152068801
96.1498327099307
96.188655850779
96.1773434862228
96.1954759357319
96.1400317647431
96.0954879467163
96.1078210678695
96.1509292178954
96.1725858321088
96.1455923704899
96.1625372611033
96.1539990246472
96.0995136194992
96.0964780293356
96.1369033351613
96.2321764809307
96.2429082950096
96.1890717713126
96.1540946013827
96.0759815292387
96.0732649098808
96.1635228478894
96.1708018808505
96.1478180063781
96.1713193157375
96.1733353590649
96.1551086076141
96.2049348179921
96.2638498675001
96.2631465269307
96.2110751660604
96.1635181705412
96.1949368313075
96.2380246994258
96.1696143434085
96.0813301844494
96.0488555931758
96.076767887821
96.1743147020435
96.2094369396346
96.1370702752224
96.1047906575764
96.1182032036481
96.1709532410966
96.2246502759929
96.2180825323853
96.1651628736509
96.1438336325725
96.1477965616048
96.1460017881534
96.0988624415448
96.0448070665402
96.067726439945
96.1415349738179
96.1699113195812
96.1093800007504
96.0498012958386
96.0325381018968
96.0426297645425
96.1350282655237
96.1999183423198
96.18685843849
96.184010901373
96.1748073767012
96.1362107380021
96.1649165409251
96.2125266525297
96.1626044103995
96.0015624976053
95.925741928198
96.0129283274906
96.0859171341275
96.1278752294747
96.126007887517
96.092307111599
96.0592705861722
95.9364418433448
95.8948043782484
95.9178550453525
95.866322608935
95.8420896173847
95.8291727500043
95.8396384654001
95.879555515839
95.7511988073556
95.5778384668953
95.5571778988733
95.5803123513073
95.5367329148356
95.5484964353233
95.6502770349794
95.7421479610691
95.7597669484936
95.687641542504
95.7047319310729
95.7450355451657
95.6850007137403
95.6398915496225
95.6302677273076
95.6058078121788
95.6068654633711
95.708408171064
95.7271562194903
95.7132332086247
95.6758926128514
95.55875008048
95.5239249800734
95.6340822911964
95.6999871477268
95.6564569872518
95.6955497961945
95.8111435067032
95.8703227784154
95.8661210647442
95.8776356213891
95.9020620307499
95.9419949911042
96.1591695136681
96.197202247767
96.0223159935794
96.0074064683242
96.0886135252153
96.1215964342451
96.1539126122637
96.2778915395689
96.3530381944621
96.3401559789816
96.2177068626178
96.0931551705732
96.2251950449139
96.2687759583312
96.3133469900175
96.4720594824287
96.3507870076403
96.2025320285563
96.2298648260011
96.1825366393726
96.2266355284092
96.2747588685349
96.406744259494
96.5555653152847
96.3839317662153
96.2686073339225
96.2995905309495
96.5146370430359
96.7469783385385
96.6866323784484
96.5147602127233
96.4993667264509
96.6270994649133
96.6376231783394
96.7856739564968
97.042605306087
97.1478742700649
97.0798458041878
97.0509305911867
96.9465812704445
96.5980940336632
96.3938143464309
96.5736611895677
96.8117929282643
96.946975501014
96.9412498773803
96.989134222776
97.0572039393259
97.0579148098959
97.3465390237804
97.7545426263225
97.4800589593686
97.0332287520282
97.2764959043891
97.5037465197912
97.4627655802495
97.7284433663796
97.9174039912058
98.0091732138937
98.1781181389213
98.0034666910437
97.4386203068791
97.1528730028763
97.26904758489
97.291277565729
97.1447022310934
96.9172441956435
96.7232802669186
96.9737015742467
97.144884309302
97.0231282301317
96.9134781944181
96.7772311638605
96.5676013387249
96.3627149038682
96.3547335421165
96.3906810640081
96.2262083669814
96.0898191289911
96.1814194867843
96.1778661854708
96.0847665255755
96.1057136321108
96.0929085121996
96.0448098038255
96.0547098119918
96.1306388759367
96.2680476523802
96.3722418206251
96.3053089526445
96.2548798887693
96.2213861105307
96.062687384577
96.0531551532862
96.2674987184575
96.2934279374571
96.2357831263167
96.2206375363655
96.3196460338018
96.4049918075052
96.3011884612232
96.2106906898537
96.2937892035544
96.4245038465755
96.409370685483
96.3190534043222
96.2411125280617
96.2755168394833
96.5151203195758
96.7275372866512
96.6813642930485
96.5905867685363
96.6392903670817
96.6552082058926
96.6856848115467
96.7090194402367
96.7071437396422
96.874327553323
97.0461220365213
96.9007378841496
96.7873853383526
97.1040625109651
97.4555906289222
97.2678937680448
97.250730297404
97.4293460282899
97.4992059564943
97.7497264744015
97.7520549103811
97.6197583594321
97.6532400643438
97.6049307866821
97.5493676572855
97.6267398124788
97.8213411936351
97.833077131439
97.6001923539959
97.399417159929
97.5142723586395
97.5099281851945
97.3022064914811
97.3016481314245
97.176706172236
96.9253421231907
97.0780931414406
97.2823076848398
97.2879421115374
97.2698454269612
97.1297074496613
97.0982755424853
97.4422672308087
97.5601722502557
97.4786578368977
97.5967162981902
97.6529060406833
97.4788240699301
97.4076403682964
97.3744361015
97.4610422265236
97.7721876092686
97.8909650065011
97.5893710897225
97.2328736512943
97.2040193813561
97.4499363919151
97.396340806228
97.2889548826741
97.2129383501898
96.9964603543536
96.773469306099
96.8064404963948
96.967024866448
96.9537753512278
96.8607348725439
96.9190882948428
96.985288876925
96.9037720932214
96.7668884417022
96.8039004626147
96.7618272173695
96.6911932980094
96.7225637496268
96.6712387847155
96.6705009145273
96.7656973044764
96.7106720240202
96.5708485179135
96.537240310094
96.5448363359814
96.4828387884589
96.4039174487375
96.3880050912051
96.387015534774
96.4234435401693
96.5423728874164
96.5891153226083
96.5206395881787
96.3791800164956
96.3042385604387
96.2743673190487
96.3034465062744
96.3673577252156
96.3161097825962
96.257571551931
96.3445159577395
96.3764373698563
96.3067255718497
96.2310300180058
96.1991690999535
96.2821368879483
96.3476806161881
96.2782817805877
96.1398593577083
96.0283964841557
96.0494595607306
96.0633803608638
96.088526090667
96.1426755717367
96.1812039363155
96.1667251996702
96.0918213286099
96.054850516121
96.1464786414043
96.2230521819524
96.2174399127106
96.1228668264577
96.04839824837
96.0901189327843
96.1013599502196
96.0782171033732
96.0955730095115
96.1226264470884
96.1222801499801
96.0482849641956
96.0107362255687
95.9797469382231
95.9647423488178
96.0164861535523
96.0226830480699
96.0472751122088
96.0999098303234
96.104369161253
96.0421122258957
95.9799395759716
95.9517008056377
95.9450398025513
95.9723076251493
95.9826758116526
95.9275654301009
95.903031482395
95.9181529283463
95.9211552012042
95.9255996862831
95.8866281482702
95.86200531407
95.8726578997316
95.8704298302232
95.8868440152769
95.8927600445702
95.8720522145988
95.8849888042902
95.9544556344402
95.9257356034944
95.8853945194732
95.8324455893813
95.8003450353869
95.8151589140414
95.9189969838748
95.9876225629038
95.9582560266023
95.9203448486602
95.8604260061083
95.8022081727785
95.8834073273275
95.9357116472173
95.8733945476278
95.8505539564926
95.7911502579239
95.7582430622017
95.7734314546535
95.739323079591
95.7487926844648
95.8619113792888
95.9152423025082
95.7701164660362
95.6798998184246
95.6932252874062
95.680206936166
95.7369652979796
95.7446719179416
95.7796039469735
95.8262561272903
95.7778492250643
95.5821081309497
95.4759080776326
95.4818115943077
95.5574390321285
95.6174457407152
95.5684583900535
95.4919538853715
95.5198864170944
95.5492965068337
95.4163594581798
95.2632316066254
95.2304913144426
95.0296719231525
95.1009819148852
95.1505224614157
95.1707859383661
95.1809629849612
95.0183609848701
94.6677441059286
94.5145108052242
94.5571727497749
94.5892776036304
94.6017290304948
94.4495370194516
94.3608071868447
94.2139374748113
94.0353174423398
94.0139399333654
93.9650179665869
93.778186397325
93.5276956057837
93.4093542656595
93.3643753718971
93.2386255948907
92.846803100782
92.2648807182531
92.1440214483369
91.8939329486121
91.4416109779075
91.1042071337653
90.7950149226182
90.4338638698909
90.1039529572706
89.6838818795471
89.1378868335636
88.9847549799214
89.0731938043078
89.0392289181299
88.9546702971012
88.766410496483
88.3946212637466
87.8710304973717
87.4303825580151
86.8731125358625
86.1073647834529
85.3961203754888
84.9903834672445
84.7241899951495
84.7283299157759
85.023285308205
85.5426884110292
86.1860212342696
86.9044016262102
87.6641354854594
88.3519693536779
88.9706745976771
89.5324032514103
90.058982529179
90.5174240634241
90.9091935359018
91.2358480177404
91.5039394520776
91.7428491901599
92.0385857972437
92.2945047140744
92.3593262195589
92.3525504788436
92.6789207056223
92.9129921229657
92.9148794550958
92.9593770148928
93.1079725140073
93.2130315910063
93.4280226728603
93.5008186089808
93.2097445936186
93.2322998010444
93.4983380917696
93.5727800467743
93.7237010645817
93.7696022013306
93.8482881761481
93.9736852206267
94.0018177829648
93.9647105256353
93.7093398680928
93.7529449525931
94.1157527698683
94.1488752350527
94.0697535035725
94.2032888484928
94.2285118809407
94.2130319161549
94.2685400836377
94.3011433964364
94.2196495658296
94.1915450785125
94.3011739310561
94.2315829558074
94.3101826338144
94.458970482536
94.5740942206882
94.5788797109563
94.341482300205
94.2836225586829
94.4741282611482
94.5549635354702
94.6041921711288
94.5751419585893
94.5455344387666
94.6523004133436
94.6923741983842
94.582671166079
94.5265462665623
94.5543341548206
94.6072412081852
94.6538670886243
94.654640299701
94.6888171348573
94.7144941651329
94.6699836487723
94.5560190023093
94.4547929489407
94.6056140613605
94.6695632122642
94.6182279541163
94.6150754968825
94.7353368733844
94.7708663437087
94.6563924476659
94.4802441460403
94.5307011604742
94.6335429848737
94.673721579626
94.7066577105091
94.6589573813579
94.6292888766595
94.6132549043683
94.6375444255148
94.6850070218419
94.6249147969503
94.474613956448
94.5681635358262
94.6132917852979
94.5796005814613
94.6182514141555
94.627126807688
94.5960255550584
94.6393301617588
94.6854568064416
94.5580885388483
94.5196796093466
94.5980813331229
94.6079852814326
94.6697081939286
94.7376019433544
94.7460144907483
94.7174685550522
94.7113874950475
94.7522280689411
94.7784257015043
94.7441757354853
94.7514139782714
94.7395433703479
94.7520846343426
94.8070492672984
94.8192344215887
94.820829454487
94.8266265020788
94.8562352650101
94.8460429221968
94.8839945376501
94.9096726709499
94.8735686157535
94.8134995831001
94.8226780583002
94.8745417610728
94.8722607836278
94.8976407282058
94.9329971776311
94.8889647319109
94.8372528783212
94.8649968648597
94.8848747577791
94.9087753208283
94.9099091872151
94.8913997409103
94.909354578215
94.9334334049355
94.9375194006492
94.9390206549508
94.9409213669489
94.9261790150285
94.8916927884281
94.8618724638456
94.8576062028906
94.8908347146438
94.9378352969942
94.9543583043927
94.9399337083065
94.9106250423666
94.9126222946872
94.938745234268
94.9285549770016
94.8936399483317
94.8839429418158
94.9001557379658
94.9079055987768
94.8947740866716
94.8792960582635
94.8752531328444
94.8841843115965
94.8812257294898
94.8857054180585
94.8867115626312
94.8587456845136
94.839257528086
94.85263121409
94.8501896185822
94.8221322005666
94.792630546354
94.7824429139756
94.788732846701
94.7853811250662
94.7476894080587
94.713906143559
94.69822723911
94.6647413261509
94.6086609185861
94.5646538038484
94.5355006649602
94.4801968580532
94.4468788404087
94.410992100401
94.330373369095
94.241217346124
94.1700972279861
94.1009176726692
94.0142134056917
93.9136372694122
93.8324696188262
93.7560290350822
93.6613173085736
93.5328996683845
93.4039110512424
93.2891523511492
93.1797039829463
93.0715840881226
92.9405021827026
92.793151686433
92.6603691913861
92.5130092044994
92.3498514519519
92.1996660101528
92.0326973462689
91.8769796487797
91.7252834450972
91.5568168463149
91.4102593361554
91.2738534752716
91.0796714066469
90.8598061489118
90.6884676154957
90.5158350515373
90.3228912154325
90.1168925730253
89.9039837407543
89.6840466421064
89.4494836223338
89.2103379429186
88.959004465675
88.7121920063655
88.4597168130188
88.171462505303
87.8653173555149
87.5518033405174
87.2443082486118
86.943474867276
86.6174277065895
86.2976779583399
86.0156193053682
85.7232535355714
85.4345904422605
85.1495373359666
84.8629455536454
84.5824803308339
84.336818619666
84.0958977980753
83.8445391508135
83.6098454387453
83.3850693472086
83.1667913834118
82.9494097420021
82.7310966244682
82.5345655007274
82.3308841285432
82.123193050963
81.9284292641615
81.7373039915562
81.5568055352103
81.3879608220565
81.2391585814631
81.1022295354503
80.968252785631
80.8516748471865
80.7423205174034
80.6691117139016
80.6040841466899
80.511010085268
80.4431125597496
80.4316603995458
80.4091817132766
80.3818518146172
80.3736330700109
80.3522646938246
80.3255653972987
80.3540973499057
80.4034398914968
80.4872250716898
80.5958488528979
80.7185629332017
80.8764548792162
81.0814387748347
81.2842684210479
81.4867011463851
81.7063237945651
81.9419768403305
82.1832784422002
82.4183431803467
82.6537162510591
82.9113987734835
83.1870410246377
83.4562392596296
83.7141559207043
83.972828880057
84.2661650469404
84.59179478502
84.8989186791331
85.2153701084883
85.5353572834123
85.8733714800314
86.2090347775922
86.5234045890557
86.8484451539496
87.1735354933367
87.4517998142561
87.7166021438421
87.9833825197906
88.2278863804381
88.44309044418
88.6282792293327
88.7759748135129
88.9668672687373
89.1437377311497
89.2502211979848
89.345124456421
89.4225751088039
89.5020291518754
89.5905864108567
89.6891409138687
89.7745285785349
89.8428701891888
89.9055169639245
89.9700858806892
90.0210996389414
90.0572931549391
90.1126737055259
90.1816404201522
90.2404833272682
90.2691970818
90.3138898247691
90.3713093861632
90.4208563312106
90.4700913287104
90.5409551100723
90.6218723417681
90.693870549931
90.7673619864085
90.8690904577156
90.9854402472647
91.100072502464
91.2087217672129
91.3046026288816
91.3949526645907
91.4765081791217
91.5874888339775
91.717742454233
91.7824017315762
91.8373628192663
91.9049973653014
91.9813974015691
92.0463453390216
92.1156777421916
92.1609379387523
92.2186341250153
92.2707118957475
92.298055703914
92.3477127687247
92.4215060649454
92.4512566678621
92.4719636856286
92.5061287843136
92.5387212680323
92.5561492388037
92.5932635266561
92.6357967970837
92.6565874030536
92.6810882714006
92.6998959994064
92.7249497675651
92.7392957604881
92.7463484850229
92.7935639418534
92.8058529883172
92.8314352316404
92.8630517785604
92.8783086861457
92.9232442294191
92.9455785038961
92.9290362645171
92.9175346587004
92.9447063432508
92.9910084056908
92.9887361977209
93.0060388817846
93.0162280953918
92.9982335306259
93.0182852026193
93.0652082528097
93.091867345256
93.0999728844404
93.1112219470073
93.1290755367208
93.1156289126275
93.1259013769183
93.1394482537383
93.1402239887425
93.1058309180393
93.1339008773179
93.1920148166556
93.1934545367365
93.1831402080604
93.16000162556
93.1405500468029
93.1613180626388
93.1836371739903
93.197425642497
93.2187938999585
93.1872232357933
93.1631744262011
93.1866909659525
93.1903258264984
93.2066411314309
93.2277463525141
93.1836078012575
93.1446208432718
93.1460522503417
93.1567540353215
93.1415529195072
93.1375130915337
93.1440751787733
93.1537193186613
93.1720137561137
93.1658617220145
93.1615786989086
93.1838283007351
93.1516494604181
93.1187812649463
93.146055375131
93.1328418704742
93.0693125546336
93.0549907722129
93.0792187848867
93.0854228268381
93.0670735919247
93.0338047223892
93.0296709491221
93.0444984142626
93.0132427404606
92.9714140174589
92.9650757292499
92.9513007897988
92.9348207432314
92.9232677062979
92.8893194935167
92.8608100923059
92.8077605971685
92.746141679897
92.7295634601089
92.743397127549
92.6781045538688
92.6141942755632
92.6301563650719
92.63601642293
92.570325667227
92.5065555844594
92.5047061375043
92.4668925632917
92.3905373881468
92.3669356456044
92.3402474358618
92.2441860384884
92.2007625466683
92.1722775891115
92.0793744740636
92.0282421140485
92.0022075710528
91.9339521655271
91.8904094643921
91.843533869513
91.7185817115308
91.6150683024789
91.5595848313206
91.4756318287768
91.3935706060353
91.2582045277009
91.0724136953267
90.9952719934201
90.9484334888996
90.8223213128601
90.694753443511
90.5498846150355
90.4204743823994
90.2891778353163
90.1304744517526
89.9628358035145
89.8298147569924
89.706197291659
89.5380057460755
89.3211030565497
89.1058070263082
88.9217045996237
88.7587108873765
88.6313370965974
88.4832645675543
88.3207644786104
88.1842379079872
87.9971935724439
87.8576867036096
87.7263353934466
87.5655764417727
87.3631572377866
87.1633542635501
86.9944282629891
86.8705146068011
86.6491068622469
86.4563019723013
86.2839241988
86.0397587262032
85.7648805516773
85.5253725290677
85.2846786864927
84.9982477693953
84.6583461824249
84.3641283166458
84.103773841102
83.863166456792
83.6680581085286
83.4042792074851
83.1126744561569
82.8299830682923
82.6010989290235
82.41901126749
82.2303328586593
