1798
3999.43349933624
650.420452594757
1
128
4
95.3748432103469
95.3174142172087
95.4280927361475
95.560856850181
95.4137988877341
95.3587649960213
95.4682510525069
95.4286143278188
95.3262624997954
95.4313265411145
95.5581344985255
95.5113125052259
95.4212031724143
95.4320497267221
95.3267049055051
95.3246271712694
95.4523182199232
95.4780464038454
95.4249791958765
95.4634603551921
95.5245038619673
95.5046810366084
95.4460717122667
95.42370124748
95.4262532812814
95.383384343045
95.3172327412651
95.3886294821983
95.4613808898233
95.4357051549682
95.4272811977293
95.4873925402511
95.483113017422
95.5387986670811
95.5382152560791
95.4687730878172
95.4306726758654
95.4678910980172
95.4727187843719
95.4639524348348
95.4201349621374
95.4043507280125
95.4810539113376
95.5153048459174
95.4533434777561
95.5194609511343
95.6126712378421
95.6177297401248
95.5571096045086
95.4581381226316
95.5294834043494
95.5776384564775
95.4824080803098
95.5929145541422
95.62430208809
95.6237894165515
95.5785629195811
95.4073885823292
95.3895787169699
95.4930181470666
95.4844691733152
95.3847282037914
95.350267571935
95.3897796189702
95.4464472410365
95.5774659678999
95.6186004901191
95.5882697247396
95.617203802528
95.6367288840144
95.5687770910552
95.5518192159823
95.5437661034675
95.5403017196859
95.5178697995432
95.5581665753654
95.6573183984782
95.5438352106145
95.3522798018069
95.4632967525326
95.6169729064277
95.6760253050968
95.6203191749849
95.5237795204536
95.5117418363072
95.4738237266688
95.3919144395607
95.4318103588245
95.5430224632306
95.6515728640489
95.6213964413686
95.6508952586306
95.6764962217219
95.5941464183444
95.5684003217797
95.5090434875014
95.4314449790055
95.5452324398361
95.6454800330386
95.6066243764428
95.5576407159213
95.6660198752903
95.6554384352679
95.5006839963003
95.4048591169456
95.3851477444245
95.4045237552161
95.5469005338482
95.6566931897614
95.6557104770852
95.6315512838907
95.5240300752678
95.4771021943441
95.5136481178218
95.5131287496873
95.6308050416084
95.6946146677841
95.7505368476448
95.6876011526312
95.6449444836989
95.6297828427252
95.5937176874788
95.6205612513099
95.563800922182
95.4577597880468
95.5815820073854
95.6247431036941
95.6417310920297
95.6426150666102
95.6890277601367
95.668624968063
95.6295790960532
95.4866421563483
95.3405761734841
95.4140897636174
95.6192690505403
95.7122045185263
95.6657598719437
95.6902926302079
95.7222003913616
95.6372680123161
95.4883057933774
95.4284369930269
95.4289480858882
95.5646113832987
95.662599144565
95.5316294918169
95.5388115916983
95.6052946139064
95.6253278892375
95.7183675849402
95.7574947943168
95.6675686129545
95.6206171007051
95.4954757596379
95.5092284832784
95.6069797749455
95.6718605773985
95.6540677818169
95.5337966646655
95.4509603532548
95.5355717142972
95.6636272280731
95.7030569892725
95.5698748997641
95.4775474224132
95.4585478005187
95.5247450177944
95.5538439956015
95.5934677622264
95.5781116688996
95.4238721036023
95.243575560781
95.2570363872381
95.3222316353246
95.2935650128502
95.2216190347036
95.3397251009571
95.4034809334012
95.3415406187114
95.3378339682984
95.4237126405592
95.3392255727402
95.2317051121614
95.24437148571
95.2776675727192
95.1783496626397
94.9989753381274
95.0294048221038
95.1077714778569
95.0282729462432
94.9858287406014
94.8691670345074
94.7435205243012
94.7370634212699
94.8528971914592
94.7497753061686
94.4636616373222
94.4089572449433
94.4850568714734
94.5122741721339
94.3979544016063
94.1755575770181
94.0315968744815
94.0406493332556
94.0153459184319
93.7798200349384
93.6378542805197
93.6670876471674
93.68436986196
93.5532980922528
93.5006948346241
93.4460142834292
93.3849211134537
93.1507652308954
92.9035167518565
92.7827947706156
92.7697192643408
92.7544857290452
92.6454215496617
92.522365106682
92.4191083381323
92.3193294080127
92.2733566470808
92.1404234150847
92.0646610337452
91.9880642306338
91.9120625779236
91.7854662749764
91.6509655610564
91.5215408012263
91.4200235045209
91.1915556797379
91.1020405266617
91.1700149075849
91.0987142197697
90.9177064420539
90.8268782493264
90.6871200132442
90.5519943615173
90.502743445264
90.5108816077163
90.3415558794324
90.1129965912815
90.0713800238779
90.0567094967867
89.9904111057792
89.9592286853961
89.8767028191713
89.7176440834001
89.5300156739518
89.3353736077845
89.3415494814463
89.3763720834054
89.2522081103982
89.1590821624094
89.0579326540308
89.0650554784943
88.9967604010725
88.7308602838434
88.6194466469851
88.6436135332424
88.5818457724147
88.4637750539463
88.3111339922745
88.2046217276834
88.1718228079058
88.2329282063451
88.2251339933979
88.1768619123461
88.1301659352005
88.0854107242571
87.9847036407401
87.9573227188158
87.9920513940504
88.0231185835457
87.9239194577288
87.7382106157671
87.5630740041693
87.5892498929172
87.6609935188543
87.6054400161929
87.5335702696105
87.5561404565903
87.484875867575
87.3140449250744
87.2726573374247
87.3888314355415
87.319320214333
87.2212120979536
87.1582056962363
87.097248729093
86.9232289127524
86.8475145838289
86.8417687115523
86.8266662160903
86.7218068680202
86.5700391502377
86.5670605469378
86.5272342009082
86.3727307456183
86.20015483675
86.0135543890704
86.0051648005983
85.9788903438558
85.9611571431739
85.831287416951
85.6843194076016
85.6484113667645
85.5370083995433
85.2930785057622
85.1988742846726
85.1119550062891
85.0021267100776
84.8535109946276
84.7694355877687
84.6485724815166
84.5898080516292
84.4935212007131
84.4458959982025
84.3665505207546
84.2083063755643
84.0077998482975
83.903786056421
83.7993395058401
83.7648692741095
83.6829164109054
83.5456661578759
83.4821395466392
83.4767628421703
83.3238589392121
83.2129201815619
83.1588020202855
83.0972372523131
83.0571001914176
83.0759141949254
82.9956215214636
82.8534303414752
82.6914854321678
82.69094156336
82.7156160619577
82.718816457891
82.6844464225732
82.7075889359363
82.6879285693041
82.6349587586057
82.6074623505097
82.7129016499786
82.7186542292061
82.7821315005362
82.7354340813588
82.5593431335047
82.5166928349001
82.5470948283884
82.5390916187047
82.6236014872448
82.7381877470754
82.8475481762732
82.9081401543869
82.9719214215902
82.9209801783957
82.8862571006685
82.9679855161056
83.0445174935935
83.1148713147182
83.2633574937829
83.4176948818156
83.5647073973922
83.5543662880346
83.5666959459829
83.6369297712527
83.671335008659
83.7546470781192
83.9272095336166
83.9896703926449
84.0799807631792
84.1376673998404
84.2129521234039
84.3020475726921
84.4436679933638
84.5626013911027
84.5333323277407
84.546911103276
84.7149367688081
84.7182709876763
84.7379534546688
84.8136865440112
84.9933770404366
85.0939907801439
85.0848219867136
85.1220513609246
85.1557181574036
85.1892364808631
85.415666731064
85.4646550603808
85.3526220483223
85.3219876527471
85.4273395462449
85.538728641385
85.5199964279438
85.3592738519679
85.3705433616177
85.4200231686055
85.5120965131218
85.5184356234078
85.4178498150614
85.3961619789122
85.5144225060606
85.6072830701186
85.645864265064
85.7491796831095
85.830219310795
85.8018271955776
85.9096745798303
85.9548196586933
85.9684098327712
85.987357812906
86.043458783898
86.1444768410738
86.3054685105863
86.397101576286
86.5781669913909
86.6153001748695
86.5824221087916
86.6870741976871
86.8092687110097
86.8188965760239
86.9193777008787
86.9324278245065
86.9203432629575
87.0137477300503
87.1377057184573
87.2175249036931
87.3258511996766
87.4067270120107
87.4876050923391
87.5731161582735
87.6158750603742
87.5104645532523
87.6069981341302
87.7611092651085
87.7659928194313
87.7562972501677
87.8003643982522
87.8733545253718
87.9676516655957
88.1070029507021
88.2134856564289
88.2700047377545
88.3323724794903
88.3602990068668
88.3818644663885
88.4163275434385
88.4799815489891
88.6100718199039
88.7734866057683
88.8236093816901
88.8553154850399
88.9792434388217
89.0775293565033
89.0725895493047
89.0450819732814
89.0779114455364
89.2870290301437
89.4061706630236
89.4897213162061
89.6152606024778
89.6794202445882
89.6436821144476
89.6220781584125
89.6551167117935
89.8336104857627
89.9157211193968
89.9522743063117
90.0010779724519
90.0398008500257
90.0869300838851
90.2104237844006
90.2304719969142
90.2717733182642
90.3682216709672
90.4101177275606
90.4591610134924
90.4998031745362
90.4828683293108
90.5580563634238
90.6801004820397
90.8074707784128
90.7772406142886
90.7761702940823
90.8416752740618
90.895249410218
90.9992299973438
91.0548187719811
91.0483565193106
91.0962163957235
91.1734136503888
91.231366497752
91.2876302125409
91.3044752287082
91.2168690758724
91.2632229298198
91.38927869064
91.4929062792298
91.5188708058608
91.5331898713832
91.5490509670364
91.5804566763688
91.633746285257
91.6737456850771
91.7022165519341
91.8095639368153
91.8332511455648
91.8332622063915
91.8802227628225
91.8900011422384
91.8875978929095
91.9403185749569
92.0058485319421
92.0827102285993
92.1038585760581
92.1092251344066
92.1231945117004
92.1802011588624
92.1577960645262
92.2019709989262
92.3140688093004
92.356640416357
92.3582426422709
92.3450754367132
92.3207158652034
92.4316697503066
92.5063245438373
92.5119622179115
92.5438116591303
92.5214403090025
92.4601307355697
92.5471338861114
92.6045304504155
92.6047429494923
92.6409359890801
92.7046254279121
92.7180995379749
92.6926637763074
92.702435763285
92.7349301739885
92.7025970028927
92.719676895065
92.789723793363
92.8488355721588
92.8296282394939
92.7796432298069
92.8039162798497
92.8746558973516
92.8958111325603
92.9391720196689
92.9576428843504
92.9233303739025
92.980900868907
93.0547078385073
93.0851087759774
93.0847646349226
93.0821096509503
93.1198539260264
93.1193623539003
93.087126963287
93.0918074041028
93.1241703501719
93.1175658245283
93.2181446543639
93.2853534502014
93.2455614939232
93.2242994422062
93.2626980275495
93.3117211171434
93.2865586177401
93.2914831191064
93.3262078354119
93.3402302564247
93.382115975713
93.4197029552638
93.4305038109302
93.3979810594226
93.4201472383004
93.4599958734342
93.4848761491346
93.4938143733873
93.5380684971102
93.5979976218327
93.6093086384437
93.5561533174475
93.5499524730994
93.5833367235049
93.5869115323396
93.5872731301231
93.6178220744083
93.6712497004936
93.7024119502784
93.660939205214
93.6032916324293
93.6447248698979
93.733688957312
93.738456363836
93.7464656718164
93.7841673184095
93.7892913989588
93.7961299044207
93.7823112219865
93.7385767881885
93.7675820707964
93.8141361184736
93.8097972800968
93.7859280521645
93.8517684351997
93.8750015352373
93.8943884645683
93.8905848385168
93.8420498891743
93.8065948723404
93.8816193874932
93.9580753918762
93.9359104640533
93.9242656231609
93.9384986268985
93.9482248661809
94.0161258173397
94.0249954834204
94.0580596604439
94.0965268079881
94.0749932925138
94.0733205428846
94.0694936011246
94.0754878610755
94.1025385740424
94.0869474787663
94.0613087807909
94.0857340708304
94.092928766274
94.1267892209576
94.1210741909663
94.061514560211
94.069372386305
94.1186453681335
94.1474566380807
94.1264980121208
94.1433022629953
94.1795493610293
94.1731077354067
94.1302907287008
94.1367625742239
94.1806545901305
94.2064993119521
94.2624581723054
94.2471941528748
94.1694557726526
94.1968562602582
94.248057248835
94.2517068437495
94.2708090750155
94.2744952691641
94.2364054868578
94.2251252544533
94.19231636113
94.2059666214293
94.2660997544292
94.2961266023792
94.3139438381497
94.3300154167682
94.3280048509622
94.3147017035296
94.3337521331752
94.3453441616046
94.2999162552324
94.2896651334692
94.345876510271
94.3554256496606
94.3296308287682
94.3440789487299
94.3120993403605
94.3082990262614
94.3552137365094
94.3676649945656
94.3822782066576
94.4044190867026
94.3856454737573
94.3698100358427
94.363311620572
94.3649200217124
94.3973654555117
94.4425926512601
94.4160241527553
94.3993309233921
94.4340104296759
94.4190619162241
94.4126707017516
94.4168899858132
94.4114503798768
94.4288791656085
94.4594309753898
94.4840665380299
94.498207397502
94.4532056414123
94.4300887830562
94.4834069303631
94.4837875999563
94.4846051065085
94.5190786683124
94.5102941954624
94.4745687675343
94.4661909032325
94.4733045204338
94.4692499940455
94.4680214434687
94.4905062331271
94.5222090865297
94.5406539708505
94.4851746091984
94.4566206994026
94.4322049157332
94.4245522021976
94.4427146500457
94.4669309414801
94.4658025547452
94.4586697966671
94.425031165546
94.4088313109304
94.3824654099946
94.3497426144709
94.3998830349231
94.4504489776454
94.4884366189677
94.5109440151261
94.4966829163511
94.4772586198265
94.4943499749973
94.5188041723929
94.5193446538389
94.4973713709833
94.5159017109261
94.5866941096507
94.6152791694971
94.5879354426511
94.5506888584932
94.5758433251894
94.6309970559876
94.664924499104
94.6324354343202
94.6212644080635
94.6234343230658
94.6566983854865
94.6833088749553
94.6535443654697
94.6560021632814
94.6959270345043
94.7075209303737
94.7611729203612
94.7729968924048
94.7451447720289
94.7081148704005
94.6675563830472
94.6943096008384
94.7308441776549
94.7681342332052
94.8149902929013
94.7963657530225
94.78178655359
94.8652526565458
94.9455832177793
94.9092743812528
94.7738995459938
94.7508518419844
94.7938962181783
94.8020684373921
94.8322624517304
94.8715469026733
94.859184691881
94.864514776997
94.8796588843493
94.9094500976069
94.9185514162647
94.8880005344555
94.9085759617283
94.9389497914264
94.9541767780017
94.9169335235041
94.8840314413698
94.8235611305645
94.9010412342511
94.9696191913019
94.9112016878584
94.8760433264339
94.9100440221954
94.907390047046
94.9073526749232
94.8880871745235
94.9055170375937
94.9197009614905
94.8813093468871
94.8011035517908
94.8782344860606
94.9523981542984
94.9372791838084
94.9395064430818
94.9442961446659
94.9265041275908
94.9390067129189
95.0315804030208
94.9837229345148
94.883120136656
94.9899577199003
95.0488231401537
95.0266003281261
94.9656606395116
94.9698163996103
95.0083557353298
94.9688843500641
95.011662492534
95.0779322092141
95.0036805367079
94.9107258119838
94.9529384234677
94.9876642178185
95.0039278813759
95.0203932508006
94.9803419794607
94.925790648706
94.9598683709383
95.0574267144166
95.07795918694
94.9377928362172
94.8743162755915
94.8546653667387
94.8922392239063
94.8712640768353
94.8876263183521
94.9466673433983
94.8927379307615
94.941102267956
95.0464369584611
95.0348250165784
95.0369822643138
94.9910812761567
94.9410203036286
94.9521932700539
94.9397487444934
94.943661655277
94.9778099401587
95.0353361806939
95.0804311990808
95.0453229617534
94.9639515046064
94.8752929959126
94.8961318991415
94.8571891950715
94.9227541720488
94.963344776391
94.9091748798772
94.9365321001588
95.0263062160167
95.0666724073805
95.0301338140033
94.9936058162994
94.9166679774288
94.866173705853
94.8517806007567
94.8951858766181
94.9363747373266
94.9257229018188
94.8746896334288
94.8713983799715
94.8386792845899
94.8331554449855
94.903787030009
94.932186122307
94.9978426928464
94.9674572421715
94.9242512552783
94.9183336926066
94.9617916617077
94.9455042103253
94.9238563933255
94.910271350941
94.9687051212099
94.9696368462157
94.862540895612
94.7770264813021
94.7422018746782
94.7176507723622
94.7412201620113
94.7459255553189
94.7244955524009
94.6988994252026
94.5997450276151
94.5722945877036
94.6452474931733
94.6376442965882
94.6583362836251
94.6399337638811
94.3812752482559
94.2038897268154
94.2662283230428
94.3695600315825
94.4865267129642
94.4684550272305
94.3903608115041
94.4454325504621
94.5931949165427
94.6506904528816
94.608752931196
94.5246601075731
94.4973231313371
94.5796695510839
94.5718122831025
94.4614716542292
94.4827927361887
94.5262826540405
94.4776129293063
94.431141101291
94.5328107933789
94.6279479203561
94.5161247102998
94.459637249183
94.5352068569748
94.6522524472567
94.7521951944307
94.7095165724854
94.7353276561765
94.8412537507405
94.8377269671011
94.9165258535022
95.023055135923
95.0361852511671
95.0493638156972
95.0575349818325
95.0545464901701
95.0942625406486
95.0851585366511
95.1025068662638
95.2568710316581
95.3202224477948
95.3351420394305
95.2131710271693
94.9363018430773
94.9947562321546
95.286303246457
95.4882078551395
95.4103649372983
95.3494447555068
95.469792126164
95.6858851505198
95.7161704991761
95.5959456636278
95.6854246271704
95.8612260281152
95.8439688591308
95.5838433902769
95.5008427109846
95.5587496878953
95.542485180151
95.6718054884107
95.7631693533499
95.3244742200663
95.2652117365188
95.8095766117133
96.102861744131
95.9407595515639
96.1278266914333
96.3795488113172
96.1315795900554
95.9020926283502
95.7710410776128
95.6362852665772
95.8910277992521
96.0605505479657
96.1851371275389
96.484406726035
96.5967527642786
96.641956942402
96.4956504054282
96.214783538789
96.1451132207479
96.3350245296388
96.2795216018235
96.2551195543303
96.4433894675236
96.5388181264805
96.8063911879089
97.1338526570477
96.9649199059493
96.7639414418569
96.9410375730511
97.0636765745682
96.8158450133634
96.491292796857
96.3283754713458
96.3940462050355
96.2538523097151
95.791489142672
95.8313947923816
96.1050944658181
95.9967816993788
95.9540375094684
96.1232868256107
95.8644596191017
95.6979862434472
95.6424661829814
95.4469989380258
95.4935143530692
95.4888761993415
95.2679400565088
95.106234925856
95.1041427085623
95.122243400142
95.0960534011891
95.0220173465784
95.1429988576995
95.1416606339554
95.1440608384342
95.0555947827216
94.9241320870285
95.0976105069807
95.2463574667118
95.3698043934277
95.5295478918251
95.3786014990105
95.1965957007135
95.2753123902083
95.2483264553407
95.1993790362112
95.3006363825207
95.328831567341
95.1755558351945
95.1300799198021
95.2890494961718
95.23021771177
95.1252765006614
95.2994289913211
95.373903788955
95.425684192221
95.5842381890098
95.6215296399064
95.5318459050173
95.6723826598888
95.6881401800151
95.6886915423733
95.8154987429591
95.8340088524522
95.8181123611167
96.0218187297768
96.1142042566404
96.2084203181413
96.5516803394059
96.6791227464145
96.5151233957879
96.3661947527258
96.0276854045875
96.3338696903404
96.9096394708189
96.9390910354853
96.7085509916848
96.4918644794405
96.3788070182167
96.557546562133
96.5329704308358
96.4297588044539
96.3343900390657
96.1486690698977
95.9018225777646
96.272498699211
96.7423589252771
96.7861761586556
96.7691577790023
96.5027509091136
96.2953250184225
96.2432854819141
96.2994830629469
96.2901572372981
96.113067702164
96.130433728222
96.2913875342656
96.2116514105408
96.2434108447296
96.2270454005222
96.1170433526471
96.1948282497922
96.2691675184366
96.4149867561414
96.9068203440993
97.124770715182
96.8484742992893
96.8653740729151
96.7276929045747
96.4633994208921
96.3235227287915
96.4092391009327
96.5220627669348
96.4528563012546
96.2458468905087
96.100747640984
95.9369865521865
95.8553613470906
95.8456414366307
95.8787077396451
95.9050992428631
96.0286734234872
96.0939165361902
96.0211456034626
95.8065519964351
95.5743137868485
95.5518594008316
95.6221560441634
95.6641683975492
95.6302838616024
95.5437682513246
95.6214767780332
95.6768398388834
95.4697295321325
95.3648659278392
95.5312711158214
95.5557402062201
95.4965497643122
95.4509657619718
95.4276929980485
95.3582457522183
95.4003963955215
95.3604849355633
95.3378835864815
95.3507033772855
95.2540137394963
95.2527987913649
95.3363334655165
95.2989632459108
95.2545482855455
95.3271497831368
95.3622145333408
95.2495999488853
95.1940302100656
95.2442981482561
95.2220132424221
95.1569586239472
95.1325620617976
95.1399112625414
95.0836315910419
95.0432757224946
95.0538826611301
95.1017622943826
95.1872996837313
95.2059406210716
95.1684832297061
95.1347489532685
95.1871939151434
95.171811967684
95.1427126756249
95.1383910932731
95.1022440723988
95.0116970750236
94.9921007768451
95.1265936553644
95.1943978176072
95.1441950053815
95.0486410326589
95.0193079970214
95.0822828310863
95.085211464812
95.0288171255131
95.0322844612095
95.0653904177764
95.0830861559429
95.0742133555812
95.0729132192889
95.0830139471866
95.0955816723012
95.0407641513661
94.9757526487521
95.0024022837495
95.0398944534103
95.0470993422897
94.968118550785
94.8492326538234
94.8317494927319
94.934719067184
94.9813513022618
94.9950877491414
94.9243105147306
94.8543408691347
94.950480549193
95.0203878545914
94.9802957748296
94.9682470661065
94.938925389997
94.880056656474
94.8721879317197
94.8761939099459
94.8674615171249
94.8029394482621
94.8077465727022
94.9423784415578
94.9752222050834
94.9908652167644
94.9246486021011
94.8037114789662
94.8249359279427
94.8821937854222
94.8669783435365
94.8395682198021
94.7280746098535
94.6448546294194
94.7203667151182
94.8415314073934
94.8474757510689
94.7900309719224
94.7303200020542
94.7118511500067
94.7763123657963
94.6703487170892
94.4098370109625
94.5691331243189
94.7676079707576
94.8050832232735
94.7430655670321
94.637691947552
94.5659451665664
94.5217909361791
94.3718483390578
94.254877794899
94.3901979128745
94.5167782382312
94.4720634077095
94.386252676649
94.2881347083848
94.1624163339436
94.1367627855858
94.0683764779026
93.8184994856763
93.883254142762
93.9215640924291
93.8984995251163
93.9215998490267
93.7589859133892
93.542660639879
93.3536951185749
93.0715462819083
92.837653534777
93.0183981466631
93.0263894503121
92.8212415916532
92.605402382322
92.4317769729719
92.3115246508715
92.0927978141248
91.9450101022091
91.9441966042374
91.8245297084225
91.54836486453
91.3240010929678
91.2055132984576
91.0179022843904
90.655050847414
90.154738874444
89.8039195178199
89.8368930297275
89.5267270026851
88.9548482821655
88.5097229673179
88.1667410630624
87.6870844054955
87.1605776824621
86.6283649238291
86.2698039712208
86.546741671273
86.8339764760153
86.8830309689144
86.8816898708601
86.9045538016543
86.8257270878231
86.6995334578309
86.5802403393759
86.2080062116002
85.7098946327073
85.4661453215797
85.4502176524972
85.3612879636374
85.3959748764066
85.6300115133896
86.0618528465308
86.5517267087576
87.0857147839848
87.5829092250914
88.0549891582555
88.4586704974655
88.8130754698746
89.1662375631817
89.499624179571
89.808671821983
90.058890221889
90.250767485543
90.4318145974844
90.6123200617666
90.7209583159039
90.6525040535064
90.6637066397608
91.0654192722897
91.2239242725261
91.1412013450609
91.2218404740283
91.3991922712205
91.4290797663656
91.4377381483456
91.2176885741642
90.7775327330451
91.2975321713301
91.7723186617055
91.7977370061055
91.7925787115127
91.7496245774795
91.7740743486263
91.6805393667555
91.5301418387054
91.4917770686781
91.4625028258143
91.7941997341932
92.1622239573372
92.0663327962009
91.9153638326821
92.0231410440427
92.0669391787236
91.9869591634855
91.9545705397608
91.9816605280449
91.9147639139519
92.0909442021966
92.2238820824665
92.2091542030511
92.3047728089723
92.3007026152488
92.2061746919923
92.0176474759331
91.7800314442923
92.2158661837056
92.5871238700787
92.5180659492862
92.3286105721799
92.1916049513933
92.2480238010116
92.4038835636892
92.3551054845231
92.1959429721593
92.238224264543
92.4033073608961
92.4965751600694
92.4530956025122
92.3598165531305
92.3141462078314
92.2554302613712
92.1876722804009
92.0840072138967
92.1597136573765
92.3862135266972
92.3643848909069
92.1846297227765
92.113912636324
92.2009984015891
92.1285318091291
91.8615585918513
91.7023834795535
92.0642688054679
92.1857641199318
92.0669288862848
91.9170392944186
91.8201926357455
91.8288265778889
91.8453302472828
91.8115388836662
91.7428534288794
91.5921995641586
91.5383585550495
91.755518781333
91.7775070582344
91.6465137287146
91.6305353527655
91.6567904650979
91.6010495182039
91.6020392117741
91.6062409893287
91.5221330380541
91.6467430440644
91.8137604812013
91.85025560494
91.8421071145037
91.858761256247
91.9127857610647
91.9138259637566
91.9391155818021
92.0426119367839
92.0619343154973
92.0798046729387
92.1613276055376
92.2212846794194
92.3422745957522
92.4271984589752
92.4450742300541
92.4224879625768
92.4939829950965
92.592259287162
92.5963822430794
92.605130512444
92.6603458867535
92.6975907271865
92.686499902053
92.7745689497437
92.8823682189243
92.9110736234237
92.9231838122407
92.9237560202413
92.8991074934284
92.9896405469894
93.1078959470934
93.1441156829893
93.1302425264509
93.1132867175922
93.148327742616
93.1980398750072
93.2331995884148
93.2467285475575
93.2494569739698
93.2430402694595
93.194780385377
93.1871547094904
93.2369974854512
93.2632814299337
93.2941182302287
93.3138494597638
93.3005382244517
93.2915185017468
93.2852008771078
93.2874486725252
93.3027809965847
93.3195122330333
93.33810504979
93.3619240062069
93.3967557585118
93.413086981353
93.4064025287444
93.4095796046994
93.4008730639717
93.3989766026529
93.4134595233277
93.4309380457194
93.4273156585203
93.4130767141626
93.4039712413066
93.3944573065183
93.3689222037067
93.3621002443116
93.3621781291338
93.3347006843531
93.3043420410047
93.3030447376512
93.2901176882182
93.2644533399875
93.2098974246117
93.1611243186271
93.1134369989016
93.0637941038416
93.0344896486527
93.0158612798884
92.9823435766904
92.9149098673394
92.8493183680459
92.8188707906675
92.7840399977608
92.7325170373073
92.6450295625637
92.5331270963197
92.464255134782
92.4266718813162
92.341659235148
92.224885264721
92.1222070598635
92.0230149166268
91.9044806750097
91.7348109074878
91.5793860113285
91.432608803927
91.2832387562674
91.1158048515137
90.9291370035648
90.7338617586631
90.5038978112229
90.2466386687475
90.014182328567
89.7734047485824
89.4665439133064
89.1706250605837
88.8953967722554
88.5742526524426
88.2328871369837
87.8691162121896
87.4728912365535
87.0660191560495
86.635235762404
86.200895186661
85.7636948897906
85.3076373093273
84.83942688239
84.3723019092417
83.8975080073541
83.4355721808114
82.9748900559836
82.4868636129048
81.9955546008858
81.4936661111415
80.9794365037382
80.5093781203345
80.0616056920479
79.6198220982017
79.1751403476188
78.7449858625545
78.3216037904706
77.8939636047434
77.4900390705493
77.0939906250038
76.6938542260644
76.3341615051887
75.9894795379751
75.6095685596928
75.216009245103
74.8105979965356
74.4391898324434
74.0889056391746
73.7310556807993
73.3573725745869
73.0016142102935
72.6793034243378
72.3483421018076
72.0304580437288
71.7870118641777
71.6374387719123
71.5362182494662
71.4621460848993
71.3644523947514
71.2436637750052
71.1598047056298
71.0877001102351
71.024861985781
70.9781167933856
70.9334060356724
70.8992434672547
70.8953164821635
70.8794561875314
70.89423200103
70.9597145773837
71.0581753731285
71.2103073424231
71.4172970113065
71.6941166362518
72.0821341211177
72.5148538987743
72.9635949463948
73.4690431807483
74.0156297996283
74.5508827491276
75.0736709368998
75.5736070815759
76.0471848096328
76.5100565181981
77.0093453667476
77.4724115056279
77.9484188882742
78.4817313824106
79.0093243417153
79.5295015630967
80.0776930398938
80.5933480481611
81.0935138690677
81.6034097856916
82.1037550623429
82.58449969631
83.0193648829811
83.450866816391
83.8883692258415
84.2529441746837
84.5585394269821
84.8748130857585
85.1670314751426
85.3951667473175
85.6127432276835
85.8344825697555
86.027646899575
86.2184816955892
86.3745616034397
86.4777481699913
86.6159473451943
86.7821819870671
86.8975436711489
86.9587118530659
87.0372924030089
87.1349823404957
87.2340091470023
87.3030945201963
87.346252034203
87.3894789495149
87.4631723106286
87.5431208743805
87.5579498808054
87.5828813169071
87.6472007909965
87.6947289281979
87.7363565150898
87.7267772275607
87.5565913592866
87.3534552971874
87.5045676530156
87.9295396713303
88.2996096656674
88.563477765676
88.7448633357075
88.8905634876651
89.0274880279992
89.173450355255
89.3338874164766
89.4500033588069
89.5681603867999
89.675721151142
89.7714920571055
89.8824002098064
89.9741753988243
90.0596439613671
90.121868829679
90.189799656967
90.2836060831356
90.3597252608546
90.4079121862011
90.4979720589324
90.5864867921151
90.6350086879031
90.6815065464716
90.7158434231724
90.7555352123023
90.8168325093672
90.8783224012388
90.9312133061683
90.9377184343312
90.965588913959
91.0384390349687
91.0798125208066
91.1053203106581
91.1459339794842
91.1852779816137
91.2168948274611
91.2431575851933
91.2469538237593
91.2758657886168
91.3067550735745
91.32297965064
91.3749482064142
91.4014677768645
91.4029559715169
91.4359820371093
91.4968993281168
91.532886091414
91.5538521178604
91.5539796600449
91.542412273181
91.5531853706268
91.6139420967218
91.6403994814183
91.6113059605973
91.6313317961446
91.6600937519412
91.6347824657274
91.6315202244815
91.6588380072322
91.6624471839586
91.6323561245638
91.6032012059337
91.5726408077767
91.5142881078172
91.5349315209494
91.5768037172201
91.5330333818349
91.4943712267354
91.5013239257827
91.4873676093031
91.4841861521376
91.4626590739066
91.4285451027714
91.3926517575002
91.3893602344319
91.3960117924217
91.3666002055844
91.3874308075262
91.4099617673477
91.4584552018677
91.5157195318096
91.504480671527
91.5084666191616
91.5101539046878
91.5186662520137
91.534853261367
91.5129489885767
91.5056552879106
91.4750896543403
91.4510598256636
91.4422347342822
91.4341084460921
91.4273921587278
91.379161495083
91.3567046173871
91.3370871313962
91.3159477700412
91.2978087668548
91.2898895542157
91.2946330841988
91.2476504600742
91.1511908213464
91.0895604412486
91.0960307092725
91.0748804039071
91.0459710353435
91.0077617601065
90.9694521488548
90.9737476071296
90.9464393149723
90.862106989722
90.7603946904219
90.7318968356278
90.7088161247454
90.6685673089879
90.6199332181676
90.5802650488461
90.5404665285156
90.4616313674122
90.398260670635
90.3722187547329
90.3324439092999
90.2767297245538
90.2082776936524
90.1521075740148
90.0843138243796
90.035329677153
89.981944300211
89.8745172568032
89.7556672735086
89.6713786668113
89.6521920400116
89.5415044868891
89.402890000897
89.3056467825495
89.2739014523889
89.1747289748704
89.0117908208919
88.8892892989256
88.8358762149867
88.7549373054281
88.6130240922914
88.4671521145716
88.3451205024456
88.25582573435
88.1245656806208
87.9501934223587
87.8282836355511
87.6730425769009
87.5320142535348
87.4119986997471
87.263858129768
87.1032662793775
86.9773855650539
86.875759914066
86.7346999541417
86.5488178598478
86.351085188406
86.2317168990265
86.1650596850315
86.0442002350481
85.8731785188248
85.7254763046961
85.5851944962104
85.4454039445066
85.2735214085981
85.0703791720435
84.8708402048114
84.6019837203497
84.3456311397837
84.1322747345702
83.8879595392542
83.6174472074736
83.2118248258049
82.9302203045113
82.7283110426739
82.3222129574958
81.9191801618105
81.5778141687694
81.258062979715
80.9911050892467
80.7339767096184
80.5162865781573
80.3426718512597
