1798
3999.43349933624
650.420452594757
1
128
4
96.4966705368914
96.3687189026959
96.3613731082309
96.3612161515393
96.3901149435448
96.4518057371856
96.4777475604501
96.4417226117395
96.4001790515501
96.4864056448172
96.4801597768274
96.408032663861
96.3687437761944
96.4302907085048
96.5130119817158
96.4940597977007
96.3648095834078
96.3658333825833
96.525535196586
96.5542126065042
96.4245657006846
96.4226472726707
96.4404995876676
96.4826173354408
96.4656020931263
96.4077249594337
96.4233517246915
96.4427234278384
96.3688833982497
96.404366967602
96.4565129297193
96.5451718636469
96.5326756808217
96.4249300687754
96.3990964656084
96.4351497155813
96.4464426310212
96.474595684055
96.4440586851569
96.42778262653
96.4502862761463
96.4309759243311
96.4034845218098
96.4410777951417
96.435354951214
96.5001783629616
96.5370755962596
96.5253077834426
96.4079377523954
96.195593992814
96.1803978363319
96.1958887513654
96.4346222096469
96.6081050301107
96.7776092497591
96.8104330802958
96.5942708992461
96.4740896427385
96.4186745301114
96.3749433133833
96.5178806897667
96.5320851543997
96.3884696062989
96.5127084823724
96.7555270306945
96.665169316235
96.5218076518437
96.4577355428533
96.2719476586889
96.2314805554928
96.277430156135
96.5197202924084
96.8885195356627
96.7704893071617
96.4909059147585
96.4284534906341
96.2850703904844
96.046526314086
96.2421603883996
96.7697276126696
96.8925340243389
96.9059215578669
96.795417455232
96.3593522417352
96.0239488119783
96.1253010687048
95.9788343784246
96.0277170095045
96.5062940050302
96.6868478553956
96.7142917712313
96.8823394586604
96.7791885395171
96.4091500651109
96.3080710255275
96.2940099979192
96.2447134874394
96.466405624643
96.6731920613085
96.6147880389721
96.6604838567106
96.7091242107822
96.8631778839207
96.6177558891012
96.0764373093417
96.5001455676358
96.9078062274073
96.6012012305705
96.5853429303112
96.8997277413362
97.083307675069
96.8373802416036
96.6027662372502
96.3358510425985
96.1623874423346
96.1310808073958
96.0380674513864
96.0890371821364
96.3362322495979
96.6944073303125
96.8287640226966
96.7646969215743
96.7520402610598
96.8909775100123
96.8793725103328
96.5449185838491
96.4028580344383
96.406105085138
96.2713675823396
96.2709994891743
96.3254749408691
96.1751070831165
96.067423320526
96.014358388957
96.2342274444919
96.4919162943203
96.5520164851127
96.8721100686
96.9018111148489
96.7693320687785
96.7717741908425
96.5936432118623
96.6071916532024
96.8764003807941
96.8308214045414
96.7806302360132
96.7968384633864
96.7602859709283
96.6544181864504
96.63907913598
96.6094561836932
96.5436870154038
96.4174198936809
96.3195388928624
96.3854095249119
96.5235014668544
96.6626771399263
96.7059704120788
96.6793742032093
96.7162401256224
96.7125959786391
96.6640808258813
96.5876270340911
96.4631110015534
96.1938850459896
95.9522623576898
96.1803046198934
96.6023302548045
96.8792787863582
96.8260260884405
96.5668885997047
96.1801791673473
95.863545137173
95.8902738978359
96.3344140426743
96.4592063579997
96.4863569212495
96.7980872999908
96.8687652198316
96.7733049878746
96.6040894828918
96.3119295504227
96.0096134986602
95.7537408309896
95.7420435028565
95.7904339831983
95.7896820645108
95.798439026788
96.0036147521177
96.3277427499965
96.4039486895156
96.1704236125035
95.9472205204346
95.7863669465413
95.6078648585371
95.420936133418
95.3041815776625
95.2497818980486
95.3483458264571
95.5351797589983
95.5957672977319
95.4437482625759
95.1700551028803
94.9519377604172
94.8068949217558
94.6397948895666
94.5893664611393
94.5723883825779
94.5519542546186
94.3371700966798
94.2727556537136
94.3152752033686
94.1396762104082
93.9066989826696
93.7331764027668
93.5844661692149
93.4137453332787
93.2241477690859
93.1087858164702
93.1023688333839
93.1104154976441
93.0490250245694
92.875776642452
92.6886018254327
92.5989239201559
92.5468253274784
92.4047678779144
92.1295349325169
91.8535444265743
91.5944587545184
91.4912748105805
91.4853806392118
91.4896209916023
91.4435445557306
91.3219775588291
91.1910733147205
91.071781468776
90.9630012897485
90.8535943999718
90.678084750298
90.5192795984957
90.3183258913086
90.0982345131451
89.9840078075852
89.9053993553063
89.8584128059952
89.7521964942662
89.5770844996383
89.4907569433743
89.3765919935339
89.2551916470304
89.0775662397294
88.9176540617184
88.6687665467234
88.5013613074538
88.5802694093443
88.6118612009707
88.4868910232167
88.3081667861469
88.282680298658
88.1580537988488
87.8946992893798
87.8320347251933
87.7587487328851
87.6551407709251
87.5618844603533
87.5214708971704
87.6333214661651
87.7040701564585
87.59387934775
87.5049651851947
87.4566485268968
87.5384293973537
87.5583788834227
87.5641379946426
87.5416976273836
87.4566351163009
87.422755317906
87.4900209735977
87.4675516876423
87.3866032353276
87.3216850885703
87.2719040991503
87.2241546950569
87.3115558615055
87.245194355041
87.1684239506761
87.098636202458
87.0179023035257
86.9443784578197
86.9376046249662
87.0164368233145
86.9052539989449
86.7071716346678
86.6316399973798
86.5939508348758
86.5239103258789
86.3534939293257
86.2266651373195
86.2013757509689
86.1883099359921
86.0662095373902
86.0435390934129
85.987397255865
85.8231837394491
85.6304865028645
85.5144954229101
85.4657542695543
85.4370976492758
85.2795502906853
85.1035357436208
84.9498129650634
84.8506961561877
84.7189348320287
84.4857408956126
84.3014177389984
84.2960634005032
84.2825901097642
84.1974550719082
83.9407419246966
83.7124576060129
83.6540332084752
83.6011460093069
83.453261218225
83.2638696338764
83.007691917309
82.9159342412694
82.9143420407954
82.7650209979743
82.5801393119766
82.5204946517026
82.4563354024323
82.2990865931008
82.1268754876056
82.0377168940832
81.9646389182106
81.9695676061887
81.8335401934235
81.5599352258932
81.4436088397386
81.5294667444473
81.6000786563414
81.5779086933116
81.444008769205
81.3293196846781
81.207683388748
81.1027703593227
81.0652972011447
81.1749670087314
81.2784457552083
81.2739477338425
81.1428048230063
81.0472587710919
81.0796304614233
81.2093431783081
81.3061220961091
81.3100215903754
81.3137896847882
81.4085002649359
81.4145072398784
81.4674535495025
81.5615550964399
81.6566498414916
81.7318849159037
81.9001588539318
82.1418412115298
82.2624267805798
82.2557127833573
82.3845998588794
82.5249563477071
82.6479089965365
82.6973184202075
82.8784270734432
83.1132750011419
83.2354629287553
83.3127521692887
83.4045386743423
83.4973294289328
83.6505010759631
83.7784678739363
83.9129547481416
84.0680820829961
84.2326410799944
84.3694143198345
84.388485765291
84.3753459058333
84.5677862939401
84.7274801288843
84.8325733463981
84.9549613982257
85.0059530779562
85.0253037722755
85.0978590381264
85.1884114992738
85.2995224951758
85.4350111207377
85.5020174144934
85.4568706638108
85.5162119717417
85.5876859528098
85.5880860706246
85.6357879797413
85.6412752786679
85.5448561406669
85.5118279001021
85.5374898422433
85.5952215440665
85.6256374100364
85.6573799915114
85.7317338478879
85.7634023388643
85.8098327798184
85.9862932902782
86.1312485824586
86.2043612052425
86.2602403786514
86.3576915543221
86.4526164916536
86.5572238681633
86.7005800189945
86.7498986543477
86.80588227933
86.9542083869842
86.9923555171266
87.0678940079788
87.2213318988896
87.3397977034144
87.3945931187528
87.4338437728678
87.5627091071439
87.7489266306433
87.8022418660408
87.8460229123264
88.005481911551
88.0997757763876
88.1124918446837
88.1843527161226
88.264096824718
88.2552999038314
88.3556199069369
88.4480602327354
88.4654562154873
88.5124811503143
88.5414384658131
88.6507454010055
88.8238152845825
88.8927847581609
88.9122236088634
88.9811285106059
89.0904342635618
89.1994794576065
89.2640651509423
89.3547881424339
89.4952402204711
89.5870208334962
89.6268969344581
89.6968917490059
89.7308676194669
89.8129830998208
89.9354094034241
90.0820382516108
90.158492113697
90.1424358132289
90.1855231532932
90.2836522049165
90.338521479437
90.4706790117687
90.6210701979577
90.6863679769497
90.8068937678452
90.8928343421773
90.8731133387427
90.8818495244744
90.9597340860901
91.0364861221051
91.0921582450358
91.188522485348
91.2501026761737
91.2956800412111
91.4213545365319
91.4669233643608
91.4853619601083
91.5899665652326
91.6481115579257
91.6243502909299
91.6478710273206
91.7393000642307
91.7877763970127
91.8139777671694
91.9140782120161
92.0630709204497
92.0653488160716
91.9922449906004
92.0518506698072
92.1800695966156
92.264316070649
92.2939801387296
92.309670892397
92.3429177979034
92.3298516403374
92.3556840763874
92.4848178630109
92.5869429228827
92.6192517445252
92.6688576693219
92.7113030166635
92.7052209067298
92.7191215840317
92.7772219195509
92.8432892087853
92.8815102230846
92.9531066775331
93.0061578417636
93.0029788423652
92.9724710004539
92.9585540112696
93.0341806741839
93.1492078925569
93.1534627070271
93.1176598327457
93.0918938145085
93.1332263901754
93.2788160720385
93.3968208143803
93.3707969796819
93.2916606824801
93.2894347134464
93.3707076612217
93.4483711135676
93.4222202737083
93.4226928003716
93.5425958580889
93.5543439134857
93.5330612112073
93.5847368597509
93.6111429262098
93.6016607435056
93.6554546924027
93.6903631100963
93.6839178411872
93.714501075184
93.7567145430722
93.8124592420824
93.8268874025415
93.8289771538212
93.8006948489451
93.7956864236694
93.9085248664368
93.9919184532022
94.0250975132003
93.950678904653
93.8880186775102
93.9274645701668
93.977776293953
94.003955180998
94.0151699929688
93.9805166486826
94.0000736590709
94.1042986537212
94.150856561508
94.138997997212
94.2063490873343
94.2337997750989
94.1628858611322
94.1301717387619
94.1791032153266
94.264421617611
94.2253657772784
94.1569032282436
94.2279386573018
94.295998363144
94.3477346532131
94.3445186945205
94.2648547199943
94.320744598375
94.4111440632231
94.4102622893262
94.4418609825164
94.4600451963163
94.4342232770676
94.4392044842253
94.4755568250973
94.4759461753941
94.4626878524728
94.4900957433393
94.521250761101
94.5356629400356
94.5751983811407
94.6056047878066
94.5872245268483
94.5687438807553
94.6006714659452
94.5851535988064
94.5534741244282
94.6096793175659
94.6955154627812
94.705998507991
94.6535574835169
94.6249707389066
94.6584911995821
94.7482594656153
94.7520145042679
94.7603746158878
94.8033065948712
94.7750252098608
94.701845624769
94.6643108558648
94.6834961219723
94.7019715585247
94.7420489213968
94.7799762352641
94.796291138446
94.7660480290899
94.739240767263
94.8224377949441
94.8889459815289
94.8490779462871
94.8445223975174
94.9208938061956
94.9421979123249
94.8909425229269
94.8725552450915
94.8918867139488
94.9263994097089
94.91931951257
94.881568878025
94.8584594792496
94.8821690993666
94.9140728239443
94.9103565556664
94.9170483826927
94.9720119882453
94.99188492901
94.9698725760267
94.9939868451274
95.0245245797854
95.032454630572
95.0578989401315
95.0574335098837
95.0151833400154
95.0031158382655
95.0236752042133
95.0309483130241
95.0606212600949
95.0939252771675
95.0842214796617
95.0863596675092
95.0858416166195
95.0518463591786
95.0868022033829
95.1142532858341
95.0986340142563
95.0885233333554
95.0767376629003
95.1144039703198
95.1436700310993
95.08581017179
95.0896137396114
95.1093055655255
95.1164843994006
95.1539602729571
95.1819016926256
95.1735666129383
95.1864242263193
95.2192265139467
95.2051880391617
95.1716710622532
95.1687064340473
95.1660099732906
95.1786812911154
95.1915104089537
95.1738533247072
95.178130190797
95.2181748706634
95.2730102086687
95.2731840177279
95.2616437410831
95.2624863991499
95.2183199067617
95.2052029465609
95.2044653523574
95.1801903969039
95.1847879659737
95.2094305507124
95.2129626611103
95.2545408080937
95.2980865074112
95.2963523629583
95.2621944291413
95.2319610145334
95.2093892335354
95.2214363324658
95.2995420893562
95.3126199021901
95.2175002490445
95.2295715703017
95.296521811584
95.2933859904187
95.304455228857
95.3088408845786
95.2570138656269
95.2606749545197
95.2920065441451
95.2842439707808
95.3012596919232
95.3125060697032
95.3189134544289
95.3355276736808
95.3510555317305
95.3843627376342
95.3698213450842
95.302165030953
95.2998430799751
95.3580529607553
95.3977797614952
95.3738362177529
95.2892946764207
95.2382903258717
95.2162704196127
95.1811087828042
95.1603463491049
95.1964676463984
95.2056299885929
95.1714416002582
95.1748280562341
95.1775693505029
95.164773015404
95.159761696596
95.1351126864271
95.1672444202601
95.2031913060143
95.1971996217803
95.184965589986
95.1872330665641
95.2193369325455
95.2390594901808
95.2234276226536
95.2635018893189
95.3056435986716
95.3246857591992
95.3148506577744
95.2715051820274
95.2987833448618
95.3605943485454
95.3855437336146
95.4257328975943
95.4179285824822
95.3677465314056
95.3829763841464
95.3994816174978
95.3873735899803
95.4432971096655
95.4716362349007
95.4473688557832
95.4789359671199
95.5104837173871
95.5126901150093
95.5035987803639
95.4612835622508
95.5090649092261
95.6165121003638
95.5862482334693
95.5579388375312
95.6238934339075
95.6562298285661
95.6196407582905
95.5480541351057
95.539612355433
95.5162135515541
95.5810884663714
95.7727177860019
95.8024630758125
95.6303648017522
95.5634261983698
95.6165182489685
95.7015770911863
95.7601043847615
95.725654749266
95.6732646967508
95.696837008821
95.7047333025656
95.6784584582693
95.8015247692194
95.884533713476
95.7356656609701
95.6351997887454
95.6674240821631
95.6638837761826
95.6392973169007
95.617527201504
95.6371283489546
95.7116572047898
95.7511215137217
95.716048733951
95.6427495571382
95.6472630181321
95.6711642158388
95.6967112722994
95.7678558418542
95.8256199520565
95.8218538008441
95.8643848475904
95.8441623276101
95.8087080526946
95.8672236010887
95.9099386195514
95.8337344736314
95.7239356811267
95.6352870104182
95.6473017421556
95.7910222826174
95.8431695327703
95.8079955457439
95.8825023399381
95.9459132005014
95.9115868917138
95.8237538525454
95.7927393719049
95.8026839510475
95.7703901248912
95.7947187969139
95.8695542560773
95.8724004632993
95.8182074265459
95.7688987501982
95.7675562531626
95.7942931353431
95.7803489368803
95.7144492497876
95.6755540609059
95.6737903942268
95.7781035953578
95.9076713264142
95.8815717922876
95.7873161546612
95.7835412439305
95.751732081611
95.7390600512009
95.8164414136367
95.8760065299205
95.8625380915221
95.8621916904368
95.8702609407413
95.8360958651198
95.7888169242659
95.8198925448979
95.8634441030018
95.8906836770392
95.8623377253277
95.7668225547552
95.7454083695715
95.815772363543
95.829735598789
95.8060924386738
95.8244331277668
95.8199408114583
95.8666360769199
95.9124504651359
95.8346731169333
95.8744725056734
95.9129743098522
95.8214309870048
95.8099572206719
95.8669416752629
95.8440092312395
95.758176238959
95.6985777292948
95.6542690666466
95.6239765428873
95.625904726674
95.6083513866054
95.5588460862179
95.5090048728421
95.5252826891371
95.549824732747
95.5857158079237
95.7100135904766
95.8404163197928
95.847293660657
95.8456763945114
95.9075476457168
96.0009268279764
96.1142622334527
96.1170563735507
95.9748246636231
95.8027287254667
95.6069999179069
95.4154975591806
95.3481913286561
95.4084259219027
95.5108292822335
95.5688076716121
95.5561663247553
95.532591184963
95.5476923105189
95.5745479192695
95.587316581918
95.5433210191225
95.3420643379188
95.1440251874811
95.1104974778927
95.1169891063909
95.1510403445177
95.2162074504524
95.286441391026
95.3739180157043
95.3352101498091
95.2629503065699
95.2539810687302
95.2615824065603
95.2751454876864
95.2139387176431
95.1615633854149
95.1946589044182
95.1930094274623
95.1930779797856
95.1462425778831
95.0890323600901
95.0485353536567
94.9949086848052
95.0531186046108
95.1572921417467
95.1865889780079
95.1775066858915
95.1785775945189
95.268117475036
95.3511586171809
95.4405457804804
95.5475493218576
95.5331476414812
95.5165107552397
95.5031971851416
95.4923166710567
95.6239142890315
95.6606545321364
95.5605984471891
95.5825981120296
95.7331267416593
95.7908583903905
95.7386437155705
95.7368023774247
95.9789288521662
96.0046810949004
95.736750015712
95.6938062131803
95.8085694962189
96.0451068387481
96.1542019861931
95.8747325283826
95.860479463692
96.182540107803
96.308573308224
96.3773777442342
96.4338421130511
96.2977720805236
96.1653315594914
96.0599409060099
96.2984532932188
96.6416440547979
96.4692013049056
96.2458140568129
96.3878877534878
96.5131298809408
96.5413886951474
96.5865750941874
96.6606547022731
96.5832052175802
96.3953725849079
96.3078423222946
96.2997207379256
96.4610758436997
96.8386592129273
96.9559550517375
96.745309905332
96.4291596760926
96.4277730662592
96.6925434643905
96.8720334698222
96.9600754094382
96.9610646040503
96.8727299807421
96.7735581939141
96.7583366741155
96.7451690857282
96.7480188110441
96.9210942853623
96.9588492241528
97.1682706418943
97.9602607887546
98.591039001927
98.4879275757644
97.9823181855307
97.6172748475289
97.5079815568255
97.4707745723195
97.3653161131252
97.100616421602
97.0111238546537
96.8821077383329
96.6404511158999
96.6433617915852
96.8089267022179
96.8942788274886
96.7360755535615
96.3856309659618
96.3318635224981
96.3990586868709
96.2880928724629
96.0277050685348
95.875106885414
96.0027413921897
96.020002941208
95.8025372874036
95.704615558328
95.6833817271132
95.6846042486755
95.79575194599
95.8416450479244
95.7296665046901
95.7051577653343
95.8021743990849
95.82587742335
95.9346016511681
96.1274562571867
96.1199371698054
95.9784976658187
95.8909901048214
95.8928536371923
95.809529444769
95.7136000976259
95.761989568242
95.8991494651541
95.97043032182
96.0163993190893
96.0741323434019
96.123797713551
96.0374369185896
95.9071671054803
95.9702826984563
96.1713467288749
96.3181343042221
96.3006100736078
96.2993012979093
96.3722572503628
96.1956312549806
96.0670087672775
96.3190697432878
96.575752369444
96.5842477051421
96.687943081691
96.8936221256237
96.9951400805522
96.8138874726663
96.6749353479602
97.0582383542146
97.4496258680955
97.5646991018242
97.8349730060453
97.6857154589676
97.270484276646
97.2388928445091
97.3347622229584
97.3730412253154
97.3499983545083
97.2332565539456
97.3820470751418
97.5505209971768
97.6452681936505
97.7065241846627
97.6806736484669
97.5536328718833
97.3696106044254
97.2952390645496
97.2026089543587
97.0327992977105
97.0442050868169
97.1341582883971
97.0466922446996
96.8728056895709
96.7722631012482
96.5748433046117
96.5538256099513
96.9517579356142
97.3085567502118
97.3582801587941
97.26297352237
97.2439999569482
97.4450137358841
97.5667254356399
97.5843555361244
97.6081694734384
97.7842460484036
97.6839439381608
97.2372304588999
97.1713112323896
97.4509380472358
97.2030109666336
96.9387131630871
97.0525469938173
97.0334832940972
96.862531011554
96.8286196670735
96.8392985969491
96.7240031529398
96.606561192089
96.6385360596034
96.7612007087683
96.7901342217875
96.667862171
96.6203094874847
96.5555738272182
96.4709674827243
96.4565531497107
96.4473933630708
96.4738267901861
96.511592682949
96.4948094385914
96.4059271239721
96.2998407877595
96.2498498607766
96.2089126634426
96.2042686026217
96.2519785572119
96.2818742982653
96.3027872847551
96.2950131303072
96.1408915697172
96.0775809661186
96.1326678925551
96.1534047100107
96.1478037537473
96.1206020792129
96.1600791640707
96.2215172704959
96.1322014540948
96.1088407298107
96.1018746828608
96.0024728702894
95.9569188280904
95.913850899481
95.8031603739412
95.7984270811407
95.799732650473
95.8289478822855
95.9518569370899
95.9592105293587
95.9212042769293
95.8812124638004
95.8336796252566
95.8560076194453
95.8573348101551
95.8122945852385
95.7441357201275
95.7214994339984
95.6988464890378
95.6069804807616
95.6315835554163
95.8893494737935
95.9587172471369
95.9137479855594
95.831315314084
95.7407428310191
95.6876569616932
95.5912151180216
95.5731636907614
95.7021740835948
95.7620097860764
95.7528952356054
95.7485650301719
95.7813119989997
95.8296335478257
95.8289800923905
95.8008284873913
95.7180520218455
95.62077179198
95.5983636739941
95.6390790343432
95.647981900631
95.5899600385487
95.5436873331374
95.5894047391751
95.5907376858286
95.5173811972277
95.4528741565164
95.4545552790882
95.6322419600468
95.7366697670412
95.6752125853277
95.6293298697277
95.621545912053
95.5876731875225
95.5380905937039
95.4934843495396
95.3776814762811
95.2661574581747
95.3918773066556
95.6658773582429
95.7382830212157
95.7549053182848
95.6481363139562
95.5038429239243
95.5314277500097
95.5396264516599
95.4832592490707
95.4846046179668
95.3776177666655
95.2520884039522
95.3749510605358
95.5490854164765
95.5980530295361
95.5369003174032
95.4194275886984
95.3169954885582
95.3560791488315
95.2914215155435
95.1323677377795
95.4171919945021
95.6741688082362
95.6969420392523
95.6158761140767
95.4324529304537
95.275914046308
95.105454350602
94.8888557656687
94.8386695673704
95.2335254278408
95.5141284560612
95.5459688632131
95.3878390883574
95.1159805658555
94.8364167245602
94.7486548120025
94.6963268632691
94.5205234871602
94.7499617252547
95.0572927759178
95.1537835724511
95.2293184160649
94.9252720505086
94.5535417213145
94.2563937564931
93.9705502862755
93.9034896369142
94.2750395673396
94.3587629013544
94.1954923243266
93.8567014598022
93.5643004133081
93.607337011814
93.5079230087977
93.395338853433
93.387304304727
93.2499806255319
92.9642812593808
92.6805027493711
92.3359138819469
91.8610063093999
91.3440634932673
90.6586758674213
90.3273531649012
90.716502286074
90.4927469134048
89.9786718912187
89.6459648619279
89.2653525649537
88.6292449034092
87.9011366511945
87.1638807792306
86.6665802827984
86.923543872424
87.0988985762131
86.8761178796597
86.5392423586544
86.2545968130522
85.9135284174096
85.4428134024909
85.0342141135798
84.4236375446906
83.6566792339652
83.2753478475189
83.1585490438015
82.9234245007327
82.8649730775957
83.1787836698955
83.8111420146162
84.575141586658
85.4228778194181
86.2759741291941
87.0217871711352
87.6733857843327
88.29890222498
88.933186569907
89.4810919036632
89.9301061468608
90.3193978462111
90.6509623142956
90.8890488586637
91.0832879118863
91.2819305449006
91.3453897408095
91.459316101959
92.0365007243613
92.2809295832487
92.2146359256673
92.3648537535566
92.5824545896167
92.5338807534852
92.4540832306307
92.109974833604
91.6803483188862
92.6830642837968
93.4994277457435
93.5998442999901
93.4955900180464
93.2504980346687
93.1772259637193
93.0105332666947
92.7427965491879
92.7339748755562
92.8563901148562
93.5343521260515
94.030788749683
93.9175780673897
93.7240520577049
93.7708325129612
93.7028030287978
93.521095733362
93.4319373420903
93.4560647803287
93.4390256841373
93.7049934504877
93.9917129190059
94.0363040892131
94.0921281668027
93.9060154819608
93.7061993515859
93.4934406727216
93.3692696007542
94.1028952819896
94.5275772592827
94.3489280783196
94.068420101725
93.8939138615826
93.9808301243531
94.1487852450588
94.0761932431553
93.9057265621828
93.9868505893312
94.1982270812977
94.3445705392737
94.3029157605866
94.1799890579104
94.0686456996859
93.921892657997
93.8429013031736
93.8527760438573
94.0786694173918
94.4015671337953
94.3670150244962
94.1911758606378
94.047680104746
94.0593652838085
93.9664373769438
93.7412966962737
93.7686447360351
94.3190162852491
94.5279121609284
94.4210230651153
94.2185732420377
94.0858728277981
94.1549181078524
94.1369573432005
94.0759117368985
94.0173354575602
93.8880996422396
93.8777093749565
94.1728949023086
94.2481058484735
94.1743152656705
94.1394254164868
94.1289510539099
94.0430894771221
93.9866247642827
93.9625964831493
93.8706779733404
94.075673779783
94.3429301302132
94.3645763958484
94.2615658181979
94.1553685177038
94.1641123634602
94.1512820659109
94.1216819682405
94.1849409205966
94.1839871866903
94.126201753836
94.1918320258929
94.2365787193592
94.3598818745136
94.4489414664131
94.3600006136076
94.2496810841838
94.2938638940054
94.4204850106758
94.4288558760813
94.3618753212003
94.3203567380374
94.3090224235014
94.2591394217704
94.3492198122842
94.4594757517189
94.419525017934
94.3872931147627
94.3624003142868
94.2961103482215
94.3251553950489
94.4474758741852
94.4863483363473
94.4762839437415
94.4561168780202
94.4357710880789
94.4225663477077
94.4234159981271
94.4333983014319
94.4147754326101
94.3853902756393
94.3511258815007
94.3412965692312
94.3997155866019
94.4472435656225
94.4652201444395
94.4418430141567
94.4127880960761
94.4086992257896
94.4011647356378
94.3925700277515
94.3979639202567
94.381042170567
94.3523696030654
94.3598917901273
94.3754345628676
94.3637598464192
94.3573271324341
94.3507209447214
94.3496108167405
94.3380943751783
94.3123060233333
94.3103850018753
94.3029279170537
94.280006580323
94.2637869427832
94.2743832220613
94.2728685100525
94.2350973941655
94.1968781323466
94.2021755234119
94.2142723653691
94.1682357896079
94.1118387891741
94.0832974641796
94.0450155826989
93.9740847818451
93.9331365106755
93.9236443924261
93.8802285191954
93.8078884391921
93.7230915601708
93.645808202673
93.5505811422989
93.4563018240262
93.378274754466
93.2888876458416
93.186637845272
93.0872620015414
92.9888779839392
92.8492256766292
92.7067577884998
92.592212473414
92.455487952432
92.3028729880065
92.1698213110911
92.0295573769728
91.8688433696653
91.6968708145627
91.5370730754681
91.3797880016405
91.1904750644745
91.000897133171
90.8249001200255
90.6501144763373
90.4553993603028
90.2579531003652
90.0819852230839
89.8836232189535
89.6765547124448
89.4669926042578
89.2514813787581
89.0343008755161
88.8165357612694
88.5894148462242
88.341280709222
88.0869235215275
87.8168939439177
87.5361993736953
87.2524015592928
86.9712933867907
86.6819261483942
86.3614171447416
86.0327142911641
85.7024110152538
85.3480260860205
84.9801806775944
84.6372539598828
84.3165861466093
83.9884116518283
83.6625818830886
83.3571397137496
83.0514307523025
82.7397094429116
82.4330765071917
82.1442860759246
81.8688129319496
81.6024298331524
81.3466760119224
81.0970365351015
80.8442002728207
80.6142674013239
80.3774751265027
80.1422006898116
79.9455052884304
79.7510364680582
79.5156998775042
79.3298736399576
79.1606597656355
78.9668043978905
78.7929220483053
78.6628008515973
78.522107873484
78.3869214135442
78.2726223309159
78.1817443162219
78.106991865314
78.0459751212122
77.988701732332
77.9634036562116
77.9528452782903
77.9612195127892
77.9538090974358
77.9284589198471
77.9346677521446
77.9834804092109
78.041090782423
78.1225508829199
78.2472487874013
78.3970991508329
78.5520023660608
78.7442890621752
78.9823166382318
79.2204894579985
79.4429714052445
79.6947279979758
79.9840257696999
80.2909987064603
80.5472897613464
80.8020233674384
81.1000585038641
81.3910397624422
81.6864530208284
82.0317599230212
82.3798818360068
82.7211419636474
83.0471830278363
83.4267961847101
83.8433206441541
84.2498860315573
84.6288544049864
84.981515473156
85.3423701456336
85.7035927849212
86.0343195873443
86.3522272982192
86.6407485977044
86.9224254498186
87.1784654075616
87.3834419824562
87.5620832284856
87.7519411967347
87.9068357501606
88.0389086825924
88.1857723538524
88.2955368566972
88.3601434495387
88.4277179733991
88.5121950835306
88.6182972843804
88.6846678412432
88.7364710032095
88.8176299220426
88.9105886682939
88.9806170408945
89.0248181390763
89.0856853067215
89.1549791189481
89.2027039767172
89.2563289390981
89.2990073883537
89.341049312797
89.380411786493
89.4567992604597
89.5422984350549
89.6442111341617
89.7573586542805
89.8596674379703
90.006648379765
90.1561840143069
90.2558088889971
90.3822530357971
90.5350788101336
90.6342290206728
90.7116651036287
90.8179087176376
90.9187185657967
91.0019632499003
91.0854576999701
91.1709508452463
91.2258239438424
91.2990878004839
91.3623963309832
91.406705687326
91.4489646610326
91.5096565598758
91.5708095647988
91.629143955959
91.6692766286229
91.710829876964
91.7331057701281
91.7752507053297
91.8318723676487
91.8566804018264
91.8734816736792
91.8942249566038
91.9139457045157
91.9497605063786
92.000313667426
92.0552728397611
92.0753798699248
92.0621667858643
92.0641533739692
92.1117437826573
92.1392055407199
92.1436798667596
92.1772712360138
92.2276427298713
92.2515447016813
92.2366399273124
92.2219666244457
92.2410714968619
92.2646510140847
92.2852743762642
92.3123773345538
92.3168315370059
92.3237429763543
92.3402486926992
92.3607169160526
92.4015963235247
92.4168584414765
92.4176559668874
92.3799442671629
92.3694400985468
92.4106091854665
92.4437084425524
92.4651863588236
92.4637118039663
92.4739778240034
92.4781988464223
92.4465552521464
92.4463557575719
92.4583448445977
92.438587350477
92.4316681461144
92.4363423115419
92.4646444721465
92.4596854300199
92.4645617392677
92.5055138104261
92.4915224612163
92.4921277799965
92.4852790830844
92.4613321527746
92.4450784686637
92.43236348794
92.4268000089809
92.4367852498837
92.4248075494419
92.3837849385475
92.3813917876529
92.4215978037504
92.434527914064
92.4550684030026
92.4543341639919
92.4021132198648
92.3546770146754
92.3273270268213
92.3023334230093
92.3295055192248
92.3672473638506
92.3644357019612
92.3079008402876
92.2320794569629
92.2108577335645
92.2291492224009
92.2108637771841
92.1627356444051
92.1443633727429
92.1699672398627
92.1619837512369
92.1430183322565
92.1076700456277
92.0841058644955
92.0754713849739
92.0059195386599
91.9566840188249
91.9419153300967
91.9016531642146
91.9035644630603
91.8897170614154
91.8568448691453
91.7774876799022
91.6834543597416
91.6706323830745
91.6529539007977
91.6230270589695
91.6010733011874
91.5914638257686
91.5553059997587
91.4575136081651
91.3802921222945
91.3058178627676
91.2477469038882
91.2224218739985
91.1617994500324
91.0613098428961
90.9920898603337
90.8981989478191
90.8217691121272
90.7960829877877
90.7186819444291
90.5581078713963
90.4087925458325
90.2957530694794
90.1785078909633
90.0751948547579
89.9979725162819
89.8552127348887
89.695328412079
89.5495084869759
89.4271629338343
89.2660083677495
89.0830110418657
88.8850526071255
88.7008392128279
88.5645946500834
88.4210810922818
88.2200124281516
87.9872081288604
87.8194516598136
87.6969725462849
87.543218218175
87.3715025463009
87.171860711001
86.9948554427037
86.8299596541416
86.6340176319653
86.4219526263208
86.275306788048
86.1213431890892
85.9342916555752
85.7572893048253
85.5588616981506
85.322576092002
85.1055810515214
84.8509072266228
84.5871122781504
84.3340264144814
84.0442486817099
83.691935591416
83.3694241586427
83.0098805830015
82.8982975186148
82.6263932397369
82.2081397192155
81.9060073182028
81.599764484432
81.2835316200868
80.996274484972
80.703094741467
80.4011875424114
80.1608347311509
