1798
3999.43349933624
650.420452594757
1
128
4
95.9871804035159
96.1084250221562
96.166728036721
96.0222089649768
95.9242096700493
96.0743278014155
96.1413511660837
95.9885369736028
96.1198744399431
96.2553149936507
96.0653168602237
96.1787584091842
96.3651717164184
96.1916527247264
95.8857838055801
95.8522660171154
96.105400069145
96.2386032426148
96.1994640419873
96.2810832321203
96.3475115855754
96.247050589284
96.307963940532
96.1135983629092
95.7449367460378
95.8639172555416
96.1398834320566
96.1647583707743
96.1214965738075
96.2436476150453
96.1510787130904
96.1521758570346
96.1257361368664
96.0998387368619
96.2286465523421
96.1044229636812
95.917053882528
96.0089936303347
96.1487028825718
96.1589990354099
96.072244906714
95.9135878480283
95.944829592348
96.1346378833717
96.0873473997286
96.0343128804153
96.1231080793688
96.2099707488304
96.337582837517
96.4159858440342
96.354882439462
96.248503180825
96.2609428266543
96.4002698733043
96.3082626213732
96.1527543147691
96.1413217738881
96.1761183848849
96.0890421696769
96.0968420593198
96.2145253669494
96.2992885496474
96.2989807186253
96.2741941837176
96.1706372641862
96.2048320215894
96.2336316881708
96.0945232643019
96.1247282948877
96.2825289172162
96.1810724016079
96.0894561380042
96.0730067966541
96.2121224125195
96.3572788374122
96.3621226774599
96.2095044343398
96.0306141043682
95.9768963813851
95.9401764149964
96.020237194303
96.1851770662958
96.2393370151059
96.2604062959988
96.2828454795971
96.2546633574353
96.1489474156576
96.0904016648744
96.130764065684
96.1968142437292
96.151595103085
96.1493305208142
96.1950182395549
96.2452761998651
96.3863916765555
96.3513844987408
96.0413502866782
96.0597430112748
96.1854139547919
96.2195879808581
96.3095763768348
96.3460998776822
96.4020382406915
96.3389998338727
96.2149071016659
96.3304767037193
96.2415031665729
96.152076557467
96.1740597977373
96.074252215327
96.0122577109936
96.1162821395057
96.1626122735502
96.1872095180189
96.2871383239876
96.3637529035597
96.3324008673085
96.3248412496952
96.3423432631297
96.3529572604438
96.3804236066749
96.4445405344022
96.3913634208648
96.2739593010643
96.2706041309068
96.2640761959705
96.1583856154474
96.261085160496
96.4288508094004
96.4934496050682
96.5202678255979
96.5072863279098
96.5330878619636
96.576526390326
96.3972213005405
96.3034855040469
96.2536421040038
96.0720803299735
96.1282717791352
96.2973582087828
96.2197956647577
96.1066926262518
96.1116330326418
96.0704664106152
96.0010541697775
96.0020464296534
95.99042397475
96.0529313132287
96.1095883858495
96.1860566423006
96.2421172654602
96.2875966143115
96.3491509135846
96.4155565899615
96.345539337285
96.1491698760678
96.0233472946067
95.9956664283403
95.9780622119407
96.0669984557498
96.22840429844
96.2862994073518
96.3099783509419
96.3973390417038
96.3418479388365
96.2428221324368
96.1302337782426
96.0369630526709
96.1239569747618
96.1624186302013
96.1307856655758
96.276603364425
96.4110597136844
96.3062610711358
95.8916967634987
95.7973300745178
95.8195270944518
95.6649052112354
95.6399684050867
95.7206324510383
95.7294973491274
95.7307139594351
95.8303170785068
95.9745890745204
95.9674831833296
95.88899956405
95.8903022585378
95.7571023987258
95.4739348385996
95.346627926454
95.2812146873188
95.1844817038416
95.0810027807309
95.1831150490239
95.3106593238747
95.228387588183
95.1032522380428
95.1453387150265
95.0779414905928
94.7358420422168
94.5689517803059
94.5954446640026
94.5154072768578
94.4518761115197
94.4210099040902
94.3768554086452
94.2927145269239
94.0990304013017
93.80553349133
93.5985698389263
93.4499108539437
93.3941230650904
93.3552250202121
93.2314634916492
93.1176037162781
93.0145102046279
92.8824246197169
92.7110431937546
92.4218211019001
92.2356519020321
92.1721475019918
92.0567166925466
91.8343107321404
91.7008501308535
91.6992355936488
91.6485871386059
91.4633073732626
91.3129341978153
91.2044797847206
91.1024266201422
90.9353803692069
90.7323242101154
90.4440145377599
90.2712496254223
90.2496379210342
90.1443023589036
89.8727947798482
89.717711707092
89.7023765775085
89.6420372302255
89.5163237859742
89.4651066385353
89.2937832009323
89.0695873768463
88.9540065665527
88.7244174339094
88.5039421532335
88.5034664160056
88.5152798884767
88.3922262872472
88.1728937130391
88.0217297031119
87.9296064728948
87.7947840745271
87.6630284727124
87.5781690787592
87.385105751982
87.2299117302281
87.1285426947623
87.0880470020971
87.0391161719254
86.9295783560837
86.839517005313
86.7413045391729
86.7107435484674
86.7029842843394
86.5657926304563
86.5233840232578
86.5454260096181
86.5468711617686
86.5316922509771
86.5763543896464
86.5613571080667
86.4397572031509
86.2817632978994
86.2834302521383
86.3828159036219
86.3641734290405
86.3064371056626
86.2979580227673
86.2424452303565
86.1545148540864
86.1087973015057
86.1616713541751
86.1415586110784
86.1007805515605
86.0507738276526
85.9597149088279
85.8288907472953
85.7219149814068
85.651640584465
85.5918656721413
85.5356634157405
85.5002184480721
85.4000904220214
85.3019830051534
85.2685542499515
85.2915695932978
85.2263782267218
85.1135440083641
84.9689587744787
84.7743009558614
84.6117248514589
84.505092283338
84.407326086971
84.3813668756994
84.3307462013536
84.2096745615273
84.1846805943786
84.1911093728718
83.9696694145419
83.7407378742468
83.6893560985947
83.7094896437476
83.6109018199895
83.4505616470101
83.2483215625665
83.1146988085607
83.0213688474324
82.8812099170841
82.7356129205521
82.584970205988
82.4816397806171
82.4497648949362
82.2833806225538
82.0791906236028
82.0246377504392
82.0205726527239
81.8913747150188
81.7397903299894
81.6701371200973
81.633475673304
81.4780429635094
81.347173694615
81.33804574258
81.2664772963441
81.1379559348285
81.0466900719487
80.9468632397475
80.863727999043
80.7828742945544
80.7459312848153
80.7027549480368
80.6273165910552
80.5415833178208
80.4454975312114
80.4293119853949
80.4254785892398
80.3318318319164
80.3599550820569
80.4302638966973
80.4086748430571
80.3758978401306
80.3760991836556
80.3681075560355
80.4209485362568
80.5383050723264
80.592556118845
80.5422098108699
80.7338593171952
80.9512154388525
81.0065729966687
81.0656027047942
81.1240810701523
81.1775238265873
81.2567288265546
81.4203294822178
81.6765324668499
81.8150290626211
81.929327794662
82.1033377074013
82.2536369431413
82.3904279666721
82.4919802748837
82.5882458960139
82.7208560860378
82.8063037948812
82.9170976680655
83.0020152413146
83.1497436699712
83.3841363832519
83.5835213853369
83.6462806483875
83.6610343052777
83.8173749908191
84.0323078410886
84.1294159583952
84.1721112287863
84.2909235291374
84.4701838894693
84.5768357308383
84.6327945353821
84.6552730233665
84.7578680551594
84.8949789547894
84.9988099859556
85.0759071559892
85.1507447283854
85.1438746547332
85.1285003855258
85.16958937335
85.2225851219775
85.21599159862
85.1845481466635
85.1420522021175
85.180283482241
85.2125146969807
85.2738323368532
85.3827018425202
85.4022689633402
85.4077605186407
85.5242137896817
85.6497016255707
85.7423370000152
85.8595423916554
86.0116387542025
86.0859123547359
86.1845977258583
86.348096867109
86.4821657647362
86.4745556764972
86.4933908179146
86.6648363902043
86.8093035259121
86.8261289579496
86.896204772911
87.0320350924505
87.1827003776582
87.2906220612833
87.4296224639227
87.5276848759666
87.560434861367
87.6163111753818
87.7012568156246
87.7677237335834
87.8253088676268
87.9186609296571
88.0291664849036
88.118422226254
88.2408663196071
88.2841698325197
88.3017119124469
88.3275559226506
88.389239564353
88.4968516344095
88.5714369066735
88.5706863810615
88.6545377378694
88.8041632104874
88.9009439239224
88.9580793644423
89.0551540679762
89.1275373421433
89.2193372499629
89.2988638042865
89.3611444720209
89.4294924870535
89.5780538914149
89.7723104992733
89.853678622207
89.8198850297307
89.8672303185803
90.025411596476
90.1851320279789
90.2210972316468
90.2616408582446
90.3489763537245
90.4237900288218
90.4731960790613
90.5589528954159
90.6542651717909
90.7520053931514
90.8042773692842
90.8505840216387
90.9206840058037
91.0248206273572
91.1088880388482
91.1790794938468
91.234564657952
91.2887223719581
91.3499689503583
91.4053913947947
91.4406333249214
91.5077832601497
91.5641602190049
91.6248601866603
91.6668065303128
91.6786125172985
91.712910179351
91.8236258071965
91.8962123968081
91.936156508095
92.0071192848674
92.0945952823732
92.119799746975
92.2205888480006
92.3205053243995
92.2929757996824
92.2658727649928
92.29933122979
92.2989574778261
92.3378979673968
92.421811075641
92.5048177415803
92.5701848821148
92.6215146292571
92.6277333927106
92.608617341185
92.6025117582274
92.6196786640329
92.688466050961
92.8402891923337
92.906065994961
92.9032913323538
92.9258363425386
92.9851492125757
92.9861826380714
92.9337422435556
92.9261835150058
93.0649207902855
93.182444478145
93.1846351900438
93.1668353288584
93.2504743062681
93.3049858821167
93.3146020080672
93.3286573898539
93.3551965346284
93.4068696437805
93.4479184686529
93.4464601818814
93.4440702478568
93.4188866271148
93.4321371360779
93.4647913118973
93.5172547911679
93.6143728143443
93.6914505994291
93.6640384613818
93.6273321499878
93.6551070639016
93.7194653213363
93.761076182768
93.7813361506246
93.757389049228
93.7471880043332
93.7555187791392
93.8044831802546
93.8690052176257
93.9185513683292
93.9043924978354
93.8702707859196
93.9247404868194
93.9902459721796
93.999427798199
94.0304997982934
94.059673612782
94.1135898541624
94.1108752358751
94.1059600814889
94.1483987808585
94.1668835196525
94.1238636482266
94.135846463347
94.1719655792459
94.218496406638
94.265706373737
94.2410627501232
94.2069747450387
94.2459306145952
94.2671441602647
94.2399791728153
94.2354444308073
94.3128612955591
94.3179409456911
94.2279605125324
94.2771419108065
94.4411625181732
94.4594941266362
94.3735569138865
94.3465853372947
94.4227003642385
94.4473770712816
94.4448431643891
94.4734523242639
94.4994442793382
94.4858176979647
94.4903417451935
94.5127564835636
94.5144762095627
94.4850738605221
94.4728868996657
94.4968557792364
94.5415628420191
94.6071257904115
94.6557546918686
94.6186402450242
94.5634915400095
94.5287083164931
94.562250692638
94.6194513705091
94.6492900682828
94.6732180930269
94.7167863085644
94.6792331349082
94.6311576143025
94.6743823841998
94.7360431581733
94.7629614302476
94.7633209371858
94.7525484153447
94.7758807681421
94.7787992222162
94.8158498028309
94.8713883769957
94.8679923462643
94.806636090107
94.7802252655611
94.8165662578011
94.8401115611773
94.8187139904211
94.7933672783848
94.8122699110771
94.8472873066896
94.8036501250181
94.7936392762546
94.8525648351749
94.8935353758035
94.8821420829359
94.8664682479854
94.8695581814586
94.9005692718616
94.9416441428458
94.9454491865333
94.9212224145473
94.9287823662409
94.935311560266
94.9426618201438
94.9454465502602
94.988490482852
95.0258829437621
94.9889476744611
94.9468541379913
94.9924773903995
95.0573780493976
95.0837421455891
95.0549315341931
95.031614730754
95.0631025060493
95.0364665516492
94.937792713521
94.9620177290223
95.0328539414641
95.0571744949203
95.0580480166331
95.0470910490737
95.0426649473346
95.0731890827121
95.051781948253
95.0515824037787
95.0724663032816
95.0401412895107
95.0431928364304
95.0848384982253
95.0460548348693
95.0537665404258
95.1182229762588
95.1202241053369
95.1187536306786
95.1277931370225
95.1182100830275
95.1379257756348
95.1399123390077
95.157954826287
95.1911894112812
95.1902406939878
95.1526642286005
95.1764533255765
95.201013375804
95.1722400579982
95.1435488303955
95.1505975764534
95.1689825290029
95.1667233388694
95.1829275009518
95.2381448114496
95.203141622426
95.1821039019672
95.211122637474
95.2327314420313
95.2490083551978
95.2564618809055
95.2581976803145
95.2547943608324
95.2131140372983
95.2159650157612
95.260912352824
95.2679905701351
95.2450454089881
95.2473417547524
95.2689830943197
95.2576119277043
95.2291837386474
95.2211195108269
95.225595347317
95.2178493891562
95.2300301505185
95.2944481473883
95.3063606268185
95.2579881289563
95.2494175162059
95.2806888597299
95.2743437369258
95.2770133595964
95.2940203725868
95.2889774382698
95.2666350922417
95.2846654832131
95.2957897079759
95.2533152881425
95.2325705362059
95.2795721858756
95.2909772297026
95.3111421435592
95.333270534515
95.3037380413269
95.2722125450477
95.2716894379848
95.2795310275989
95.301833543929
95.3045041160816
95.3055490482759
95.3353702504106
95.3540708924061
95.3843704718066
95.4254805615013
95.410308200952
95.3850817153147
95.3889010314235
95.4248710895795
95.4147944754676
95.4312522516299
95.4823795940127
95.4508454253938
95.4607041104769
95.4933048222778
95.4494763527738
95.4539064334979
95.4699375915289
95.4603833673501
95.4674903379894
95.4886018011468
95.5527913063463
95.6419830225315
95.6191689178431
95.556715420597
95.5253935678145
95.5457408897054
95.5765888182928
95.5755060243343
95.5241453421768
95.4716203803865
95.4736568744402
95.6475600248584
95.7756213283218
95.6568128313703
95.5947799745812
95.6488570856539
95.7046356511429
95.7158046432456
95.5945095911728
95.5134702886161
95.5975882056249
95.7397361124532
95.7790813572401
95.7175145983731
95.6381720692348
95.6528560475232
95.6672517774336
95.6523710725741
95.6651165554275
95.68591838497
95.6942052130093
95.6626279668843
95.7128582945187
95.7764097114154
95.7294658170191
95.7461098052146
95.7937747307313
95.8071231706922
95.7720393769496
95.724798841495
95.6866836590405
95.6615431546968
95.7556443074303
95.9178531932085
95.8895303119273
95.7834659176256
95.7454495895041
95.6638698805554
95.5558858812476
95.5983438502998
95.7620186808918
95.8694365815739
95.8708322235363
95.7624896904996
95.7160077759964
95.788910043432
95.7791345267189
95.7369894964609
95.7325503970703
95.7807007171658
95.823914072378
95.8245659052695
95.7236521933444
95.6617544408865
95.7119038573223
95.7494575362258
95.7885056629571
95.7947595453564
95.7235151179841
95.7086080250549
95.7361875846278
95.7335743253044
95.744287908929
95.7685072963141
95.7833806360818
95.8001454388892
95.773740658756
95.7528214877341
95.7130260042911
95.6665008466645
95.6771011328148
95.7376704965895
95.7833611166636
95.8014245849155
95.7865523881776
95.7453124345423
95.7798476667393
95.7648615919762
95.7437534989325
95.7851305493204
95.7742668950482
95.7508530150108
95.7669580162835
95.7637108840571
95.6909711151151
95.627471830474
95.6793702723205
95.7134519034387
95.709724582854
95.7322688855103
95.7440516422128
95.7553510641692
95.7784026246539
95.8146641397518
95.7798029278634
95.6341116552725
95.6051100962323
95.6845019078954
95.6420450383497
95.6387713762297
95.6916488799093
95.7169731916964
95.7085287219511
95.6738888919476
95.6782492307907
95.7112246800798
95.767615243511
95.8109683548872
95.8484026817288
95.943949609846
95.9916831412535
95.9591490018234
95.8847260919387
95.8810753664962
95.9015599926474
95.8407740046983
95.7755029222961
95.7085543494006
95.5884537349798
95.4747385392838
95.4191799013892
95.4724801488524
95.4389997922207
95.4500546908205
95.516818001332
95.5036943813348
95.5440264171104
95.655741500672
95.6211219993564
95.5311265791883
95.5627680648713
95.5315585391552
95.4283267923869
95.4033012515622
95.3878884359891
95.3763168812705
95.301997196586
95.1643985294162
95.1018351001097
95.1685444037845
95.2623636362153
95.3098746412641
95.2612612624814
95.2309540029209
95.2836227593315
95.3293523922174
95.3263969531675
95.2781759938522
95.2621454066046
95.2831819426142
95.286020895235
95.317188119544
95.3578926395399
95.3915148467049
95.4628871880824
95.4140686255555
95.3626927777441
95.4160935212836
95.4046512028202
95.4162763554949
95.4606394597728
95.5495067648321
95.6816722310982
95.6470148384171
95.5015904517468
95.4739108555948
95.6379476745101
95.8167717522376
95.78451211457
95.809128838933
95.911254053047
95.9437750828297
95.8820423600843
95.9320188238926
95.9968032522965
95.8688708686683
95.7665124594217
95.8974945770782
96.0741383636923
96.0774375443646
96.0435878938597
95.9713411081053
95.990722974043
96.1270286164552
96.2174747755708
96.1263310066206
96.0620311445208
96.2046198977683
96.3288261626439
96.3401252563157
96.5176210639918
96.5517417985355
96.3699232601906
96.2661458905936
96.3729312512554
96.4772752400026
96.3014303744754
96.3142287773837
96.5366753928882
96.533278113044
96.3462379957915
96.3164089968921
96.2883229249014
96.436236731884
96.7259130424921
96.8784235819425
96.9411352606866
96.8771260431978
96.8313411168377
96.5238451644129
96.32700719233
96.9138571262801
97.3721470235474
97.1471895797421
96.8735777751026
96.9528956142196
97.3645873488649
97.6142557232052
97.4084533596062
97.0526094270116
96.9104532959558
97.086869047493
97.3207526789707
97.6594333208356
98.0711079068432
98.0328658259645
97.8943125291651
97.8612441837135
97.6214188466519
97.3058132653299
96.8450325114301
96.8141984511232
97.0531659303658
96.8618661743482
96.5496130211712
96.5838787508652
96.6358779035943
96.4316311114045
96.1008189827087
96.2851630370901
96.4371217222689
96.1144442952448
96.0309946416851
96.125696983299
96.0635539142622
95.7738500955342
95.6287179663522
95.8279723030782
95.8779639135008
95.7868301560792
95.8320865596006
95.8546788613892
95.8667546530288
95.8469688022345
95.7740048532296
95.742391235971
95.6446959621859
95.6658458068393
95.7173794358748
95.8553594909758
96.1100933462705
96.1625373473068
95.9607086969686
95.795227790582
95.8018600681102
95.8642577309983
95.7911383140886
95.7699590876826
95.8497526093052
95.8791736882628
96.0223782346894
96.1585184561015
96.0947098376951
96.0347139596822
96.1814469120274
96.342514970163
96.3507088128582
96.4895646101024
96.5191766118535
96.3322511042681
96.3279899544891
96.5666841750566
96.8004710995766
96.6680539444296
96.5198789997669
96.6580921306354
96.5998371427736
97.0647517417397
97.4355860609597
96.9362504238773
96.7414425443208
97.0891925087783
97.4071129061269
97.5103434869509
97.5718154059183
97.5130116899589
97.2849601905133
97.2547570432694
97.1049918669233
97.0882576461156
97.393916748582
97.7336639667864
97.6395017861107
97.1696289956042
97.1249239306163
97.2832965321368
97.3480999233296
97.2281289138296
97.2357955043302
97.4194459435713
97.2296286271306
96.9495987792102
96.8835089727427
96.8123750087408
96.8421502113919
97.0596966457537
97.2030181825905
97.1403772768498
97.1297703525996
97.3762707660822
97.2982462396519
96.9127888621916
97.0506299084176
97.5402566479047
97.4466798407455
97.2582867536626
97.4567212661243
97.3526994310036
97.0612802888662
96.9260939725245
96.8009567684314
96.7436345933393
96.8231361930597
97.0015245768055
96.9951656378859
96.7552141088366
96.758242005874
96.7789873444929
96.4871923089194
96.3423024341506
96.371619914009
96.417135036003
96.3828079810713
96.3481994271091
96.3053225254494
96.3734085647419
96.296216389984
96.2053519140526
96.2411917499528
96.2369589005831
96.1385863650438
96.1305701077444
96.1540654732644
96.1889646695649
96.2251558362539
96.1860238282259
96.1143721322147
96.0408067616719
95.9266657611961
95.8972657421129
95.9543658751362
95.9915280128079
95.9051511749365
95.9004411061259
96.030951157301
96.032461754561
95.9356526330866
95.8878567290435
95.8678807957447
95.9278332756618
95.8959736155882
95.8654334257566
95.8419822337507
95.7145833270331
95.639336591185
95.7131987584687
95.7397531836441
95.7451897176633
95.757248408948
95.6998678519851
95.6362427395847
95.6405367228488
95.7220789061497
95.7031389348179
95.652103885392
95.6581677162582
95.6259329699785
95.5771467265457
95.5939388600851
95.623287882345
95.6264072444432
95.6498945393241
95.5298541271713
95.4822872232952
95.5205994089377
95.5781071283053
95.6053625058391
95.5340820209731
95.5457323576706
95.6398157168073
95.6159074455817
95.5493465652328
95.4621544542325
95.5249431945187
95.5079075993423
95.4133975461213
95.4110336212924
95.4198820260082
95.4298883627268
95.4588417245712
95.4952720539453
95.4426826569631
95.3984393399921
95.4872171319076
95.5046271503716
95.4640507714314
95.4363321766502
95.4024175537335
95.4242103638779
95.471540365631
95.3997665788767
95.324474682038
95.332496581057
95.4125761537298
95.4327628699453
95.3832003564459
95.294534277649
95.3248710662019
95.4186488669693
95.4612918052705
95.5007315396658
95.4500491250637
95.3555168229371
95.2586472478924
95.4183855992048
95.4378483477853
95.3841714007191
95.3786521907914
95.3042448909413
95.2599394733763
95.3586257426
95.3724100622825
95.3904688951335
95.3855598777192
95.2436354732935
95.2238665753059
95.3339638956437
95.387779567792
95.3135006997449
95.2845793878646
95.3247559702923
95.29207814821
95.2672411624177
95.0098873136622
94.9972548279899
95.2074384941783
95.2120411237597
95.1941296365191
95.2128966424289
95.2231369977962
95.2211377674197
95.150698814862
94.9717494014208
95.0079819062776
95.078598343043
95.1032192427201
95.0098935679361
94.9684481970237
94.9995651534788
94.9352193048708
94.9535601108146
94.7512715304104
94.5139484236962
94.6418361225318
94.4679038688136
94.5483563314108
94.5932123577645
94.4671646034493
94.2682850951563
94.1500487659231
93.8611090683093
93.9905313379364
94.0627387691901
93.8572823280276
93.659675298163
93.4559989420747
93.4627765002258
93.3874503483861
93.1643424506031
93.0181298708585
92.8971708978702
92.5623667071563
92.1871621785984
91.9758121898726
91.5534923120017
90.9884390835044
90.5561704807051
90.2324664693711
90.3227071375818
90.154068678989
89.6205772277344
89.444035031363
89.4717214534865
89.127910950232
88.5958301759714
88.100340821985
87.6545504165314
87.6329606908517
87.696603005572
87.4466158511127
86.9558270883679
86.4726988582446
86.0268727861333
85.3132002458866
84.6166867243533
83.9617787319187
83.2031220577403
82.6748857074497
82.5321451039144
82.3785070702846
82.407464774459
82.8021020315256
83.4715451305343
84.2478392320971
85.1090918142251
85.9932634671075
86.8188099292055
87.5587653729248
88.2183824785592
88.839588923365
89.3664410497663
89.8079694958688
90.199161271229
90.5668241698441
90.9411323856748
91.238569769767
91.4084748380222
91.5117932590153
91.5812720806905
91.9976555996138
92.2415770872578
92.1442679817865
92.1787135681768
92.5742847275562
92.7190693230391
92.7051043173966
92.5541962808791
92.1718658504977
92.5912616127632
93.1477794985717
93.060636680935
93.06647907619
93.0561361039478
93.1726750323667
93.2662679851478
93.1322380853633
92.9973551275948
92.9930324338433
93.2071539651023
93.518950594979
93.4992350887825
93.2965380610176
93.4930820050384
93.6624557128692
93.6087643325783
93.5123901968443
93.6003483480249
93.5358059088843
93.5177923637635
93.7463641858449
93.7211018332964
93.841492725522
93.8898728172199
93.7475468597417
93.5950088062935
93.4051301404609
93.7141411245896
94.142004295753
94.0560467745946
93.8037717007225
93.7416917781468
93.901443710074
94.0421374310238
93.9892946014976
93.7634752790379
93.8131790636253
94.0254000840068
94.0784898508848
94.0422823802185
94.0402954712431
94.0955546065815
94.0454106360675
93.9377605821464
93.8946917678927
93.9463157508761
94.1390810478305
94.1046531621816
94.0060622545626
94.0035633835962
94.1689409267856
94.0991261557429
93.8662174220331
93.6834273391428
94.0223552039909
94.1778528881164
94.0261317669191
93.9051108276003
93.8923715816758
94.0211176017168
94.0993917484837
94.0425980912994
93.9592199010052
93.9250811192052
93.8571774015831
94.0114947777465
94.0555376895444
93.9502205614628
93.9095921418845
94.0196963427864
94.0455872247604
93.9634743231078
93.9695666138427
93.874840514479
93.9171133050984
94.0782293608228
94.0759930511485
94.0210576042811
94.0179779451521
94.064731848713
94.0975419396707
94.0982360555491
94.137248522863
94.159640368616
94.0613297499292
94.0643269971624
94.1001950588832
94.1384714001544
94.1881750398204
94.1734048766428
94.1000131899137
94.124832258543
94.2554282228793
94.2644724220677
94.2585464916176
94.2360830368155
94.2308766113416
94.2004804212815
94.2258701949057
94.2974179790278
94.2804798604433
94.2445673216079
94.2656168467626
94.2370861058866
94.2290969144435
94.3083924817393
94.3246168777305
94.2907028071013
94.2687640663385
94.286498893802
94.328060514584
94.3232798321148
94.3189213312841
94.3019755192648
94.2858746629969
94.2642846100072
94.2364488044829
94.2670729876301
94.3011499603199
94.3075924491204
94.312015188217
94.3231581193411
94.3115560827624
94.3087493944708
94.311020898684
94.3028348561941
94.288638501932
94.2870939974483
94.2980887992876
94.2921885197683
94.2730550201883
94.2647109517269
94.2436336310413
94.2208176030548
94.2395225078111
94.2452016015277
94.2241282097784
94.2034107302838
94.211682363404
94.2165885045935
94.2069438864248
94.1838243377635
94.1579725213622
94.1362871484814
94.1104411626151
94.1060750448578
94.091613276986
94.0292432975347
93.9656533051641
93.9441870624435
93.924499808409
93.9067715972996
93.8730885847717
93.7932569722605
93.7003540417109
93.6414672692949
93.581743020338
93.5216641688548
93.4562287168191
93.3584952136925
93.2702761103123
93.1768840139324
93.0561205551791
92.9294841694392
92.8257743491147
92.7216797051061
92.6253645575483
92.4989981399934
92.3413843743831
92.1998625352888
92.028708016324
91.8473689205899
91.6954896007435
91.5158639084063
91.3117846148034
91.1160484892437
90.9082187618999
90.6786212373485
90.4755341811261
90.2738384469964
90.0365113583998
89.8066029864692
89.5795530226245
89.335082924371
89.0813552304095
88.8194135831096
88.5587845501533
88.2808731276885
87.9826874611558
87.6781222869327
87.378597843672
87.0792001425378
86.7647721903375
86.4433861328213
86.1182346752921
85.7913426826301
85.4435085461068
85.1042980012381
84.7415264934035
84.3692124523577
83.9995322212332
83.6598813763184
83.3033218380931
82.9353195439257
82.5664978142668
82.2020198685245
81.856842193609
81.5242911053549
81.1871409939789
80.856768546387
80.5526041887693
80.278940186594
79.9990421536115
79.725993528216
79.456356364813
79.1874608761673
78.9292386176882
78.6731066329593
78.4147335232305
78.1725993114966
77.9324222026523
77.7209193700732
77.5219824785343
77.3441706359695
77.1970013818997
77.0754024637887
76.9462370303548
76.8455843729264
76.7669248385929
76.7098396071829
76.6709287576959
76.6581624887964
76.6391549294881
76.5981417958311
76.5697443482449
76.565169008724
76.5359148574876
76.5141907553426
76.4912572802778
76.4896685691863
76.5161601783886
76.592645424847
76.6731053226924
76.7717562803937
76.9191623522405
77.0803583068082
77.2469046393819
77.4666358233514
77.7429774549004
78.0403410533672
78.3171527607741
78.6223922533569
78.9428331691849
79.2578252359527
79.5651222181479
79.9068529430141
80.2682133913513
80.6519309970385
81.0542345744776
81.4681820600266
81.9043489687342
82.3396542014001
82.7580886911465
83.2249476235188
83.6865895436553
84.1153020523981
84.5431760155867
84.9543034033336
85.3298197554852
85.6843776353336
86.0257433933203
86.35006987768
86.6294571427227
86.8423225809919
87.0770857574612
87.3175044602495
87.4904054218765
87.6406614283153
87.7786634872614
87.9217711446062
88.0540498865014
88.1594396256975
88.2486141353652
88.3540857040933
88.4491067853614
88.5313193479277
88.5979889012141
88.6758248885455
88.7351879710274
88.7775053706308
88.8465181380983
88.8957810003426
88.9274090760421
88.9873579010204
89.0260741809569
89.0382595605345
89.0925502615316
89.1483402621748
89.1727031014524
89.1624591063057
89.1418201584784
89.2749748560316
89.526633550214
89.7341109578554
89.9044741619811
90.0808470462676
90.2227110554829
90.3422063450524
90.4617676989495
90.5803933298384
90.6775947531094
90.7523796622287
90.8328821481723
90.9462421973503
91.0512180233404
91.1082486900683
91.1725729676266
91.2382553348799
91.2891753592579
91.3553265775984
91.4160331483825
91.4376664718525
91.4653040000222
91.51571115469
91.5792363493397
91.634937222231
91.667518761586
91.6899208949163
91.7068118294331
91.7663130783861
91.823056854014
91.8343714093982
91.8108577102147
91.8396835330963
91.8933567398523
91.9224718253802
91.9532482745321
91.9764037037418
91.9873086478598
92.0129203125111
92.0583774973788
92.1095401430777
92.1131492713691
92.0942509649219
92.1060748267844
92.1404178237861
92.1609374922499
92.1664122214871
92.1559374617929
92.15596026654
92.1736760031226
92.2421342887095
92.2757254732544
92.2567898760847
92.2644521801297
92.2712961378771
92.2632913879446
92.3060445651802
92.3546189373099
92.365572250828
92.3785244340104
92.3820270782784
92.3296878085411
92.2941676231933
92.310305962841
92.3462884995687
92.3550235805918
92.3663850448873
92.3921998038282
92.3491723671956
92.3053948992806
92.3158357057377
92.3549113352723
92.3890758072614
92.3785370754497
92.340288335541
92.3392171161391
92.3551102425223
92.322646681253
92.2725725482293
92.3109789410726
92.3351556195363
92.3569946637127
92.3669301268752
92.3110684292849
92.3154044023323
92.3328664361713
92.321478066119
92.3214407512326
92.2925187441712
92.2860969817966
92.2891202449772
92.2673088705049
92.2782637465448
92.2551018863956
92.2245511668136
92.198881618334
92.1626626599989
92.1546233148371
92.1722884792723
92.1929419066505
92.1586620364346
92.1124937413117
92.1194997041373
92.0678314446141
92.0054997352924
91.9927792912305
91.9869901962235
91.9859444194549
91.9661157735519
91.9114512563056
91.9035967592632
91.8847079472504
91.8773732093732
91.8779604038658
91.7931354494588
91.7113802363716
91.6498130255002
91.6209121711482
91.6121238460826
91.6233829474165
91.5577231230955
91.4746742867035
91.4228320303231
91.383273388838
91.3977600321349
91.3281350039162
91.2119311756353
91.1620761469994
91.0897769921348
90.9878985200239
90.9081042941739
90.8421616122803
90.7735799155126
90.7027894571822
90.6122767610095
90.5218795500185
90.4514933093654
90.3291354859923
90.2076741157807
90.0946481929079
90.0076349370482
89.8961641483324
89.7124611044339
89.5598805529964
89.4194660364682
89.2323950948166
89.0782304198715
88.9335726593755
88.8013984111221
88.6634307102065
88.4494425616741
88.2366532866873
88.0794180575112
87.9092196512476
87.7442748537556
87.5937270108271
87.430508226077
87.2618059352628
87.1143033476866
86.9333430374899
86.7627622558049
86.5996107800525
86.4956511103039
86.387445356054
86.1649160638592
85.9648626911796
85.8082229540195
85.6135855898507
85.4282096103838
85.235756212704
85.0389967648624
84.7980526179752
84.4778334820627
84.1244330590211
83.842267739012
83.4225693204033
83.1571989805886
83.0247490716349
82.6828697843486
82.3061326671364
81.956561606467
81.6922948409634
81.4630848807223
81.202803792533
80.8903209773564
80.6550916736975
