1798
3999.43349933624
650.420452594757
1
128
4
95.876701490267
95.9015286955302
95.9921793732947
95.9713062173112
95.9675460180046
95.9949197453185
95.9584927145674
95.9177685290653
95.930972434007
95.9615437257359
95.9145683388619
95.8599321634255
95.859621868737
96.0147281301223
96.0761140487439
95.9603304233761
95.8340512038491
95.8229696700764
95.8736152813432
95.9738207633848
95.9309399687819
95.8669107201644
95.9672985312726
96.00240342853
95.8988636656298
95.8309824579066
95.9128851986057
95.9610508039251
95.873505377396
95.8536286473298
95.9284779500451
95.9395106999297
95.892415190115
95.9331468904791
95.9630681711867
96.0028895816463
95.9756965066621
95.9906324271945
96.0079286877083
96.0468148970748
96.0283956845368
95.9970471870322
95.9654752075764
95.9228993498203
95.8870753034646
95.9229598175039
95.903529036739
95.9659899961627
96.0421537309817
96.0236547732624
95.9867708522294
95.9931363682363
95.9412407805292
95.941646335798
95.9900603735419
95.9816723055655
95.9055423641016
95.9679346796068
96.079095303667
96.0065349487027
95.9177075315775
96.0072400583039
96.0414165494164
96.014532887934
95.9643611846972
95.9674394764449
95.9929062826473
96.0245813623505
95.9245704982425
95.8625270596588
95.9752712343452
96.122912601695
96.0681885358158
96.0336204987501
96.0088185324742
96.0235588631358
95.9869131724548
95.9694232183668
96.0820832830606
96.074402112819
95.8875800066208
95.9240722556824
96.0122654571132
96.0892514907194
96.1137427845962
96.147442180064
96.1429004206815
96.032348753715
95.9720482183935
96.0120283711041
96.0605978356032
96.0755732354362
96.0348320526723
95.9891299271118
96.0063248185274
96.1264460073642
96.1984087138489
96.1862753328987
96.0180926000801
96.0042033547159
96.1133085496477
96.1720804774158
96.2228675953699
96.3357348187241
96.2209333562676
96.0952725486736
96.0650913795377
96.0239382667054
96.0857643773275
96.1252772938599
96.0822727732455
96.0939276235814
96.0281399564932
95.9711674835229
96.0056508992306
96.1005665104556
96.1079432015488
96.1241935499255
96.1224078053359
96.1059681983176
96.0925101432364
96.0962590720694
96.1004847691437
96.0943756165274
95.9740988057516
96.0227654717088
96.0972515204999
96.0374854219466
95.998282599694
96.1162493217441
96.1055926399416
96.016851807429
96.0454859979156
96.2161954511769
96.1976016580033
95.9577688825541
95.9958897504206
96.1488700430337
96.0876788424469
96.1280059235101
96.2691105277461
96.4223892925285
96.3286346292903
96.1569678696061
95.9986062836683
95.9295925933836
96.0623093056016
96.1475075102075
96.0445814239435
96.0621138440744
96.0898201211768
95.9842036519641
96.0437475328332
96.1959358087994
96.0518988816756
95.9690401665598
96.0018696311777
96.0496019459868
96.0344996741497
95.9129340883438
95.9230323856261
96.0444256428683
96.0490765233166
96.0326894287259
95.9852384317815
95.9250397464494
95.9534123467964
96.0246491063167
95.9209785193285
95.9143289018205
96.0060645243018
96.0351531648163
95.9631739218933
96.0779566016835
95.9031389139075
95.6096343702059
95.6341791225631
95.8533576114772
95.9402988806129
95.8389501827328
95.721019146742
95.7314184443792
95.6301842136546
95.6353988779457
95.7919109128656
95.7661298660868
95.6364914102078
95.6536246111478
95.6035424741793
95.4613471884748
95.3483781206494
95.2656457987596
95.2051725820024
95.2224795896389
95.1466369897136
95.1603147703372
94.9730726338202
94.7682449689897
94.9090302043034
95.0111044554963
94.7585514795624
94.4844954434712
94.2921351537942
94.3946726331016
94.4405256016878
94.2441905736104
93.9862032758856
94.0119794105414
94.0674468317061
94.0026904683494
93.9194708709155
93.7139845256525
93.3793964464763
93.3933795902673
93.456384930483
93.3133659180484
93.0834392832507
92.9922310510567
92.9332759662521
92.7533633077122
92.5913353724447
92.5946971648468
92.4114326403262
92.1710613787295
91.9837360460778
91.9322674569398
91.8221562794344
91.7333990618285
91.5377167523856
91.4084488936352
91.3855701389551
91.3563867803692
91.3662341967048
91.2980772105924
91.0559564068811
90.8807201994818
90.757218871834
90.6444764824056
90.57490135394
90.4621274381802
90.3127616547964
90.1885242314917
89.9818171329499
89.9002101885602
89.8758370549001
89.8276092174193
89.678416547293
89.5703722976792
89.4977816149525
89.3696763449826
89.1397725955257
89.0604995008542
89.037400555574
89.0671860696962
88.9352798129002
88.746109065134
88.713334928401
88.6572733046862
88.5114588887429
88.3894295975714
88.2321259673361
88.1706743000301
88.1238088199464
88.0747560772271
88.0142221772984
87.8791713367743
87.794974545318
87.9551911880714
87.8753204377104
87.669517870416
87.6492326215284
87.6844770300112
87.6677345986969
87.6180923200236
87.5086818399122
87.4322120391835
87.3565635090586
87.4568839253157
87.5262083658637
87.4932434283928
87.4879983632868
87.3269837927109
87.1431569111022
87.1533887104929
87.0921436210083
87.1548521545528
87.1665353656216
87.122799384607
87.118348546492
87.0416942433525
86.85236546664
86.7934842059389
86.7816160715839
86.8245163054561
86.7491967863409
86.6463774761245
86.5935535472858
86.6054954709411
86.4905288180534
86.3365728878545
86.1628755478491
86.080918432941
86.0952007948049
86.1131742912797
85.9770184998438
85.8360145836106
85.6755966540935
85.6233714599874
85.5579962126381
85.4593281730561
85.3524811895717
85.2828760215865
85.2044300740204
85.0942803459906
84.8820994393645
84.862930856847
84.7817192471911
84.6018159970406
84.4114696971352
84.3134274291069
84.2132254502953
84.216711640324
84.1317211898468
84.0317654927207
83.8716590573739
83.6878364617245
83.5883455453048
83.4918184068637
83.4288019898856
83.3335649728617
83.1960680612635
83.1541216189052
83.1156485124364
83.050948645187
82.9036645415734
82.7409164423959
82.663216996214
82.6767747281962
82.6431134735352
82.6220155500784
82.5586894732614
82.4708051662914
82.3740702962223
82.3593595318163
82.3078996601552
82.3500181126082
82.2365903080671
82.0974337229006
82.1193614507364
82.2189416658567
82.1899097152306
82.1542747139473
82.2021577946478
82.2330765738856
82.0740173297257
82.0330463548422
82.078652091384
82.1803117675397
82.2349817665144
82.3067950728114
82.3255417884867
82.3483710952089
82.4070808150109
82.5075958177839
82.5344770746398
82.5504457413633
82.6557205461244
82.7764967821713
82.7305907267876
82.7966861980264
82.9767994088123
83.091857466047
83.0850657182606
83.1015376617822
83.2099097352801
83.3379186827295
83.38000763601
83.495018994325
83.5652659253722
83.6260045211122
83.7167659910051
83.823828022135
83.8847494382522
83.8699494101285
83.8646196921924
84.0156416920676
84.1484382112909
84.1849317163477
84.2314144777647
84.3133172095876
84.2298855120075
84.2959171863466
84.4053815210137
84.5139414926356
84.5345652793903
84.5537238314622
84.5623397418127
84.5786766979241
84.5781888521408
84.6061133608982
84.5986718828059
84.6439844772342
84.7317137315189
84.7702178237958
84.7101276717179
84.6941985550018
84.7222028494631
84.7683593200012
84.7564898831787
84.7418288876518
84.8183624881001
84.963623674117
84.9522018008345
84.9935685222339
85.0296496902103
85.14351069718
85.264287812959
85.4000513729076
85.4673590726077
85.5131220476816
85.5534315131507
85.5856739766542
85.5898412416341
85.6537585396236
85.7667679021222
85.9147282500092
86.0181179301787
86.0798009994963
86.0736716097613
86.108010503157
86.1785059199679
86.377021441557
86.5262839843487
86.537696091245
86.4954834950626
86.5831796097948
86.6873456554447
86.7311763049811
86.7190460201261
86.821602279874
86.8808181483709
86.9755787252539
87.0884083240062
87.1644744126241
87.2228653367526
87.3306703836984
87.3810961472979
87.4101892604093
87.4521067760019
87.5892266674586
87.6247391317732
87.6759690839228
87.7533312042631
87.789218575157
87.8426465946784
87.9639993662621
88.0032016614785
88.180579240722
88.3326708847174
88.366805314699
88.347308426234
88.4452440588162
88.5134268215308
88.5720698464957
88.680958708812
88.8229992428468
88.8961198495014
88.8981134554075
88.9052205262414
88.9746712201155
89.0820454992499
89.2020828281678
89.2840538832461
89.3283220887986
89.4030784913475
89.48794810594
89.5375986668456
89.6284124890451
89.667290904306
89.7352329363664
89.8304241366052
89.8928532223011
89.8914606760451
89.953446957678
90.0800556916743
90.2287538086225
90.2590819725492
90.3179573323854
90.3698094646209
90.3919860674474
90.4632913376747
90.5480977435812
90.5278949450386
90.5641342886662
90.6739086580003
90.7659831611566
90.7967498542672
90.8769172941135
90.9677683760233
90.9985260712775
91.0195747053444
91.0685140857254
91.0705929959888
91.0621666623271
91.1514783382534
91.2628572430258
91.3340925033412
91.4009625067036
91.4571782911684
91.4825668582845
91.4590083259994
91.5251586412001
91.5800652572903
91.6260627843617
91.7491151788305
91.8061972843788
91.8380182314464
91.8631606474878
91.8761891667884
91.9216506131145
91.9832590411161
92.0716595051489
92.116650015007
92.0983699737543
92.0831704749565
92.0851783082037
92.0969072632625
92.1891768579351
92.2865815296426
92.3176259959974
92.3356013608206
92.4339648703666
92.5056755527372
92.5018485273224
92.4566448252648
92.4576536520034
92.4907504576925
92.5759928391766
92.6257683948719
92.6984095435983
92.7507196980113
92.7396168010643
92.747619156637
92.807620983093
92.8110829236227
92.8157734956299
92.8864074480015
92.9416226619871
92.9000755470723
92.8589933889189
92.8922251945571
92.9935026972705
93.0422836041358
93.0689939867226
93.0773600228891
93.1278371305785
93.1897717365013
93.1912364917758
93.1835811393549
93.2469548117189
93.2726248917357
93.3079247673303
93.3226738979805
93.3191565068177
93.3413312129575
93.388495784459
93.3962769135147
93.4186185269152
93.4403176710312
93.4868856008732
93.4935812078571
93.5063465901815
93.5463544334103
93.6206745992525
93.6619808375076
93.6323624124591
93.5827703849314
93.6211862187782
93.6491385164192
93.6678199629158
93.7139464702942
93.7847629924902
93.8260626661966
93.859440125338
93.8091265729725
93.8301818501945
93.867170622143
93.8878573964572
93.8902986646461
93.8784056327029
93.873732753936
93.8843115382738
93.9352588749503
93.9986244203493
94.0272602799429
93.9817459032081
93.9947404965144
94.0407466229388
94.0356896402158
94.0625718681231
94.1282898361492
94.1282059219829
94.0529286428064
94.0309061609485
94.0946583129302
94.1460998160847
94.1106090665543
94.1098713977747
94.1087092173857
94.1206818100537
94.1752132741825
94.1878727536922
94.21225706402
94.3058806846852
94.3131028985573
94.2839735205183
94.2749479350184
94.30156290315
94.2893980476012
94.3275193829175
94.3349217516037
94.3292232367636
94.3550346139755
94.3789234790009
94.381081278507
94.4109745891506
94.415190491786
94.3864886122822
94.3772033703026
94.3949568220127
94.4060072504668
94.4293031713732
94.4381415982357
94.4376773790409
94.4250035046145
94.4515324527962
94.5043831259246
94.5154023317831
94.4969066178736
94.4681484727167
94.4615968643996
94.4953797469704
94.5152381395331
94.539802626661
94.6103856615942
94.6479474979894
94.5607971195023
94.5549725360608
94.6134603243641
94.6219840205456
94.6219383810747
94.633565922408
94.6168280925928
94.5690586183361
94.5896404900212
94.6038904544929
94.5691105578331
94.6229916802833
94.6989539254829
94.6946055311859
94.6515734130483
94.6576798082805
94.7179711037605
94.7196920711258
94.6674079296646
94.7000217784393
94.7480608647216
94.7430778884325
94.7451398992903
94.7614688822532
94.7333502552803
94.721677821524
94.7650815790025
94.7991663652539
94.7734586711992
94.7370915710435
94.7286865545366
94.7458152080583
94.7936197992454
94.8377997124898
94.8047968074619
94.780565129391
94.7934665360869
94.8135421620773
94.8377615804679
94.843108987834
94.8415953943162
94.8664178046886
94.8876751938365
94.8824593162372
94.8441881200961
94.8352678674078
94.884249002755
94.8841696275231
94.8558288684427
94.902156021358
94.9268083593131
94.902225580835
94.8717497093883
94.8834976381868
94.9234801804046
94.9172628871063
94.9362991564584
94.9668309701024
94.9616860013342
94.950505113314
94.943816344043
94.9304104947512
94.9349313373602
94.9295416428485
94.8873636972671
94.944985889648
94.9855553586836
94.9367426711205
94.9009857499924
94.936316929562
94.9686093266742
94.9134769992273
94.8516096015054
94.858751742709
94.8991682107993
94.8869654623172
94.8669480241847
94.905562009177
94.8611106272142
94.8331187640304
94.9166935342873
94.9702805880422
94.9658617540127
94.976168026901
94.9100021783109
94.8407466750939
94.8395596661546
94.8729441723827
94.9677911514605
94.9769317253657
94.9217006307442
94.9728710493501
95.0077521094063
95.0786357367835
95.0952591247925
95.033333538898
95.0100541270648
95.0731757532086
95.0987723742211
95.0441820069985
95.0777576251005
95.1503777562872
95.1173884955686
95.1164650170533
95.1286963635967
95.1525308557491
95.1565472552324
95.180605559356
95.187493939904
95.1236368864059
95.1447808908132
95.2348874700883
95.1876583551325
95.0837033554274
95.1526318228174
95.3127387042665
95.3545911316525
95.2891092292755
95.1997371021192
95.2770694748531
95.4081081602332
95.4040684345151
95.3611848153866
95.2935495659019
95.3023153243758
95.3141499904225
95.2910959760874
95.2724761868067
95.3303717584215
95.3807238429691
95.356224049066
95.3425882922272
95.3408357659967
95.3450684795758
95.3388113126353
95.2771273557499
95.3387949303606
95.4283715894614
95.4200863640168
95.3812878601015
95.3580043081472
95.4550862151658
95.49742203496
95.4433817892025
95.4377134827731
95.4955980014259
95.498281835158
95.35820534112
95.2729721207219
95.3812003596493
95.4146174184106
95.3926709611233
95.4424428076826
95.3854854119817
95.3428054450088
95.3614623085278
95.3360688762411
95.379670451901
95.4687081781265
95.4615857611478
95.4141644677513
95.3497385957493
95.3606715778562
95.4152253797597
95.4642443555941
95.4696125244124
95.4048108012144
95.3987458118871
95.4901270490771
95.4347099913238
95.3260837971542
95.3673918501745
95.4234178354264
95.3952842024563
95.3586368670473
95.2484780138462
95.2860645465532
95.403360142146
95.4684504631337
95.4620231666987
95.3613708415497
95.3597154659062
95.3801346708876
95.3327087137053
95.3383862034863
95.4287360770262
95.4250211841184
95.3356494143823
95.3312807271642
95.3557133632249
95.3214141700313
95.3546689958631
95.436715733792
95.3774242570054
95.3346967156986
95.3665946510781
95.326629378981
95.38386634525
95.465714943723
95.4807251965872
95.4189749168795
95.3952012099646
95.4141624974964
95.3748618226967
95.3495060423997
95.3493397123446
95.4139102219222
95.3965516977412
95.3727723201579
95.3783154998156
95.3887666754685
95.3832971807204
95.3504976814783
95.3203905394012
95.331352891363
95.3408422936325
95.2887723996294
95.2946730218945
95.3543220658788
95.3465576026567
95.2851233671586
95.2251910596032
95.2259340944787
95.286697746852
95.3124617060863
95.257116026851
95.1998653611936
95.2113306233364
95.2089348967261
95.1689348614957
95.200753893142
95.3260250535611
95.3310259728289
95.1738494334806
95.0765935942592
95.1701021853576
95.2370387164715
95.2080455841007
95.116518961868
95.0651410703941
95.0746148622603
95.0432934107068
94.9678056672517
95.0255690035796
95.0691465410174
94.9948968672248
94.9318914566879
94.9074340150654
94.9706588049016
95.0406741870715
95.002558778277
94.8889094845094
94.7613126479271
94.6992345853772
94.6742936487115
94.7503226584313
94.8501212908282
94.8981969482735
94.9261702307314
94.902378365873
94.895429715243
94.8503200351404
94.8552185619886
94.8782541988306
94.8971764708673
94.8386088236772
94.855910429125
94.9457089558188
94.9159534075129
94.8346338566344
94.8439698547456
94.8102233955368
94.7782820483567
94.7165819318624
94.7719728823773
94.8999104091344
94.9636478425153
95.0768065494909
95.1439220747487
95.175109540875
95.1202713538737
95.0335668948445
95.1543900819949
95.3713475237415
95.4329436168503
95.361477560323
95.3882086928983
95.5724254689253
95.5919088393914
95.5359492474913
95.7160210573994
95.5375660681211
95.3560229949243
95.4785653328896
95.5894249590004
95.5117242363739
95.4288582244688
95.6939360844007
95.9241510154422
95.7587871464656
95.7102450668984
95.8480491779848
95.917274284243
96.2300431061327
96.3448548349691
96.0068815674777
95.7391390708625
95.8795156500414
96.0674216858765
96.1463630526247
96.230378042921
96.1879706945522
96.1638599836781
96.2539842690069
96.1373809507489
96.0995468547019
96.297078677642
96.4191979533403
96.4982512505533
96.5268782217664
96.3753258982531
96.2679962560793
96.5667145374549
96.8615324991302
96.628825455045
96.1975518622534
96.3750019901314
96.9625334080761
97.2700259924937
96.8267296665465
96.7946951225512
97.0251008309467
97.0396780473335
97.1330667030294
97.0455242563729
96.8374491210611
96.9697813130739
96.9896442972867
97.0038889667471
96.9668542162259
97.3322843862486
97.5325482526507
97.7658254491214
98.0102029376204
97.5266417342014
97.2168773359972
97.2978135503984
97.2293089367763
97.1127459917829
96.8989693945105
96.6754476265195
96.5364219842971
96.388670184439
96.3753170981633
96.4599354252262
96.5124358688671
96.4304302024434
96.3429666123916
96.1779825630955
95.9615655268624
95.8363924799105
95.641508985797
95.6103965817508
95.8994504402655
95.9494676661611
95.744445119423
95.6673010871238
95.7454866065672
95.8185462794708
95.7444305974513
95.6358807001127
95.583936582602
95.6584110512245
95.6762111730571
95.8179653652097
95.8058371952576
95.7295979193894
95.8232335127761
95.8768061233566
95.7464131468457
95.5979872526743
95.6398377663507
95.7152794758284
95.8632481425938
95.9120455915189
95.8873621167176
95.8512390582094
95.7081977298345
95.7681491380717
96.0528666888327
96.3040522182503
96.2351326190091
96.0027751628917
95.8830196943144
95.7836259189453
95.6836047467627
95.9689937814494
96.2650195403438
96.2840771862271
96.3295322283006
96.4147975523347
96.5675573869476
96.5692527810489
96.5800788812307
97.1337145359619
97.2579604513353
96.9878682736827
96.8233074946325
96.8912815834068
97.0690583531103
97.2814020569381
97.2790968851207
97.1117972263777
97.0930848172532
97.4147252469242
97.7040890065669
97.636242650501
97.1555452933933
96.9002734610586
97.1293662800957
97.1960194265228
97.0700636278239
97.3895788750518
97.5470541276621
97.2194253151527
96.9714783279213
96.898876318137
96.7480470116985
96.6663630442524
96.7939038694906
96.9071042630429
97.0615210833438
97.1282337185355
97.2063470568298
97.1596818310906
97.0398113901175
96.6235061827052
96.570754182307
96.7486379183106
96.6753286603609
97.0458088019435
97.3631996405639
97.2870703327891
97.0756744067818
96.9393029588456
97.0816183440876
97.3319829862597
97.3767339368142
97.2603902584297
97.1703950292504
96.9174656345574
96.6151108247399
96.4920880980149
96.4469512311893
96.3661632122358
96.3213068642297
96.3417686907317
96.3129699191668
96.3362055254404
96.3477692658558
96.4880888551727
96.4592239036716
96.2177249078027
96.1670563334904
96.13563155881
96.1104801078014
96.0974272135582
95.9965702258689
95.9441134645554
95.9860240668722
95.9929101205066
96.0110544218417
95.8683114805837
95.8626163718758
95.9964240092072
95.9566882953348
95.8311466951338
95.7051675496993
95.7722768484453
95.8524424500433
95.8894815336902
95.8132611898997
95.8016496966568
95.8639076137718
95.7911137888701
95.6453368243023
95.67298613275
95.7753093373826
95.711123430882
95.6698131643304
95.7230804755953
95.6541032361584
95.6541960999919
95.5911304529907
95.4728318830109
95.4873922659081
95.5797001430957
95.649095535677
95.7015934324575
95.6118904587561
95.490357853874
95.5245475173028
95.6023735799005
95.5588989914356
95.5640747954245
95.5551753655059
95.4739267608069
95.4546710803997
95.5128938900572
95.5323710122484
95.5057972484744
95.5441943482481
95.4944692169667
95.3987649154608
95.3613420839556
95.4134423598175
95.4347311610975
95.3908370988182
95.3965754196172
95.4310679347948
95.4245295669481
95.4292027709779
95.4106137169139
95.3585449266612
95.3635065168418
95.4348178554343
95.4452002481059
95.3520385699791
95.3114524466882
95.3126473655831
95.3052670541205
95.266330486778
95.2329675094582
95.2476231971633
95.278256772567
95.2927459489776
95.3068034229951
95.275028577749
95.2654482823064
95.3342018057836
95.3319099325135
95.2755381974642
95.274552245702
95.2602741456368
95.2053616214463
95.19475137645
95.2483982678814
95.2280374572765
95.1917539241405
95.2214211679586
95.2695370721956
95.2055439897861
95.2094785850035
95.1999137860034
95.221483742635
95.2728020275857
95.1798480677017
95.0998909230272
95.1657092680435
95.1471575477145
95.1007147595943
95.159048500337
95.1923991008016
95.1710355893927
95.1175495630967
95.0228494375595
95.0350473064478
95.090786129968
94.999765420566
94.9355454866588
95.1040209239051
95.0492728411261
94.9595405111484
94.9059186229842
94.8490152682109
94.8589401861503
94.8561360111345
94.7403150291321
94.6910752463052
94.7563258663234
94.7215677181357
94.6597142035394
94.5994094738667
94.5094327840332
94.4604559566546
94.4386258362709
94.3134301849719
94.1773104139539
94.3368022072044
94.1931196092889
94.034140169304
94.0381190998307
93.8624330967367
93.7192345118843
93.5962158073526
93.3092541700636
93.1712857681374
93.2502470020772
93.0843381364549
92.8765987605184
92.6511539587282
92.5335741889248
92.4430236789471
92.1561480791874
92.0431096292782
91.996669116276
91.7243782330342
91.4584285058845
91.3434051171349
91.2055109423796
91.0476559368744
90.7622593555987
90.3385324992483
90.4021705608887
90.3856069606311
89.7724038686327
89.3287215455001
89.1414141626855
88.7550874642404
88.2386277942775
87.7916058557719
87.32915793172
87.1757262789084
87.5556209651594
87.6668633865785
87.6128057024743
87.690007634704
87.7461247297895
87.5832317804104
87.4394453508032
87.2144346194695
86.6502291086828
86.1845066996555
85.9621111368068
85.6355065464498
85.3390452903503
85.3406527066377
85.5837873723632
85.9705254057595
86.4644898253017
87.0618715083469
87.6538540316798
88.1596244642008
88.6119454011036
89.0715150289866
89.5009651148185
89.8251190012658
90.1200387603243
90.4036195717489
90.6433514901691
90.8833187054041
91.1135875486339
91.2792073811111
91.276600416097
91.4127973304071
91.8984207704885
91.9591322654067
91.8349703892978
91.993327918409
92.1448452245375
92.1798982563659
92.2878586763516
92.1157318332549
91.941378093535
92.6414621376825
92.7710135537059
92.6666964550029
92.6872241159751
92.6866502018249
92.751050553272
92.7049006664277
92.7071867242231
92.7532726127499
92.7426839521146
93.1597134818368
93.3614490774872
93.1140214526764
93.0541861735378
93.2760658932524
93.2421286054447
93.1722846503285
93.2496876728946
93.2786408976509
93.2515131861331
93.460983409266
93.5491376759136
93.4895299622824
93.5506856791769
93.556351751081
93.5885767138898
93.4988974650885
93.3886865273295
93.7257995776548
93.8341847963269
93.7166230466316
93.6378846988625
93.6020478265439
93.6972642318899
93.7860550362685
93.7148794429956
93.6721831534116
93.7579038350032
93.8152923002454
93.8208110780673
93.7502526668157
93.7162435040682
93.7354076355392
93.7131125103447
93.6826194620259
93.6523505692196
93.7487194356378
93.8624065472088
93.7340411248861
93.6221766542657
93.6540037410411
93.7433783751216
93.6776901605353
93.5350820020374
93.5708237392872
93.7816920419669
93.7217676961114
93.6085891473517
93.5471406359796
93.5496564303002
93.5794906411703
93.5258675268362
93.5165323030195
93.5104554046615
93.3806758957337
93.4076533665609
93.6082056802563
93.5420811711957
93.4512034104984
93.4729344155815
93.4679329660372
93.444158525051
93.4934073346
93.4770511118435
93.4091013252287
93.5594618765191
93.6381908139451
93.5867648491547
93.5640232100218
93.5860461138158
93.6078253892545
93.5985520025782
93.6568599341529
93.7177918535846
93.6713030546797
93.6730058190631
93.7536117752876
93.7570093457667
93.8233498625744
93.8701821990166
93.7916111351056
93.7541959244174
93.8234471927935
93.8504299381094
93.8226828574944
93.825211890541
93.8450011452265
93.8436394930524
93.8358425049243
93.9179569322512
93.9365558529672
93.8995995012639
93.9332515742429
93.945621369079
93.9022113244849
93.9610475649394
94.037716247488
94.0029174048529
93.9743978082775
93.9848350111757
93.9980566085732
93.9870400539421
93.9748884925529
93.9932691015993
94.0108895085834
94.0038209301412
93.9822549883518
93.9936087319257
94.0203183065617
94.0014282770795
93.9975994663372
93.9955426623081
93.9738863415397
93.972068627484
93.975396365719
93.9778159797907
93.9713345202972
93.9621448864325
93.980548438165
94.0185618833391
94.0205306364697
94.0104810299724
94.0168596039177
94.004933505591
93.9982005871598
94.0035427782361
93.9895890985353
93.9757995443838
93.9785082155775
93.9925348029451
93.9764290674784
93.9525738213987
93.9534869707258
93.9625297014452
93.9402809632674
93.9172977059126
93.9042396625351
93.8898764637716
93.8542786746653
93.832356700241
93.8129733229121
93.7940066301157
93.7755675758666
93.7493695497731
93.7156491492672
93.6714977529334
93.639092642935
93.6078532815107
93.5545868749614
93.5019295196952
93.4533055067278
93.4079688515836
93.3566432620411
93.3045568250562
93.2175307237921
93.1367838771247
93.0349574407393
92.9218567960099
92.8416672052307
92.7426158589937
92.6014550924597
92.471066148222
92.3321019130278
92.1776145070647
92.014132984299
91.864892297701
91.7198337810935
91.5554284822144
91.3722628767843
91.1793139204802
91.0040543723999
90.8030711238972
90.6012621958112
90.4172097893295
90.2041135590556
89.9650299499849
89.7319305682728
89.5117086627093
89.2887735052881
89.0750226508129
88.8074388064093
88.5283978532788
88.2704145370822
88.0343167551528
87.799233012828
87.5326362839998
87.2707155351012
87.0170955329163
86.7698523461768
86.5105815755998
86.2474771251421
85.9747729593228
85.7040006237577
85.4389507851681
85.1532747977088
84.8434630478772
84.572030174226
84.313786570869
84.0330589144446
83.7607894509761
83.507429858814
83.2479611813306
82.9717980164788
82.7085572012353
82.4529847847324
82.1710333244298
81.9048579964585
81.6459874589051
81.4035218598897
81.1441224451672
80.8831549295348
80.6438073649049
80.3926999657801
80.122086104727
79.8694077230162
79.6409111039681
79.429484845122
79.2345660668216
79.0942970911641
78.9774122873297
78.8449956663011
78.7178540189279
78.5782573998217
78.4252238072561
78.2541918806952
78.1099947067296
78.0090150583953
77.9056805932215
77.8088181931505
77.7355741742546
77.6582321763634
77.5924547306138
77.5476809564295
77.513526505357
77.5149706329194
77.537802337829
77.5646193141381
77.6461640187515
77.7401569569346
77.8569134145415
77.9940103684596
78.1656154818631
78.3677338906903
78.5732905277472
78.7730823852774
78.9753281482695
79.2107934319586
79.4657481450913
79.7524524695299
80.0789080781372
80.4163222148264
80.7263343990802
81.0975326862143
81.4926402462684
81.8809652376219
82.2465967808889
82.6110523816618
83.0201855898025
83.4387451595626
83.8170848544359
84.1571873700451
84.4843545486803
84.800494451115
85.0894296499789
85.3273026683679
85.5591631722802
85.7901573049227
85.9918819828201
86.1766662670006
86.3569375280477
86.5060612525976
86.6446503966094
86.7941369957044
86.9270165977659
87.0355233856321
87.1379292925422
87.276774836237
87.411812731713
87.5092243540264
87.608866750914
87.7162852031385
87.8231927686385
87.8993829064559
87.9949039385066
88.1073315225791
88.2142558221826
88.3290858154046
88.422112836216
88.5054104182326
88.5795415429386
88.6630030785368
88.7463490164617
88.8657013879574
89.0397024683285
89.2389029104643
89.3845657017713
89.5073094883954
89.5738197840513
89.5680326285869
89.6333944284954
89.8317034625544
90.0105600098246
90.1417273117008
90.2675393918056
90.3883481001806
90.493015241071
90.5797240913083
90.6571395349268
90.7095014959698
90.7739564620178
90.8654521672828
90.9539674491245
91.0134471353705
91.0634294016428
91.1368435112203
91.2053801856881
91.2443086708166
91.2807120979489
91.3223146235536
91.3789755161452
91.4226420602748
91.4482398394509
91.4938408011956
91.537822679048
91.5943959684393
91.6559680342081
91.6851224446973
91.6823111761666
91.6844482162545
91.7164368555099
91.7741625165932
91.8307573488615
91.8617635330672
91.8360132796094
91.8567384591469
91.8866710147187
91.8885397201496
91.9433084580909
91.9717917992424
91.9507982208467
91.9652105636029
91.9974571454898
92.0137489512526
92.0055852502744
92.0074536041585
92.0399498440877
92.0348364422408
92.0178306547371
92.0086695704031
92.0306716093051
92.085675890538
92.1115725949266
92.1166790437798
92.0957281083561
92.0680209751118
92.0493964711365
92.0567032210357
92.0651943967237
92.0559879298222
92.0596899592655
92.0583847006306
92.0141231349817
92.0002745092195
91.9995723239889
91.9779893750472
91.9619072841801
91.9534642414234
91.9027827356568
91.8709156475595
91.8880511687095
91.8984200604502
91.8635506378801
91.85376124967
91.8600889945748
91.8407948508775
91.8240670896601
91.8064664356095
91.7864943633381
91.7548339098346
91.7055492517029
91.6731243008117
91.666040414564
91.6396508594081
91.6082652271635
91.5738767302073
91.5604701343238
91.526644836517
91.4532710365403
91.3951927685168
91.3991843433809
91.3999948640197
91.3381540325916
91.2539664379206
91.1922751351387
91.1475996343746
91.1484195623462
91.1557445068005
91.0706845883111
90.98165972348
90.9295665161231
90.8752664800282
90.8331519002634
90.7779116634101
90.6951808446649
90.6396542142692
90.5878673765971
90.5187188831144
90.4596409328073
90.3452821768256
90.2554414794075
90.2446486136857
90.2022843019051
90.1119588205306
90.0213543516646
89.9695293956876
89.9086201432598
89.82297029773
89.750327927931
89.6725503737003
89.568356931963
89.4730144282164
89.4024829145999
89.3396722501769
89.2676901150685
89.2404545493681
89.151183688866
88.9756325270577
88.9137744985665
88.9095446590435
88.7817396648858
88.6146084088599
88.5204946504018
88.4732469361588
88.4000255824513
88.2942839422694
88.1521139189064
88.0012264090927
87.8960398040591
87.7980784141313
87.6787060196344
87.531753210436
87.3956049165464
87.2531025478263
87.1195637308024
87.0406612049024
86.9420295544328
86.8098004006689
86.692132789994
86.5704265832083
86.3707066280932
86.2255714599308
86.1118636720792
85.9157306351698
85.8103719186557
85.7573911008417
85.6075342921582
85.4611988566567
85.3166420269973
85.1370633846849
84.9445849847991
84.8017544761191
84.6807566900961
84.5854426529978
84.370996586678
84.1606003671541
83.9953415465703
83.7334963940715
83.4468916868343
83.2975057105549
83.0874128474405
82.8856450139822
82.662741578228
82.3862605957495
82.1385856780105
81.9896858794988
81.7716888740799
81.5089188706821
81.2875912219498
