1798
3999.43349933624
650.420452594757
1
128
4
95.5887352730996
95.5830236897785
95.5782886241523
95.5207576170394
95.5515626063684
95.6195913680721
95.6795479173458
95.6273443287921
95.5382625070787
95.5779271976731
95.5823792083441
95.6518807744629
95.5931641217511
95.4883571138956
95.5036385218301
95.525819324943
95.5685284987401
95.698718619776
95.6685788019651
95.5909620160099
95.602688097646
95.6186569595476
95.6162297729296
95.60581670593
95.5801852592098
95.618061384099
95.6408558992025
95.6470839468798
95.5927515302256
95.6306002256871
95.6737324005769
95.6875096230844
95.6344773846518
95.5872220824824
95.5265259988893
95.4907268928384
95.5156076481583
95.576464379485
95.5967449427909
95.560776992453
95.5541599774994
95.6832027575628
95.6866500239835
95.5778837093973
95.6278376794088
95.7157160437989
95.7547695893622
95.7461848604489
95.5705432687294
95.4421049094599
95.4561331364346
95.5617338775364
95.6273452294341
95.6235745137644
95.6428152045729
95.6555845047027
95.5988543398302
95.5406187279715
95.6323279646528
95.6544450547828
95.5416373315516
95.5657820601043
95.6962369448843
95.7406598578477
95.7167771362739
95.6696367785151
95.5851783557756
95.5455762008158
95.5375458734256
95.5664129302108
95.6193553066445
95.7010828244228
95.7056686633657
95.6610033273999
95.6444929484406
95.6882275289894
95.591722356013
95.4669414321599
95.5182711192312
95.8874863803109
95.9983025520716
95.9383019694869
95.8327575720818
95.6592392546988
95.4907905944113
95.4407941901396
95.4739025601826
95.6739253372099
95.8046162823871
95.7430886501715
95.6844649259382
95.7377690357967
95.7621353442198
95.631531240595
95.5276697850294
95.617498755953
95.6618203879543
95.7989077772501
95.7960424389197
95.7403171197098
95.7777632891403
95.7523041453846
95.6604278101321
95.584401289448
95.6059159132471
95.6873751966483
95.7005616489005
95.7838169524561
95.8357586858022
95.8224947458129
95.7409435651942
95.7216438551634
95.7403274603388
95.7578173453401
95.696229488333
95.7126287236513
95.7705258064817
95.7348852958429
95.680471633419
95.7489613837669
95.782374197209
95.7019772472615
95.6011779678227
95.6194803202765
95.7655269804726
95.9379665558167
95.9028193581933
95.7958524988553
95.739352683044
95.7988922808079
95.8286216930052
95.8109437567106
95.6758415854104
95.7018383478069
95.6720892953868
95.6266100818603
95.8054615962106
95.9721561385264
95.8835244328639
95.6854036728625
95.5353677016409
95.4828414483192
95.6170545235681
95.7720839071604
95.8192176742103
95.8307890992725
95.7571198226645
95.6758295495039
95.795075451608
95.8723329371358
95.8858568612972
95.8215184817011
95.6883704966722
95.5562972178191
95.6156515981421
95.8386093360357
95.9246802341502
95.793995209417
95.6217311965954
95.7299834568751
95.8613720803886
95.8297163390693
95.7516338803537
95.7845584968701
95.6758623671235
95.5140511073073
95.5799245521667
95.7591344109859
95.7850048733539
95.8023018971959
95.8023458192408
95.6866860793943
95.6127111664831
95.6073342003462
95.5520409590402
95.7137099944085
95.8357265225837
95.7947121053633
95.7088401730271
95.5952755844668
95.548224329158
95.6058695549475
95.6099321978988
95.5671432437267
95.5470774753948
95.4823921460363
95.4347794828731
95.4332846463163
95.3480846082709
95.2936658290655
95.3474393230079
95.4114256993875
95.3674911236051
95.2780289042271
95.1170022415634
95.099241308315
95.0010770298692
94.8711549148889
94.8263812645756
94.8322075904621
94.933048316929
94.9705752569376
94.7986154599667
94.6924509274305
94.609376857768
94.4746104425376
94.3893210393793
94.4310264235016
94.356360502515
94.2882115642037
94.1878986632422
94.168719252895
94.067183912378
94.0381392605704
93.9702015787489
93.8747246539959
93.7830017988734
93.6465281432441
93.6126872691289
93.5911020054821
93.4850103489431
93.435341277268
93.4157045726621
93.3243301703776
93.2515476432542
93.1696915616155
93.089827461061
93.0844303137964
92.9473984734833
92.7217587443767
92.6201138704722
92.668896724597
92.6915691507991
92.6836398085326
92.5231365932884
92.3814737409143
92.3050968740889
92.2606346686248
92.1570326102803
92.0130044950315
92.0441080020561
92.0304737832956
91.8197894864958
91.7939711332266
91.7921041054579
91.7434426431254
91.650168152619
91.6666985226004
91.5512137603199
91.4210339088069
91.3893130895954
91.4236021985153
91.2726797582972
91.1052072753459
90.9826630294569
90.8812630054472
90.8723033302436
90.9616733344271
91.0530320220927
90.9594159562757
90.7475993931037
90.6774254597422
90.5890232838283
90.5888901270799
90.5331573972322
90.4504624839174
90.4423727767968
90.3866718346697
90.2384001596946
90.1050241482459
90.0657552439959
90.0642587878972
90.0472232620045
90.0347658809054
89.9289301059003
89.8126553706518
89.7380057443623
89.75000235797
89.7248639740114
89.7168417654019
89.6810010766374
89.6349256644729
89.5343909521644
89.545307554381
89.5315611085261
89.38763417881
89.2566550676157
89.2165532748214
89.1211037080193
89.0356935568374
88.9763746548483
88.9480903662036
88.9074664654318
88.836962092312
88.7431958703799
88.6986437784298
88.5787459318034
88.5123566385422
88.4742826359578
88.4102118784978
88.2797812858863
88.112494219502
88.0547586668442
88.008232741133
87.8471031196744
87.8240553835029
87.8212630254484
87.8218641409906
87.7098221941742
87.5249958566791
87.4500656678617
87.3522939160802
87.2392433533605
87.2176128285606
87.1134777258104
87.0678132642251
86.9980750509143
86.8567460620116
86.765883617638
86.720348906434
86.587961872187
86.4902825496934
86.4044690492159
86.3449231102208
86.222424278575
86.2203490880035
86.2717318390693
86.2370489008029
86.1154608072555
86.0517753666845
86.0624841171004
86.1005881948034
85.958464482436
85.8429442613178
85.8116684968469
85.7888970998436
85.7365588960051
85.7545008528071
85.6984184704179
85.7473772220451
85.860683261771
85.8942452417244
85.8500133906208
85.8067963847347
85.772679965152
85.776820160873
85.7058270594599
85.7324497445745
85.8280599753021
85.8468610511608
85.857450650371
85.8077194789213
85.8418824317203
85.947473946759
85.907419115132
85.9458709843153
85.9621659493681
85.9484534256716
85.9438935836424
85.9978383857684
86.0207122306093
86.1907478430902
86.3444022138555
86.326802301185
86.2733787327963
86.3473485226441
86.4488062527212
86.5190076808223
86.5261853930056
86.509393121459
86.4645359204473
86.6137522930813
86.7459358407826
86.7540169616503
86.7115920920049
86.7362979284477
86.8142944461903
86.9233316421308
87.0217680454885
87.0659113006602
87.1079453199593
87.1170037044717
87.1411742247604
87.2496300128084
87.2239811686046
87.253096664022
87.3043604645678
87.3559830553612
87.3987519571203
87.5183471057522
87.5201118736725
87.4665581847576
87.4214058480148
87.5062436028955
87.5209522147176
87.5579960982995
87.6550408908097
87.6609459777089
87.5824710012159
87.644357394666
87.7122827811104
87.6781025413098
87.6241071663844
87.6117270219227
87.6392340118079
87.7246689434699
87.6637696437039
87.5890874734114
87.5980394639367
87.6678996230298
87.7464498033457
87.8559485220884
87.8989619294268
87.9665426336963
87.9872570311742
87.9566644629611
87.9743950461489
88.1133789164371
88.2327244236033
88.211707033577
88.1908157067462
88.2710342854232
88.3562874694863
88.3832024345126
88.4658675472803
88.5469995164131
88.5501917009296
88.5749537133971
88.6294964836065
88.7296517419719
88.8055407638831
88.845045461915
88.8375915824574
88.8754501460727
89.0026119341744
89.1420828699295
89.1819747579281
89.1732774246957
89.1871788388408
89.2696455184952
89.2712084893086
89.3020109687281
89.3424886174197
89.3964574305857
89.483738447752
89.4848702683501
89.5150008313912
89.7470892177741
89.798062446175
89.7122393927547
89.8207670848509
90.0056458549724
90.018681974498
89.9912728368213
90.027836502129
90.1537749873154
90.2196623501447
90.2554237000277
90.2946188075498
90.3758549577618
90.3755598633949
90.389485636904
90.4429442017994
90.5732138346784
90.641162941921
90.6950587855802
90.7146618352833
90.6194492589468
90.6496797843328
90.8046910661193
90.9281867107617
90.978469045756
90.9153460846363
90.9785323695198
91.1170599235208
91.0802123810207
91.0721504919813
91.1884555273416
91.2334667581176
91.2964969939311
91.2674558157827
91.2582972434277
91.3176848909874
91.41920529038
91.4509663407543
91.5089010764737
91.5408038022906
91.5352524084082
91.584411365952
91.6222139757333
91.6650911012584
91.7716414494189
91.7452357507987
91.7352294631825
91.7726075194041
91.8382539627812
91.9383306664863
92.0242760911441
91.9790098379846
91.969288331583
92.0247908344927
92.1149137503787
92.1614702625356
92.1947802236392
92.1975304696409
92.2302487740901
92.2520452660246
92.2923853934852
92.3372702943858
92.3906614683906
92.3913773190945
92.3995502372636
92.4285920659848
92.476126984897
92.4957220312853
92.5651808839136
92.6322620431929
92.6532399725245
92.6269272838081
92.5760092313039
92.5762939827409
92.6532536959224
92.6601281789012
92.6993783548724
92.801541659429
92.9162530577173
92.8987020970519
92.8319016001388
92.874958228323
93.0076467856804
93.007043804075
92.9635545185978
93.0309584318247
93.0509602695917
92.9726216009657
92.9763020955747
93.0276414714332
93.1012295737694
93.1969742730664
93.2078306152217
93.1482529356429
93.1242174669569
93.1551772973461
93.2374928902779
93.2971414632992
93.3332629649269
93.2694390530441
93.2553557521071
93.2754184350965
93.31745631758
93.4005320497871
93.4228572414543
93.3928957055258
93.4173578596991
93.4548280790447
93.4210522301017
93.3928569586955
93.4549962123236
93.5438954849855
93.5687062348084
93.5229001818178
93.5469765335864
93.5771169322599
93.5650209136058
93.5646858575977
93.6151473385159
93.6115026194204
93.583558939328
93.5347545262409
93.5668981347817
93.6442912841653
93.6959847676711
93.732192649694
93.7018205433237
93.6083955433858
93.6231152557568
93.7263527076059
93.806670345448
93.8232440148687
93.8015818930483
93.8080421448156
93.8373650119693
93.8755892545934
93.8542836452309
93.7848822657685
93.7811598109166
93.8279093922521
93.9147883302294
93.9532437310925
93.9447867657001
93.9613151192693
93.9601799123622
93.9730566755145
93.9664390006501
93.9350517490951
93.9738682167296
93.9990667763567
94.017727886573
93.9897631919564
94.0171985417418
94.0649449094393
94.0794714656574
94.0826427635657
94.1267082380555
94.1007211079657
94.0868930276507
94.1050347447454
94.1726135504278
94.2161265358869
94.1875802028293
94.1560735023563
94.1235261449477
94.1716416408052
94.1957034499929
94.1623001336152
94.2369194681481
94.2722563827713
94.2197064863248
94.2249495675559
94.2642764007245
94.2250282493019
94.220255731705
94.2284878220486
94.2328152444216
94.3100965841346
94.3613484739844
94.3296680643408
94.3571250136666
94.356111459211
94.3216168386467
94.3368424384024
94.3181185689507
94.3408980981693
94.3860463234607
94.4242190863455
94.4220034765299
94.3950978269381
94.3823602821323
94.347845942084
94.3690040622064
94.4278669034275
94.462697113558
94.460841201182
94.4716202584018
94.4847279292395
94.4882886341874
94.4218125090392
94.4028597793156
94.4457305609103
94.4992267632257
94.528231858349
94.5381279932773
94.5030774755472
94.4422963901458
94.4445830830881
94.507090294772
94.5472642571817
94.5613815525211
94.5269013812753
94.5212946777347
94.5530075301215
94.5638464492842
94.5615595107993
94.5450470749486
94.5364290709735
94.5574604195987
94.5750926526251
94.5799001698697
94.5663313813554
94.5789211650569
94.584525144817
94.567015438182
94.5777995604907
94.6437964408581
94.6799955102126
94.6230234472992
94.5980811911299
94.6274590371254
94.6503073176131
94.6752597917468
94.6333263351913
94.6113387636449
94.6401391840495
94.6530801473996
94.6560986218477
94.6493193333973
94.6700304313313
94.6662406737882
94.6213129107415
94.6326318099309
94.6693100012102
94.6747718279592
94.6736713569102
94.6964257272129
94.7242208432179
94.7156950234127
94.709244984372
94.7186799314562
94.6648423424133
94.6437353016355
94.6610056794729
94.6819234463722
94.7135554796767
94.745838332465
94.7397254962671
94.7525319622458
94.7452607215873
94.7478840573472
94.776017122399
94.7850627867333
94.7452180830368
94.7362818958005
94.7495685459365
94.75444089203
94.7131152821216
94.7146578213486
94.7355345571545
94.7289881142002
94.7023061309071
94.7071730924546
94.7175428513716
94.7061911811897
94.6612267774061
94.6657272796886
94.6822118586673
94.6788439068601
94.7388125145575
94.6979855209561
94.6119910985918
94.6249976509056
94.667563248861
94.7015949465539
94.7576098195732
94.7560329779945
94.7431033909261
94.7643145640446
94.7549196524505
94.7744522174591
94.7953056901274
94.8526463710426
94.8488900440275
94.8365639989084
94.8807250088037
94.9206571380301
94.8877438855482
94.8334332005642
94.7836844923567
94.7755851018193
94.823050294229
94.9241081454663
94.9514612988128
94.9031210555792
94.9065534385939
94.932399794283
94.959845263835
95.0278413457886
94.9834815969388
94.9338871519371
94.9752879969457
94.9800599048224
95.047361280426
95.0148460699768
94.9845744190974
95.0204813119574
95.0356519147542
95.0020504063604
95.0083930400011
95.143862403562
95.1584844576673
95.0344492916701
95.0439860615716
95.0540013080282
95.0859887774467
95.1149521155594
95.0457033558254
95.0550195322254
95.1231143102379
95.1042972250522
95.0980370941977
95.1664513495639
95.1411395822731
95.0456310031374
95.1001550830226
95.1217047094708
95.1121745023362
95.1561519394607
95.1999645964447
95.2457139427061
95.1955013400369
95.2192194176887
95.2579391583189
95.2343771539132
95.1743824692533
95.0695784889884
94.9730626446086
95.0125953167146
95.1707338368519
95.2312057121441
95.1994518284292
95.1636005347882
95.2066684625177
95.2104881967461
95.1308666899299
95.1260702671155
95.1817081905847
95.1893660616561
95.1620435776719
95.1377765903562
95.1479859723657
95.2249670894344
95.2380762816615
95.2310465940415
95.1453481545101
95.1193848379958
95.1625500070037
95.1243456245702
95.0840899217078
95.1311754603198
95.18640394676
95.1866342080109
95.1386861627641
95.1711726984572
95.150348780373
95.1429267880259
95.1630819384944
95.0935838811894
95.1421576831516
95.115266059125
95.060659067014
95.260047886316
95.3105932991053
95.1546634598707
95.1283219927255
95.106377223633
95.0477656926623
95.1317114089658
95.1479852472416
95.0885150770037
95.144773454518
95.1816152769794
95.1266048696128
95.1892461327223
95.182077228913
95.102926373462
95.1093738356481
95.2329488680186
95.2076758974012
95.146545717678
95.1665939711514
95.1626608190268
95.2493800149509
95.2694762874914
95.1807870057493
95.1591072716772
95.1802060225108
95.2143702212932
95.1909997562536
95.1361907916054
95.1066157277967
95.0464798661826
95.0611899976788
95.0663869147162
95.0748032720934
95.1140956840542
95.1452053613151
95.1088821267484
95.1281677944444
95.1522989920539
95.0670244906079
95.0471778607911
95.0409793891935
95.0439010796044
95.1063180098085
95.149071540911
95.1127763135266
95.1558535137798
95.1980279524726
95.1631401025978
95.166088601428
95.123217738435
95.04492949059
95.0461805835123
95.1242635563913
95.1620691746702
95.1984043730273
95.1402861405434
94.9511314587006
94.8245566958784
94.8741281132707
94.9430498515579
95.0004515755068
94.9890746285929
94.9684798273043
94.9668065054548
94.9923428810895
94.9880920109461
94.9295749736285
94.8671498513202
94.7758937866629
94.6851428877999
94.6401964293167
94.6893545861837
94.7163744127838
94.7616958670609
94.821911193009
94.7883654748311
94.8313641078459
94.8370639506727
94.7858695942299
94.8189931497427
94.8937969073892
94.8315463465346
94.7459782285448
94.7851096886762
94.7840693650561
94.7946700580144
94.7991831845444
94.8057037888452
94.8056367078641
94.7014073902414
94.7254565754377
94.8733563817791
94.9445855186126
94.9467102843919
94.980563361936
95.0182951864966
95.0204121436986
95.0636004578787
95.2306924694388
95.1899698592187
95.1296781846039
95.1463418725236
95.1896380453977
95.2881078505866
95.3051673269785
95.3736870997955
95.5385119471055
95.7135108853864
95.551868459642
95.4115179681883
95.5011208709703
95.5007842008214
95.6549890287133
95.7776767477835
95.7117086939924
95.5726478905939
95.6301559334726
95.7241556754243
95.8389632908061
95.8699849688315
95.7390735400698
95.6886326140673
95.8641046723324
96.0048581247079
96.1257882853368
96.0242856005316
95.970535292005
95.9366018623018
95.8962340752043
96.013024518742
96.1175721108724
96.1742374759257
96.0950406500806
96.1081421893772
96.085236156787
96.099910510543
96.2025405335221
96.3805720878653
96.6518534802476
96.4869539407223
96.3744336164023
96.4467702179333
96.1789030306953
96.1048813496002
96.347584665959
96.5980355586348
96.6951405531823
96.6841354035982
96.5219277292067
96.4719782414731
96.496027903905
96.5186637606577
96.8146640064268
96.8026604648168
96.494609534855
96.4644434367808
96.9874708474218
97.4053643357645
97.4730845675855
97.5908415243194
97.1500255538823
96.8182834650837
96.7756953841543
96.5961317157793
96.7365057165673
96.7674035352094
96.5173666530661
96.2235937691325
96.2403749788175
96.2888918925834
96.3226474228126
96.3511130551947
96.1846938811476
96.0177412590155
96.0155352157067
96.0453190314511
95.8142087121168
95.5815992599973
95.4541063754866
95.6352796594741
95.7818609984497
95.4775552741718
95.276959406502
95.340290976208
95.3693826621225
95.4058623463399
95.3890535964615
95.4008349026395
95.5261112022978
95.538647144238
95.4924719024549
95.5437348796253
95.6971557910824
95.614076948519
95.4387747876008
95.3877183092668
95.6053618974169
95.7224727854314
95.5647732975313
95.3852304511304
95.5252624714814
95.7223635629416
95.7540909176202
95.6915181479704
95.5844374381546
95.5569146722918
95.5975976273224
95.6454829380009
95.6298020519167
95.657393891547
95.7583104820639
95.8035203122054
95.8998699855611
95.9755664132508
96.0859097807056
96.0276480141667
95.8539772301709
96.0536812905528
96.3911026424016
96.4083491886066
96.3531326142439
96.4001849256214
96.4262895377631
96.414324805546
96.6673195395836
96.9520798984488
96.9733506207532
96.5788589089154
96.3581055264109
96.8604985905376
97.0913363205979
96.6696206146546
96.6502835491347
96.6219830946391
96.5901103572125
96.7325620244284
96.6967811989064
96.6301039033356
96.669691334412
96.970647326854
96.889646485719
96.4830398734066
96.4388289019624
96.2798736528879
96.3354200927452
96.4715414410609
96.5606107916607
96.5628227201725
96.4524420726061
96.4630809392033
96.4588205411162
96.5616490900606
96.7047072076362
96.7484318774429
96.6746249275883
96.634181930072
97.146884360243
97.394796685574
96.9414268002903
96.8212862784771
97.049284861042
96.9782143047827
96.7343362134305
96.6612084914129
96.5613776021519
96.4464903208567
96.344565951404
96.3000037792317
96.3406929731519
96.3627538467961
96.2417454215257
96.1043684053454
96.0575968557396
95.9724153480045
95.9993111683955
96.2373950147601
96.2886638817447
95.9927975869252
95.8499915247073
95.9290490561654
95.9117611219866
95.9013483006087
95.9341237347483
95.8093937266596
95.7226242907852
95.7090779925338
95.6164980041793
95.5010588295191
95.5898111238148
95.5370811952723
95.4592731665195
95.6307895675662
95.8334715139455
95.8729204698799
95.6753656626614
95.5140455975145
95.5910055905633
95.5407412433523
95.4302923376687
95.4936717680134
95.5838764130198
95.5277791372704
95.5340545337225
95.5835168120459
95.5870426466945
95.5064521349396
95.4386338874531
95.4383063991103
95.4148867458391
95.3458542136154
95.3068599661245
95.2828997076338
95.3208457180182
95.301117728294
95.295694451201
95.3491036815284
95.3837777375325
95.3765998481569
95.3012913989816
95.3522514584249
95.3989837890196
95.3061889371134
95.3224360066894
95.2953738056176
95.2383384006353
95.1908301089017
95.2143073242809
95.3209070166467
95.3342138534296
95.2814071721486
95.2616579557492
95.3001453256162
95.3050742257707
95.179624676018
95.1801185725246
95.2916387052292
95.2810839531683
95.30932859398
95.3053029033733
95.3008124697952
95.2999351892226
95.3289475051441
95.3375521890471
95.2582379859696
95.1780202697535
95.1804883792126
95.1967532204769
95.2001405878416
95.1575075761773
95.1123439601923
95.1720952719518
95.2249070265961
95.2051012554996
95.1030555398269
95.0491378675196
95.1718868746222
95.2153701859069
95.1796870655678
95.180706679764
95.1802188262931
95.1496875354489
95.1519927340596
95.1384744173481
95.068442222942
94.9673163509362
95.026647168156
95.2061195527333
95.2297287515795
95.2401673622894
95.1198258649782
95.0265490886722
95.0948642635417
95.0990357793184
95.0669010160449
95.1171998725657
95.0218328737791
94.929856409538
95.0005340226073
95.1119983563695
95.0997995831487
95.0775286269129
95.0363505395098
94.9516754881818
95.0158737707697
94.9373852463537
94.7332463286967
95.0399898884985
95.1496707527208
95.0988045952928
95.0395473081751
94.9479102194846
94.843523944473
94.7660808720322
94.5625333453504
94.4985604469964
94.770713284633
94.9186829315922
94.8629026869056
94.7555271037727
94.6533419251209
94.517526971745
94.4769674738685
94.3731825313557
94.0637626739319
94.2026678092414
94.315089600028
94.3490114664391
94.3572915038425
94.1436960718943
93.8994696948833
93.7140663365085
93.4244925967822
93.266626681832
93.5770983760498
93.5445975393673
93.324964191732
93.0357204758941
92.8360008321506
92.7732657614104
92.5635235394198
92.3993705456679
92.3991989014194
92.2600010197981
91.9725417568124
91.8351217067651
91.7225686882324
91.4279814623108
91.0339298591038
90.5233800276721
90.424832518215
90.5934103578428
90.1724626408535
89.6620193490472
89.3753026046529
89.0495581866186
88.5363152532027
88.0427095338155
87.5358772369473
87.2908452073762
87.8031258698942
88.1590290645583
88.2024267603
88.2290504225015
88.3700997213569
88.423031755187
88.545647525579
88.7316128814569
88.6161041614914
88.4322712058793
88.6601429944972
88.8250255710597
88.8206928820354
88.9153731240012
89.1272595062408
89.4115601539949
89.7138745370665
90.0274446790203
90.319121879757
90.5610102329126
90.7611164595854
90.9657047382943
91.1964569574481
91.3755475461665
91.4898120161199
91.6146192432245
91.7499352122046
91.8583939875118
91.9356126842561
91.976924780333
91.893753727778
91.92502037527
92.3172600892464
92.3899896543341
92.2323756348811
92.3565453331727
92.53520214415
92.4870882380226
92.4196233534937
92.1222095719044
91.7572549619936
92.5083314012881
92.8980939066657
92.8281136726467
92.744842286439
92.6290480813524
92.6432062876332
92.5561040673354
92.4456218241847
92.3912508397659
92.394548986714
92.8485201815993
93.1084283346631
92.8786207507153
92.7661100488231
92.9528373817276
92.9194374577302
92.7925015168103
92.7829691587019
92.7925574077616
92.6759456619763
92.9327549702979
93.1001137365259
93.0708415415025
93.1023277067349
93.0451057542843
92.9352284381195
92.7292174549039
92.608746244375
93.1948594776006
93.4554834619639
93.2584951506188
93.0299991453305
92.928821791651
93.0851185481287
93.22450672309
93.0777383297526
92.9264457793943
93.0354053887154
93.18678796932
93.2339276663648
93.1479892450077
93.0856915562943
93.0600406245701
92.9666037191742
92.888630311618
92.8620305619539
93.0641828526451
93.2709588576837
93.1529999161436
92.9388782559034
92.8964666796628
93.0108645906605
92.9058617985661
92.6277123157432
92.5791469124612
92.996912242739
93.0342857044278
92.8927730423878
92.7326588838314
92.687111348039
92.7371216384285
92.7034558125435
92.6397041463994
92.5666724631006
92.3971078695053
92.4209536024073
92.6895415114528
92.6653964167982
92.5405296886972
92.5514926558548
92.6048991028088
92.5375886476066
92.5063597319809
92.4440223625251
92.3495478743664
92.5668948052649
92.7580863946437
92.7461076223876
92.6743872115855
92.6711627789389
92.7136553018677
92.7194811637907
92.7594998639284
92.8800634746019
92.8879313842812
92.8739031579172
92.9298879496984
92.9821973031083
93.1240342900701
93.2002135533827
93.1482898028724
93.0800726654033
93.1889234548108
93.334260274305
93.343514130736
93.3336771869893
93.3665848717883
93.3894618466398
93.3858910490906
93.4862880135874
93.5767994219938
93.5791646829156
93.601583673171
93.6098273357401
93.5799372997472
93.6692926708038
93.7834580401068
93.7990764437003
93.7738391671454
93.7816744258443
93.816185818538
93.8317550665906
93.8409942597332
93.860135272215
93.8809934551685
93.8763057664886
93.8516415628014
93.8765710058741
93.93492590772
93.9714733062524
93.9865503069945
93.9731080800235
93.9459144276329
93.9494635066983
93.9757089365389
93.9984794156903
93.994843219587
93.9792553768894
93.9855918349454
94.0403966250534
94.0786697276191
94.0818515021828
94.0889129618715
94.0887993669338
94.1048426975739
94.1140959104845
94.1100522965051
94.1100240295786
94.1183925346005
94.1230084557797
94.0932462497069
94.0852311652606
94.0772986281423
94.07390664775
94.0634539845309
94.0733912494543
94.0834706833703
94.0625172190536
94.0415032064877
94.010874283745
93.9805936146558
93.9572219562207
93.9227163017939
93.8902939807408
93.8610829326649
93.8411034131686
93.8376648262181
93.7924258894398
93.7331048725411
93.7086465295362
93.6636133078601
93.6213451520369
93.5743566672208
93.4979663681216
93.4078802764425
93.3119341641719
93.2325808541375
93.1573207564411
93.0635004497187
92.948788651435
92.7993449403925
92.6356448660144
92.4886353198968
92.3302005134747
92.1360824562901
91.9085312893987
91.6984026784702
91.5077335836506
91.2754193714979
91.0121137366843
90.7613078134252
90.4892851115946
90.1885908935023
89.8846380196688
89.5531937440455
89.2055226312324
88.8396141031128
88.4670360761743
88.0796814862869
87.686373674646
87.2746173656236
86.8370696061007
86.4051625116109
85.9990945152088
85.5753494672199
85.1525330438585
84.74220628541
84.3106827081852
83.8764261103071
83.4466758840258
83.0318807432155
82.625153830563
82.1915741706761
81.7658039198638
81.3785613191258
80.9789297138499
80.5902240564593
80.2260421975427
79.8724772859105
79.5217007881697
79.1825353064304
78.8377886556556
78.5030371087637
78.2075059608229
77.9130837469038
77.5970424672414
77.3257614551948
77.0418985695461
76.734992743876
76.4533801221165
76.1776785500526
75.8814305567486
75.5706540256719
75.2777869202167
75.0255709646787
74.8195663737261
74.6642836715437
74.5972284675175
74.5946358070518
74.6157229031978
74.6487928600406
74.6453605977468
74.6285662368507
74.6249915319453
74.6068717883995
74.6168702232986
74.6229206345849
74.6162574454913
74.6216964624305
74.637487054518
74.6709545958304
74.7195936929242
74.7885054606774
74.8696067879155
74.98111521289
75.1548775139108
75.3904219552708
75.6625708369858
76.0202804061525
76.4342483885433
76.8317289290835
77.2376900355436
77.6683144387948
78.1112509617194
78.5309929802798
78.932813604124
79.3739213362415
79.8293049720448
80.3162515337242
80.8048504223716
81.2807605772571
81.7796400989886
82.2589051714393
82.753972497523
83.2302643329029
83.7077450417074
84.1795610591676
84.605588326018
85.0031207543267
85.3807993913598
85.7651168462713
86.1097223222699
86.4284850765503
86.7084658900972
86.9260163246743
87.115927705199
87.3157418046703
87.5020077716476
87.6437132984876
87.7710043616965
87.8966279249584
88.0219699992166
88.1419018221266
88.2344618633318
88.3081555998723
88.4093774953454
88.5043555978295
88.5805801287845
88.6226071201088
88.6457039527503
88.6998127419824
88.7401983765557
88.7873401718977
88.8212401298948
88.8571492104881
88.9229278050408
88.9799983500429
89.0045957795113
89.0331296299371
89.0454765524704
88.9326056254483
88.7950093866288
88.9207485327771
89.282402477862
89.6166892785212
89.8092182527518
89.9769407608263
90.1425260711107
90.2532967285893
90.3687513208432
90.4914107975192
90.5915826405913
90.6957261612784
90.767979117862
90.8493988366558
90.9543651520508
91.0445201027827
91.1337429705184
91.2017465853017
91.2385941594342
91.2969232316154
91.3736863913456
91.4384526343271
91.5091278176971
91.5256119720514
91.5480859465765
91.6328067170171
91.7030888293205
91.7434289960723
91.7804718759053
91.8227411923079
91.8550681458174
91.9056718817038
91.9332719244991
91.9635487316377
91.9947946786153
92.0282050792266
92.0492013194611
92.0827321269617
92.1182310285762
92.1613076138895
92.2207658874152
92.234450098052
92.2431022755563
92.2174376305459
92.2246078158126
92.2956718433206
92.3587877243771
92.3877723460553
92.3861260680047
92.3818252535913
92.4010654708751
92.4071667729573
92.4155238782727
92.4438035248987
92.4586618101383
92.4777366200986
92.4838589468478
92.4703564754802
92.4912724745429
92.5430899727632
92.5330724127943
92.4911589618237
92.4477520297382
92.4435377553134
92.4518855168808
92.4819434854177
92.4821409506603
92.4459734027755
92.3830852460022
92.3802089998934
92.3524775186711
92.3488330228771
92.3623273065695
92.3435664828341
92.3309928649129
92.3465436058176
92.3287478804
92.2961292068644
92.30670473018
92.2927467491948
92.2856201214898
92.3143287969589
92.3623339213563
92.3978935298721
92.3922481553208
92.3626439152146
92.3792124834329
92.3909375745984
92.3561955706755
92.3460224830321
92.3516685917934
92.3169031142457
92.284184509062
92.279632776934
92.284605723574
92.2840657662748
92.1996562027256
92.1778551422103
92.1741584059235
92.1281048994177
92.0843222431074
92.057520441858
92.0344823235224
92.0536827489174
92.0308534098759
91.9728395975666
91.9392441604583
91.9209939488212
91.9005030707204
91.8559292339539
91.8007780845148
91.7719272661838
91.7319327733649
91.6805065873964
91.649940346448
91.5993694190907
91.5471699281077
91.5257472538023
91.4809653794681
91.4307182335112
91.3656407600154
91.3413506265811
91.3468555966776
91.2733031982394
91.2007495713108
91.1288660676461
91.0734120380644
91.0223748684849
90.9517181247349
90.8692331035243
90.8241653624188
90.8256530694701
90.7893601036081
90.7077449077986
90.6149053535339
90.5254313867311
90.4521461637548
90.4055521167044
90.345693931538
90.221997265389
90.1262418182742
90.0622567442851
89.9750900791253
89.8726057488936
89.8007833169306
89.7350364402638
89.6820197709666
89.6079237426348
89.4922560294385
89.3852118191436
89.2978104191428
89.2146863316095
89.084237517932
88.9775107821869
88.8672718006866
88.7824860740197
88.7014439558369
88.5624575415715
88.4559281495617
88.4049938593675
88.2956276184537
88.1388759970292
88.0548268202251
87.9632360236103
87.8181413850777
87.750223826519
87.674377222172
87.5060305967792
87.3542104673686
87.2126260313248
87.0656458169928
86.8781668502563
86.6252871921162
86.3904951874202
86.1960615612817
85.9311821313583
85.5578625842026
85.3742087881343
85.0829527690282
84.7345597053571
84.3826896125253
84.0323711002435
83.7160733096023
83.4372048339512
83.2554014669363
83.1625343530585
82.9834009165112
