1798
3999.43349933624
650.420452594757
1
128
4
94.4691970830174
94.6087029534509
94.5472518406959
94.4851780738625
94.5919497718727
94.5790224254239
94.493618670178
94.4773871407575
94.5312328221722
94.4891148952082
94.4518452415632
94.4471675229208
94.4872589045226
94.4898681787278
94.4868276115814
94.4651148344918
94.5041721866269
94.5058520081723
94.5496607454908
94.5241779169311
94.4661187452647
94.4484333174742
94.5078586684273
94.5391583295648
94.5741055891339
94.5655464370418
94.5472020772516
94.518550237497
94.4570819250261
94.3427975783605
94.3344086244814
94.4230463056179
94.5433954729678
94.5772964988818
94.6468883690396
94.5790538048778
94.4654522802824
94.4311750293079
94.4866036080898
94.5099724452509
94.5189570128179
94.558583261111
94.5304097339673
94.4557223841133
94.5089644172878
94.4397095988613
94.3738797725785
94.4332178521766
94.5352553407141
94.4780125879531
94.5214859309846
94.5827618866907
94.5038277848229
94.4451243273882
94.4665749170453
94.49750907318
94.5399585283238
94.5633894121023
94.5569656376527
94.5187452386962
94.5641374151569
94.5301758458882
94.5620394512786
94.5942125274703
94.5163409278261
94.3944406312556
94.4760621301633
94.5501418505536
94.5570196281459
94.61395154504
94.6309281031313
94.566189009957
94.4422141525101
94.447483406263
94.4646812281237
94.4928059523516
94.5776163059036
94.6433738786856
94.6351491628107
94.4142527845379
94.4153068859871
94.5166599757086
94.5903084236869
94.6889309995865
94.7790207876475
94.7826194153374
94.6982430093258
94.4976080406489
94.4221427664755
94.4824617372549
94.5331711440524
94.4895940700041
94.6249094233501
94.6961304354841
94.746500275278
94.7549145919325
94.6453504904653
94.5898543133916
94.5691147823415
94.4867222250174
94.5712649123238
94.6370376983469
94.746368194683
94.761608003998
94.7173353071426
94.7609895623162
94.7695881268142
94.712576960337
94.7340122629812
94.6580846070972
94.6090359044768
94.6607188549085
94.8056918788271
94.8185382839197
94.7745410611775
94.6703455061748
94.6724606384718
94.8042496883719
94.7964910855406
94.6777596352729
94.6555912244458
94.7007194605661
94.6981879763697
94.6199148786613
94.6441463671674
94.6683187411657
94.6647751457239
94.6632835431945
94.6668034408864
94.6877652578619
94.825863361941
94.8777825380296
94.8696464979811
94.7101389169809
94.5519279993521
94.4486589757649
94.6358268265944
94.6047007792694
94.5233692906858
94.6758414705448
94.8851412346827
94.8656482209137
94.7392799004957
94.4935829809551
94.5264200072918
94.7485560823728
94.9619130282297
94.9519739405794
94.7749166535736
94.6366863595048
94.7323929230238
94.7411441787915
94.8533428021353
95.0548180325216
94.9786086890384
94.7572077328503
94.7124346886909
94.8079888521734
94.9246129949335
94.9483813354666
94.9246966754953
94.961557806715
94.9909090903271
94.8625977639837
94.7575765104973
94.7511440331254
94.708693040934
94.6107480851916
94.4901796251167
94.5858442923984
95.0593191629825
95.2364821541272
95.059263548645
94.5557174350256
94.6990954420837
95.1025713463387
95.0300022905721
94.4141940437423
94.3760074923391
94.6184150068061
94.7150874618838
94.9041909115899
95.1535624204707
95.212980991175
95.0533287957534
94.8392100246248
94.8060464872547
94.8973493248633
94.6490056544864
94.2672929222521
94.0297631839326
93.9814523534557
94.2921728124165
94.4704380119176
94.5396292036583
94.4863880242917
94.254256176039
94.1765228570837
94.1387697760718
94.2277725318409
94.4307183807608
94.5015123955446
94.4715602221574
94.6797976607056
94.3761178177607
93.8277571993608
93.8176657877942
93.9753775689679
94.1673300224689
94.1156068225347
93.6611582296293
93.2782925746894
93.4042327924748
93.6129538730114
93.5234496838531
93.2474813560954
93.3164439956934
93.5018348987914
93.5042166489555
93.5054423968049
93.7737401360583
93.6370056222413
93.2848910148319
93.1379565213952
93.2455727860646
93.2407713215164
93.1158213609264
93.0167787542256
92.9431002734836
92.8838386135284
92.9430882571911
92.6652799502248
92.447719642862
92.4789496658958
92.4557627245196
92.3774012563573
92.3392408841675
92.4575517918814
92.5413680717452
92.5031481985517
92.5280644874793
92.5585359920336
92.389833591981
92.0328825585883
91.9082705967124
91.924785137934
91.9069300426703
91.8300184204874
91.9169796610316
91.8761700682961
91.7140743876908
91.7691024870915
91.8578611618729
91.757252606676
91.5919185697129
91.4376479721178
91.4582988378274
91.5162843496669
91.4994026965781
91.383278072714
91.3611543672236
91.2401591842767
91.1571718255767
91.168667183138
91.1418136707427
90.989075863334
90.9596246953829
91.0029213591268
90.9906884902313
90.998915766269
90.9797517666702
90.7648557942794
90.6686207138381
90.5998824316409
90.5771237866131
90.5827978678489
90.5965532696941
90.6024943964298
90.4881728805219
90.3284160871575
90.2942670851107
90.1771739183165
90.063164528571
90.1003790727187
90.1141402331104
90.0873384519981
90.0759277077026
89.9495088509876
89.8743650129035
89.7559243193075
89.6110864117547
89.5312155041298
89.5826564435987
89.5874739440091
89.5301654025952
89.386374841703
89.2721549625849
89.2600933215375
89.2583364937483
89.1609188144187
89.1693559343229
89.0576027675748
88.8932844831293
88.7276727483761
88.6606380570774
88.6419612660482
88.6918185722357
88.5853583251575
88.5032090487377
88.4846755795177
88.448700984883
88.3443944340781
88.2832044211398
88.2049476382696
88.2146239988379
88.0920535209678
87.9684754574437
87.886730877694
87.8073312191716
87.7260843217793
87.74904664511
87.6930541674165
87.6518286765326
87.6371393894439
87.6410627055685
87.5335463316777
87.5101464145288
87.5304134808818
87.480478869289
87.433854245117
87.4738887037364
87.3842392181643
87.3138747825715
87.3121473835635
87.4016954061454
87.3480487246812
87.3333471483347
87.2970059321736
87.3159686873144
87.4168644042451
87.4242376111316
87.4601748426235
87.4803734423463
87.3518093645835
87.4088125543025
87.4876921744389
87.5815561553178
87.5290746056116
87.496988782269
87.5255231971342
87.4828045194467
87.4724470116855
87.6052582594179
87.6242399868004
87.5300765334683
87.432525255684
87.6402126475885
87.8437341979723
87.9768625340188
87.948132350713
87.9050731983688
87.9073827927007
87.8841937489646
87.8789645004862
87.9801971629779
88.0661162035581
88.0744251366138
88.1000135695781
88.1525999145342
88.2009499988081
88.3971097772924
88.4358735979367
88.3703287328404
88.3488664130111
88.3393942742118
88.3967178136944
88.4575089006145
88.4239659805561
88.4585253172205
88.4499729678583
88.4395013287672
88.5372425928818
88.7027835814934
88.6760029829357
88.7148636068675
88.7081455217167
88.7156633860101
88.7781979470841
88.8605908001861
88.9193758506442
88.8830333611074
88.8601823485876
88.9466205606103
88.9530346815088
88.9716913244624
88.9920451214709
89.0151999071195
89.0858070355291
89.0878631170161
88.9954382963447
88.9812296873493
88.9687933925666
89.0373103427635
89.0601789771894
88.9751763830922
88.9537785427877
89.0429656197294
88.9608220224824
88.9530061070292
89.0022865043049
88.9127717918275
88.9401229240397
89.1876506368412
89.2554933379151
89.2388886508926
89.1662222504402
89.1451056539824
89.1528517927852
89.2722430501205
89.4111890271747
89.4433779909728
89.5134150429298
89.5061286033531
89.528370606101
89.5935049456138
89.6890623121259
89.7144807743593
89.6984537850977
89.7077905042447
89.7288099997419
89.9235801961587
89.9869004700301
89.9845750927435
90.0137072537354
90.1292441509594
90.2371484652702
90.201642507153
90.1434334441896
90.2228370446573
90.2600816387653
90.3703473504437
90.4135146229338
90.4239642538231
90.5203996172045
90.5261073176245
90.4982565168427
90.5094466832402
90.559264690324
90.6637711135335
90.7386188862206
90.8721680208904
90.9841592757141
90.9806843193596
90.878311924012
90.8717965543997
90.9330659984157
90.9374243166848
91.0313481679064
91.1922472864226
91.2132951334287
91.1567934088749
91.0786611590514
91.0923158600518
91.2480456761281
91.39913225164
91.4028209819339
91.4329682399254
91.4318635663315
91.5147036585412
91.5933913584923
91.6013399048151
91.6213241298358
91.5949010320903
91.5238016668438
91.5805061716414
91.6511544780992
91.6895964249619
91.7213176522885
91.7684568582198
91.8240454791151
91.781896652558
91.8130153950076
91.9091073773089
91.9136133093355
91.9736438196851
92.0721844777055
92.0758269590803
92.0459716903094
92.0975577948976
92.1385278012196
92.1746032801307
92.1644524067054
92.1909407530396
92.2599167879752
92.3261665663035
92.3408114218502
92.3134192958264
92.3046862041724
92.3217002642417
92.3563777228109
92.3953964122217
92.3818510350202
92.4815039098181
92.5247923600997
92.5012064490886
92.5331311741988
92.6539045959727
92.6527933519005
92.6378843428248
92.5750552054765
92.5455500879082
92.643051028573
92.7016673444861
92.7234154670675
92.7282759797182
92.7310207746979
92.782096668183
92.8291226554094
92.84009352335
92.8378828558601
92.8028968862915
92.8059422487447
92.9340007461715
92.9824048771517
92.9409629859755
92.9092833837761
92.9105978516656
92.9835627335188
93.0987373430395
93.1353968167975
93.1226610112761
93.1029202715328
93.0919885855186
93.0939884788819
93.0760895657391
93.0706315452908
93.1390380175629
93.1800765352417
93.1896578895235
93.1963132281251
93.1835513981352
93.2345157800138
93.2763745157118
93.2474867653713
93.2851785880581
93.2612970122983
93.255800062642
93.3032337297445
93.3219927345202
93.3308297416275
93.3841915605578
93.4019435718749
93.3816690818194
93.3457092104667
93.3614694754569
93.4339617607762
93.4548239328931
93.3827330122973
93.4333904667179
93.5024296488213
93.4507778946242
93.4251603460087
93.4914151031068
93.5075991331535
93.4611885754058
93.4664822695745
93.5198627173704
93.5594492686472
93.5586356767622
93.5289544324539
93.5266171442892
93.5495861832518
93.5760003526999
93.5793011387059
93.6069562580271
93.5968000925959
93.6524752612155
93.7115790791515
93.6828503587059
93.6442929308462
93.6415782439757
93.6455993706142
93.6431341894931
93.6408586421139
93.7042113324892
93.7471206313249
93.7391305195551
93.7201525486192
93.6896771863596
93.7019407073055
93.7053566400227
93.6691601970999
93.6893111179644
93.7194982675969
93.7612100484372
93.7890493631778
93.7380377190238
93.7005844274254
93.7319733979404
93.7766167675418
93.8056485335845
93.7954760625472
93.8097792742385
93.8396941667045
93.8419915482568
93.8441267185567
93.8857776360479
93.855214707135
93.8217866339603
93.8671135039389
93.8979277784313
93.8855793300524
93.8768340911744
93.9073601134641
93.9743539014671
93.9539902183792
93.9605292932783
93.9882868862259
93.9329768036596
93.9175209075157
93.9356323553366
93.9050296747048
93.8955493566721
93.9477653628834
93.9616312443071
93.9453076335008
93.925854131991
93.9463615879706
93.9705506754134
93.9725860416909
93.9790351537412
93.9591800028781
93.9881593296506
94.0426273442041
94.0377962441206
93.9960138318978
93.9904170651021
94.0392420488743
94.06923825297
94.0289239971349
93.9834025543265
93.9735584622763
93.9977308028982
94.0344751087868
94.0964076452553
94.1362838616683
94.0860023730855
94.0194799294604
94.079173353197
94.137690427866
94.0778071188174
94.0515463945486
94.0748286936131
94.1268499238735
94.1278878827728
94.0672344131663
94.0711037968362
94.1298389585696
94.1216755290575
94.0856782824875
94.0945715230808
94.1085709664565
94.1292114980337
94.175324995033
94.2072334168831
94.1691668242753
94.13283561427
94.1432301862933
94.1629932278971
94.1253837142415
94.0994710150541
94.1370497607583
94.2049187827907
94.2326588520534
94.2205659481131
94.1855940299269
94.1511856715245
94.1821540917633
94.1859838903886
94.1849400212001
94.1984182636007
94.1865092295521
94.1606040902476
94.2159472938603
94.2729220999704
94.2576159563605
94.2230934308638
94.2351260741197
94.2829703364354
94.2610045237327
94.251786122815
94.2861804439679
94.2908930438199
94.274035604835
94.2531485773045
94.278166579169
94.2690452331663
94.2609131853331
94.2526812733067
94.250129323586
94.2851484372032
94.2894621344906
94.2593137994972
94.2986775981877
94.335287670602
94.3031985200298
94.2627320442821
94.2468342975494
94.2349072953224
94.229530333948
94.234213093515
94.2568391877592
94.3010276004756
94.3359503382172
94.3298543640793
94.2851319931896
94.2684691573365
94.2649180234143
94.2518637911797
94.2573789256917
94.2600304071066
94.2786895671503
94.3106592557438
94.3092008413004
94.3133827700848
94.3061136979975
94.2993365158966
94.3133025475556
94.3311319409235
94.33467340661
94.3029153128145
94.320380544817
94.3831204782407
94.3929056357854
94.3458820125752
94.3628938140733
94.3695684482534
94.3838268145337
94.3947780893156
94.4167117510891
94.4300715968443
94.4229551690669
94.3969604572466
94.4016575255975
94.4330231791546
94.5100147777086
94.5658066844779
94.5840417755945
94.5717210452525
94.5732973259216
94.5780462191011
94.5926535415704
94.6105294822705
94.6360302398179
94.6336893713974
94.5724784152081
94.5446642731055
94.5769832290658
94.6417645379653
94.6190606802278
94.5792890404791
94.5671913541556
94.6157072090145
94.6357521403744
94.6214843437074
94.6303153784379
94.6270765131206
94.6372189169853
94.7267324010036
94.7712844731194
94.7239141670802
94.6192638965995
94.5861591877677
94.6890806528535
94.7360863398951
94.7901745446336
94.8432215606665
94.7773134603403
94.7180802843925
94.7444399881027
94.747739513426
94.7546211713683
94.7157651075502
94.6739818140332
94.628421264306
94.6559904675425
94.7038903494647
94.6942321882591
94.7435927089528
94.7373526001915
94.7805494211677
94.7777792776078
94.7155824351131
94.7547022169558
94.8231282122025
94.8064856266339
94.7249596427398
94.6414238933878
94.709654812468
94.8640721427731
94.7930129688019
94.6818953458358
94.6292249374615
94.7091788522374
94.7772035277426
94.7393664189258
94.684937310453
94.6971532409921
94.7057265176478
94.7214739109969
94.6876806134216
94.7172876870445
94.7729282652705
94.7308853641869
94.7084856626898
94.7498120640822
94.7333611056157
94.6202431330992
94.6420231728096
94.7698210236637
94.7594374240789
94.7066877220009
94.7512131516471
94.7729670652935
94.6896687295035
94.6535180018426
94.6903187077153
94.6659483812644
94.6487160027836
94.7507937187536
94.8083407077776
94.7542020288277
94.7051404809449
94.6657240992808
94.6340723926445
94.716244094438
94.7453579858298
94.6754566282216
94.6922910473254
94.757310884296
94.7469494046073
94.737149162072
94.6986611141362
94.6743357921978
94.6733744368683
94.6927280955669
94.6689160216632
94.6063789121846
94.5578029839144
94.6961864653666
94.7906417620019
94.7042761679172
94.6096635037251
94.6108576552291
94.6450397648444
94.6127697022488
94.6392892841598
94.7662100622592
94.7699451355652
94.6701288587051
94.5867923220282
94.585402357289
94.5755136222499
94.5617091020643
94.5467398112899
94.5250797619577
94.552829275318
94.6165000691403
94.6162211644996
94.5938650481372
94.6102993352023
94.6356757812984
94.5837932187064
94.6337499375422
94.720705639444
94.7191487066691
94.6709937715882
94.6218190100544
94.646613441841
94.6081571022164
94.5559108828917
94.561710710676
94.5134973925078
94.4482821945531
94.4237874460159
94.4438843655756
94.5168650169542
94.5297760053676
94.4910277223697
94.4013995626365
94.3668732097002
94.3896854928806
94.4054148932599
94.4120509029475
94.3386569174932
94.3452486763448
94.3541857534547
94.4037480404133
94.385339061753
94.2854890722693
94.2778286197806
94.3368958220293
94.3315314095653
94.2995805239701
94.3426666584634
94.3955475338979
94.3145288825726
94.2838014838098
94.3328408593767
94.2893550334524
94.298989931316
94.39199965869
94.4508022308591
94.4308699452447
94.4346099637399
94.4176701404572
94.4248221874961
94.4751125997306
94.45240244094
94.4404705263683
94.4513593628448
94.5143534736231
94.6387543070467
94.7726423611448
94.7687409082568
94.7355563801784
94.8404904585277
94.794075151315
94.7198156598197
94.8780031479004
94.9027457592148
94.861946952806
94.8975293525329
94.9260296346667
94.9551114137189
94.9567428439679
94.9148022455918
95.0231853759514
95.0835335066775
95.2205125610517
95.3648919277324
95.2160374653094
95.1368776611036
95.1278737214582
95.2577200397938
95.5096174965764
95.4945475955204
95.2231124669452
95.255246231175
95.5786489469899
95.6879398201603
95.5513581153228
95.4019268348093
95.4857660158601
95.6590450284194
95.7688952494937
95.6902482042184
95.5924732732617
95.6692442741508
95.6511202790649
95.5996079987361
95.7956133207778
95.8559995633877
95.8768211871027
95.9195320875626
95.7693497058091
95.8312388485403
96.056692631341
95.9582187664474
96.0885064447693
96.3493888641926
96.3371180023586
96.2687927360098
96.5124928545092
96.6299633510961
96.0639723659465
95.9446003584037
96.2871383107065
96.304721123287
96.1659522630759
96.2446194564688
96.8268388120202
97.0589625970346
96.9642749451209
96.9023495833655
96.8949078670084
97.007190568347
96.9170333270373
97.0461600019611
97.0553779387549
96.8747410652327
96.9150033339847
96.7544536185266
96.5129816587545
96.2018944327118
96.1718636661258
96.2086188578915
96.0624708307285
96.1028862189573
96.0812078076773
95.8613974951739
95.8285013293052
95.7231907683508
95.6297251978906
95.5261031530245
95.3977254281716
95.3716047039118
95.4075452813887
95.2690923977251
95.0836825703626
95.0394289787107
95.0925838965684
95.1924581989905
95.2455228037807
95.1060438073417
95.0297756751276
95.1925277901723
95.3694382245324
95.3980709026075
95.3155218470531
95.2479127230473
95.2562664177706
95.2374401084654
95.2326716204583
95.3203584651346
95.4647570673893
95.3932259384946
95.2690979141989
95.3505320149525
95.4755146605371
95.4841803859606
95.2075712654842
95.0778959862728
95.2309914108264
95.3867759595749
95.563431579851
95.6413951904356
95.4295793187293
95.3212568108393
95.3826857290952
95.467698994661
95.7142888821833
95.8828094129326
95.889271788614
95.8633571273242
95.8210197380444
95.8176233388783
96.1140843789525
96.2989234874947
96.1822057855483
96.4323682511222
96.6763374334129
96.6047584986892
96.5574954695359
96.7889395863565
97.1044284910997
97.0274306346119
96.8603419817472
96.9152185705579
97.2640561139752
97.3456365199566
97.1760429146136
96.838795323756
96.6327078629874
96.7859514560945
96.8738533900214
97.0018639410521
97.0404942148573
96.8119405152018
96.5871586216267
96.5280311300862
96.6928914055926
96.5252948322119
96.3279756627608
96.3491253533962
96.3532417547054
96.4505436167365
96.5734007397202
96.5758641779812
96.5075763060248
96.5968744881275
96.751345318881
96.4796417199165
96.1528822232663
96.5964248503425
97.0780403206825
97.246464444506
97.3626803961631
97.2220328539475
97.0012536812569
96.6657020355483
96.4460323661337
96.2625085704746
96.2933140251218
96.6148004135383
96.5520504017259
96.3424317250529
96.2062235954649
96.1043540222829
95.9942576701448
95.7355600907038
95.7363087359084
95.912592328614
95.9507991865039
95.8073227751312
95.6843348540093
95.6215062331716
95.6538585883676
95.7219479784388
95.6468931629257
95.5225209036256
95.5404974487714
95.6311490514765
95.6148264008579
95.534892908832
95.4702541316439
95.4986633481336
95.4366429078691
95.2940577222187
95.342450326618
95.3241227785584
95.1981407079686
95.1986423709077
95.3019901408098
95.3027056432379
95.2287651639669
95.2423811787473
95.2544354231243
95.1883339457364
95.1382137216473
95.1205015921329
95.1016529898241
95.0997021209286
95.1131328037067
95.0794362170495
95.039920179999
95.0340075768947
94.9443691960642
94.8756877815858
94.9627701738384
94.9906091593894
94.933743976957
94.9224329974532
94.9330856197646
94.9728518645616
95.0141708868807
94.9805377438687
94.9118801272924
94.8195711119007
94.8022716266471
94.8252576826844
94.8531555391005
94.8980819941654
94.9196377435583
94.9174833470108
94.8458928220132
94.7661638042255
94.7562243161607
94.8170033745076
94.8180849458679
94.7570407954571
94.7808126103446
94.8421351792309
94.8053820996269
94.7483033248551
94.7300091652537
94.7136200444416
94.6969043545638
94.7478175931051
94.7652421277974
94.7842580545848
94.7984456450701
94.7503063093011
94.6848505766369
94.6575847374925
94.6483585890365
94.65114113317
94.689308851792
94.6859225039827
94.6222047597879
94.6267008049652
94.6740579140293
94.6879346573808
94.6532630459263
94.5894666142837
94.6019899330228
94.6851287429873
94.6918673893536
94.6776365189873
94.6320427775111
94.5975812035523
94.6067283678713
94.6727409204344
94.6674390617486
94.5883695450661
94.4832472456276
94.4786692810144
94.5760759687941
94.6522369871244
94.6906018074842
94.6029753448274
94.5565412969594
94.5412671262032
94.5332174479829
94.558959848135
94.5949805937444
94.5129461476945
94.4404720163077
94.465569760483
94.5294376504137
94.5330325189668
94.4912240861291
94.5356020284803
94.5832656455972
94.5199417314165
94.3703779461134
94.305844467269
94.4544829476765
94.4794778043641
94.4444142288959
94.4028073806598
94.4229392856852
94.4450776316289
94.3895835805286
94.2500270476837
94.1722296453292
94.1968844272196
94.2531847673377
94.2967917389577
94.2290502807772
94.142248662438
94.1351683065112
94.1087091151629
94.0185128944577
93.8510119730193
93.8527302020809
93.780990536757
93.7875689302999
93.8193719406858
93.7314599547929
93.6758560885087
93.5083655514735
93.2448392141744
93.1781920321823
93.2867484659896
93.202122726921
93.0915741552476
92.9334898748639
92.8497022584661
92.7243789297743
92.5547029198218
92.5389264084966
92.4712049373126
92.2166392862116
91.9711602986467
91.8791142513271
91.7786643161203
91.48760008196
91.0698884856432
90.7151466615408
90.7280830281347
90.5083564659425
89.9795038375686
89.6740020765155
89.5371023377023
89.2316304834848
88.8404702207704
88.4475495905696
88.2140920497707
88.4180483961215
88.7104467757498
88.8089181658165
88.8966865059693
88.9901269190639
89.0701211541848
89.2281006886991
89.4847734698871
89.54700761971
89.4997437490631
89.7482342329846
90.0969554740631
90.2197874323249
90.3225845488572
90.5321962129583
90.7794480827934
91.0001944753624
91.1487689092981
91.3297943638109
91.5117896482303
91.6580958069889
91.7767089932357
91.8823950802009
91.9849180444602
92.0984302495718
92.1992701754364
92.2908277379545
92.3470345567017
92.4396935680035
92.4903240857628
92.4181808932917
92.3198365189383
92.5017217182988
92.6510422925769
92.5497027508085
92.5183043310908
92.670271451979
92.7333696496297
92.7417091047887
92.6453435445463
92.3218908427899
92.3799757966995
92.6927421400858
92.7242158311467
92.7378934890941
92.7675983388142
92.7749045062997
92.8244617222608
92.7723245095748
92.7206429658588
92.6202339057293
92.7050981495883
92.9536593134575
92.9693834351281
92.8460652364603
92.9625398273519
93.0818364225607
93.0287960164923
92.9891023217602
92.9609129328021
92.8991236521509
92.8610589736947
92.9826177925807
92.9805382840275
93.0562828307301
93.1744625344923
93.1323839235352
93.0022268112502
92.7947524183257
92.9152460668297
93.2410916786683
93.2591868770353
93.1586871354979
93.112139234081
93.1261699485215
93.1966195277266
93.2075775107942
93.0863667747838
93.0454599575355
93.1448173649279
93.1987257007587
93.1850352288172
93.1601606908924
93.200190859425
93.2031607284467
93.0965259044766
92.9799067136501
92.9487140668382
93.1000005623369
93.1350212805127
93.01908708973
92.9726591172226
93.080822743432
93.1083674045799
92.9106024500724
92.7206402496462
92.8185176617952
92.969128872439
92.9090284879188
92.866539971347
92.8295195937717
92.8473395865712
92.8643529002489
92.8625909141408
92.834541410359
92.7628584535241
92.6617011917849
92.7520090414861
92.8160007647291
92.7385463284526
92.7355559952998
92.7998862041983
92.8111860880275
92.7854116590693
92.7899131024433
92.7175418806168
92.7158588468898
92.863615091012
92.9005216696996
92.903154187437
92.9362106683974
92.9802470098381
92.9702653213165
92.9598282703338
93.0127755077849
93.057972771429
93.038746896064
93.0808852291032
93.1154064896203
93.1515492541041
93.2744340582908
93.2847711131519
93.2175824229973
93.2236920905413
93.3108537523807
93.3437581929625
93.3696275160801
93.3896964110111
93.3863904602415
93.3899400676549
93.4188703629326
93.4919915592984
93.5288536821389
93.5525378475192
93.5591288782854
93.5302643478089
93.5111503534032
93.5586546002024
93.6063367667235
93.6479300363514
93.6816265504668
93.7020685576173
93.718591827123
93.7334051334414
93.7406183266008
93.7546855325554
93.7532540093864
93.7372537887411
93.7108225504157
93.718556952171
93.7376755146536
93.7584747098702
93.7761743587032
93.7848653401903
93.7907471847512
93.7976347962886
93.8055801310848
93.8010789938011
93.7893351873127
93.7973855374441
93.818650821715
93.8497792936757
93.8727108342593
93.8852470982845
93.9052892729676
93.9160751164014
93.9017687254227
93.8868039917802
93.8892308482879
93.8958242501479
93.8866397959606
93.8780517707974
93.883750812981
93.8882979336861
93.8666569995826
93.8515210486369
93.8301743297599
93.8024859363348
93.8054582308327
93.8150365742919
93.7968489721564
93.7604123958371
93.7238641665443
93.702863173128
93.6767856079477
93.6453431760105
93.6031156279385
93.5390563611791
93.4698044866527
93.419885754874
93.3627173398859
93.280781154436
93.2181976938724
93.1574610340146
93.0528308223918
92.9343128284453
92.8366391892229
92.7416512615337
92.6067008299273
92.465842104713
92.3278033200974
92.1741347864397
92.0155216041561
91.8501488070992
91.6600811720568
91.4693752384126
91.2696815068149
91.0511569019325
90.8416965308373
90.6308247813013
90.4017368269897
90.1694247532627
89.926659126108
89.6693871236961
89.4233176128457
89.1757000608272
88.8881731901714
88.5965181757033
88.3041806719625
88.0164112928562
87.7245411258316
87.4050711645731
87.0990041462313
86.8223493208643
86.5161799162083
86.20247909279
85.9179068568626
85.623708223994
85.3144812821377
85.0237203595835
84.7314695996963
84.4333951723373
84.1236944036243
83.8196266119817
83.5268291638311
83.2645971100322
82.9948234184974
82.6847474792267
82.3747719827206
82.1011556898517
81.8156237183063
81.5255671641271
81.2636617858239
81.012001102621
80.7548714940904
80.5151912447928
80.2857759473005
80.060041742083
79.826190327839
79.6171690883325
79.4159295636666
79.2161553381048
79.024060438009
78.8366214329529
78.6685074252709
78.5077153828308
78.3559533753401
78.2818590182485
78.2583560549336
78.2448528128028
78.2169386442022
78.1960613580411
78.1656753349824
78.1129490642702
78.0630660562032
78.0579867743298
78.0955571004268
78.146558835649
78.2077635440528
78.2725226446985
78.3429206988435
78.4285649708751
78.5178740089999
78.6301435025137
78.7515537063229
78.9044468472847
79.0626646516241
79.2416352104862
79.4517289511174
79.6678089027616
79.9093863951357
80.1864986817939
80.4394088051821
80.7364260587616
81.0365446528223
81.326141072588
81.6367671877475
81.9419185493845
82.2721743383993
82.6630039556739
83.0340627258175
83.4054181924617
83.8067516170312
84.1807681131103
84.5179781395506
84.8775116747052
85.2409366440221
85.5861343628698
85.9250824763915
86.258967943368
86.559222606302
86.8352937533286
87.0867564219001
87.3171535409803
87.5423945521252
87.7244149548689
87.8820028841863
88.0596307812348
88.2104980215251
88.3266398847311
88.4017466870557
88.4729782958224
88.5692557113794
88.6581591885713
88.7240911725753
88.8012138077774
88.8775953029409
88.9466398946982
89.0035079482897
89.0491916233879
89.0845494081553
89.1395391209778
89.2032733548444
89.2511600705438
89.3033490909327
89.3719684498097
89.4147172397097
89.4481705759433
89.513054188986
89.5747316858823
89.6195181378799
89.6801085742162
89.730693377886
89.8249134487144
90.0068042605745
90.1795631004582
90.3160808390901
90.4604387890985
90.5849371750445
90.687144580271
90.7784079785031
90.8813929731935
90.9986586594364
91.11075449984
91.2087230016357
91.3125468747917
91.3866782079265
91.4271558689831
91.4833481183916
91.5884748313359
91.6640766232958
91.6983032538084
91.7635721917732
91.8443353642819
91.8901321965119
91.9208802067621
91.9763527835277
92.0519994641212
92.0924508701002
92.125135809798
92.2091615071507
92.2657142297039
92.2567508206583
92.2630026074039
92.3114082881992
92.3966217720082
92.4562688766653
92.4588215409983
92.4552260564848
92.4698385451104
92.503422712537
92.5439715845993
92.590996874236
92.607210617887
92.6168225164646
92.6457612804645
92.661624359515
92.694774877314
92.7017466844768
92.7287398651273
92.7681590566127
92.7525883585741
92.7512909282527
92.7772720586516
92.8093399179347
92.8411366241929
92.8635573862282
92.8689391661491
92.8726205736809
92.8728070680669
92.8610231151178
92.8603981838898
92.8799964583476
92.8802610638135
92.8560635420184
92.8579947591666
92.881704061691
92.8713327675421
92.8506371034543
92.8390500821104
92.8088669146634
92.7490747347942
92.7244358609814
92.7654495704925
92.8100870722915
92.8141996422368
92.7560734516276
92.715609925191
92.7172483937624
92.7480670271286
92.8027912933615
92.8189968907222
92.8025070966646
92.799899133606
92.7962308044797
92.8086294758782
92.8236579431942
92.8364780448307
92.8263346950284
92.7895464462573
92.7876309336919
92.7937018589625
92.7763581446655
92.7700840123306
92.7620908793953
92.7479703687798
92.7499642028323
92.7196863613856
92.6949045340013
92.693060482715
92.6344690315745
92.6216736004761
92.6281154352284
92.5711119311156
92.5292886132184
92.5177726418092
92.4878795445507
92.4779808573693
92.4879776730017
92.4830793144349
92.4860206438222
92.481502975992
92.4184712153027
92.3391068385676
92.3266578933714
92.3121422364932
92.2524562154878
92.211211640153
92.1840189532198
92.1528200164626
92.133972602459
92.0877297098533
92.0421697238333
91.9809341694327
91.9535919460023
91.9363612200816
91.9059624642465
91.8697208281293
91.8181877334979
91.8141622559792
91.8036324608592
91.7404158713223
91.6630006567722
91.6144466747198
91.5770116920656
91.5409839661988
91.472052573142
91.438986355508
91.4072066311446
91.3440870842846
91.2279371006782
91.1735553390016
91.1642335862083
91.1483616644839
91.1164409894111
91.0073225734971
90.9428873658507
90.9515496543223
90.9030666137529
90.7775104441318
90.6568646251078
90.5768443416889
90.5152215979091
90.4367448203912
90.3614075045519
90.3371902022207
90.2776119246457
90.1797892658029
90.0957412103179
90.0905811614767
89.9939565983124
89.8608274514013
89.788950314565
89.719053975364
89.588950983881
89.4826000208503
89.3930976063009
89.2680224236449
89.1180223108897
89.0427423579916
88.8940513472411
88.7852199657661
88.6924008058519
88.4473439523561
88.1484667334725
87.9226585236541
87.6983761903971
87.4358805704066
87.1758734607606
87.0049607315163
86.7531884222355
86.3440698321202
86.0741561384563
85.9091567911984
85.6631750111595
85.392696839435
85.2548893281689
85.2002509807484
85.1022478067878
