1798
3999.43349933624
650.420452594757
1
128
4
95.757971845674
95.7722934743482
96.0198427712846
96.106308516767
96.1962551601996
96.329199854854
96.315167410507
96.2057656401888
96.066082748694
95.9048816372458
95.9160070430838
95.8640116136999
95.8691963850056
96.1147605766238
96.3425607615468
96.3179011192343
96.0589099346455
96.0782626167821
96.2425756899987
96.1691773150711
96.0994854337147
96.1325279149386
96.1611208327851
96.2834391102852
96.2384628525318
96.0879401787941
96.0965793753307
96.1217123770119
96.1690502669939
96.2226097642328
96.0992644712443
95.9011884213273
95.8846900136996
95.9919500372747
96.1263334124184
96.1818628707954
96.144175393716
96.1495488647812
96.1448784248418
96.0343386705388
95.9059553823521
95.9716346429492
96.0246753054924
96.0163845135155
96.1085884705204
96.130080979773
96.166940072303
96.2459571729835
96.2420870692671
96.2900811537305
96.3149254118808
96.1470432496939
96.0522320965934
96.0739435527147
96.0158725401846
96.0526835013369
96.0862208894686
96.0430360563199
96.0424771414167
96.1208581168964
96.2014603714115
96.1536933854739
95.9932513577437
95.9779927580216
96.0896399282489
96.1892934177178
96.2431811226136
96.2445028157545
96.2177207988951
96.2140148946105
96.1627774610368
96.0856353741003
96.007641519171
96.0162218461388
96.1630804088511
96.3625964057832
96.4603767013888
96.3400719270876
95.9799488384725
95.7832560532964
95.8507356763149
95.9265167503222
96.1480647148056
96.3807062227531
96.3756127033619
96.2679695659965
96.1669232230585
96.1788121434723
96.0908551301131
96.0329501096655
96.1188626210941
96.1893483988958
96.2205613121597
96.2555812071083
96.3789774824133
96.3883493090889
96.1085159809039
95.9475510299009
95.9320784826175
95.9466905474269
96.0492296231778
96.2380725165199
96.4462297563045
96.4843917558048
96.3219144950295
96.2570193185397
96.2540394684441
96.1812564943355
96.090064005593
95.9974961840857
95.9921944085441
96.0653610752498
96.112314729511
96.1538863760577
96.2299127332897
96.2835139854427
96.2276366572042
96.1641979844451
96.1493099944859
96.2163352954039
96.2677254953887
96.2837328331204
96.3157562282856
96.2666395456458
96.189259584595
96.2470063783093
96.3524929784163
96.330443480884
96.2544116597
96.3569436638117
96.4726699044789
96.4829065871884
96.5321748531888
96.5109646728277
96.3326964649642
96.2185011493312
96.161880526627
96.0613576633928
96.0876806625915
96.2772774946943
96.3143604779156
96.1760513921805
96.091455629467
96.0766052219851
96.0197471565915
96.0657931585826
96.1689053195296
96.2707499763144
96.3182358800817
96.2609916100764
96.3054534353718
96.4020518881446
96.3901742870978
96.2771864332757
96.1312100479044
96.0417222671511
96.0207950866729
96.1011707195898
96.1405266295647
96.1562808176145
96.2118347271995
96.2461835130727
96.2788921258317
96.2619588276605
96.3412644249366
96.4389399953158
96.1611107260547
95.9340177136568
95.9275183295906
95.9762483121217
96.1680277892541
96.4036125306032
96.5571526289833
96.6093503182253
96.2518599486112
95.815259432007
95.6897678735989
95.6795878336254
95.7039688666881
95.8148270474454
95.8777470695555
95.8828761263459
95.9349763835581
96.1185629211415
96.2028514537268
96.127985078565
96.0487938737102
95.8708213462674
95.5044623401407
95.2626464758888
95.2328717075038
95.3541653256258
95.5070595160975
95.5504250370413
95.4596873027154
95.5027866671117
95.6470658006035
95.6377730893213
95.4548943367896
95.1586673448838
95.0144570868065
94.9471076533092
94.7957185529028
94.7669489897345
94.7405229772846
94.6415577716751
94.5124863947441
94.3171016953983
94.1716779931926
94.0343768962438
93.8937881866709
93.7729265354478
93.695463719381
93.7386195929449
93.7242878319286
93.566824763083
93.4051367441574
93.2719138807465
93.0969406728445
92.9326558599098
92.75008749162
92.6339009971767
92.5588396298191
92.4152543467333
92.2121313991293
92.0717071385673
92.0032278728717
92.0250629784679
92.0202976631927
91.9201758856126
91.7285599586904
91.5088404172087
91.3121866618186
91.0816564490448
90.8548626052208
90.8356927514554
90.8709680612143
90.8290535953682
90.7678919701868
90.6729398520812
90.437907972981
90.1695975462054
90.0657907459
89.9446971006076
89.7086776654063
89.6165551474598
89.5968877364088
89.4645439264338
89.2619241560509
89.2216254085839
89.2154016320937
89.0332409717282
88.8986431237767
88.8656355400176
88.7750584791017
88.6685930721026
88.524746242748
88.3634555810031
88.2906811384818
88.2222720375127
88.0997011609207
88.0445766736834
87.9971378641599
87.960283478664
87.8872081461276
87.7631705587684
87.6206430129124
87.5876164882612
87.6843667047752
87.7639870857846
87.7020763690208
87.6530009568177
87.6682332684709
87.6456740851485
87.6869353773458
87.8200488419798
87.8595489431252
87.7791580990185
87.7469546072804
87.8084465561602
87.7390989245588
87.5898167636941
87.6058720145119
87.7045232579802
87.7279682992445
87.7626858074194
87.7369689824281
87.629601450404
87.5747938800193
87.5391832404424
87.4270521533825
87.4114609988479
87.536781645108
87.5845523686147
87.4615912494077
87.3559355925052
87.3196789987765
87.2662518193719
87.2109557433482
87.0923298245342
86.934248662864
86.9566687833256
86.9419612204426
86.8672202082489
86.71831811404
86.5158276614581
86.4807504954493
86.4574739144134
86.316417192496
86.2509914166196
86.2697468353361
86.3117582589027
86.2506969680552
86.0188221128679
85.861145885173
85.801671667703
85.7081113153908
85.616044959604
85.3718725281555
85.1356341293421
85.1326840489452
85.0788869129637
84.8347829419826
84.7366635253464
84.6922384279675
84.5175145128781
84.3191941787128
84.2497748942858
84.2301615955935
84.0900430178164
83.894709994206
83.7411942104321
83.6151343915434
83.5851070593796
83.4903539893437
83.3458344277833
83.3251416161633
83.1902963508835
82.9800294116763
82.9069014428274
82.8477947102858
82.7885910456242
82.7457453035867
82.6473179046216
82.5234169417836
82.4985432806681
82.475961709782
82.3911980101488
82.2643515559062
82.2123747516694
82.1953821673499
82.1824424877814
82.1893083818938
82.1734296170175
82.1389025805615
82.1408199124526
82.236664402785
82.3340656545291
82.3688528948724
82.4866426829344
82.5390145438071
82.554535459914
82.6350263652291
82.7064840802107
82.7983325250338
82.9517729561103
83.0542069040919
83.1334118085745
83.2589895651531
83.4020796669787
83.5229169290942
83.6057409231232
83.6800980698726
83.8273212291231
83.9896379966511
84.1127193127885
84.2356936591114
84.4013416366472
84.4927107519856
84.555831611611
84.6527824932594
84.7895529042222
84.9111948415705
85.0516506911872
85.1528496152621
85.191186453546
85.2720917771898
85.4939082312544
85.6664017258085
85.6792058396511
85.7254339020313
85.8376762653279
85.8858324959254
85.936942945202
86.062780039817
86.1414318044916
86.2129946195163
86.3583758646765
86.3919965307898
86.3279964887058
86.2952110491728
86.2802348800827
86.2437205849465
86.2861194463915
86.4008586136244
86.5095475114695
86.508954599844
86.4440487049335
86.3999569059341
86.4940226992722
86.6668247174361
86.8078595275556
86.8512624284769
86.8214673116491
86.8965370360759
87.1671697272783
87.2989470309315
87.2676044629364
87.3321097180558
87.4659584013052
87.5733866716022
87.6031291061416
87.6614111385596
87.779350719661
87.8171813420841
87.8955232886798
87.9948417320672
88.0790277832191
88.2166088390446
88.3579030722817
88.371336654664
88.3696795758675
88.4092243575935
88.4689622587655
88.5101711445933
88.5916547105272
88.7014497757815
88.7871561398227
88.8633841157945
88.9414052566551
88.9555369714157
88.9528098306745
89.0262924999918
89.0815580519664
89.1220451430456
89.1927012996519
89.2400655547383
89.3718527289688
89.4724555013398
89.4638370657364
89.5280894462143
89.6707385216499
89.7510433581769
89.8529250696713
89.9120211852941
89.9529708445758
90.0720042162039
90.1840361819492
90.1764129423019
90.1746550779349
90.2725376825258
90.3995542621675
90.5724302590009
90.7167692266038
90.7398151405673
90.7935054092638
90.8852168468394
90.9267143832466
90.9707061846209
91.0585458974947
91.0728898335275
91.1344557670239
91.2586075219752
91.2998273759947
91.2999352757454
91.3864050654469
91.5025536883537
91.6181333071002
91.6817939770092
91.6564793352285
91.7001183993038
91.8342159801484
91.853123957018
91.8416799664718
91.8706197632842
91.9452917655725
92.0111288379725
92.0480719446513
92.0861329810431
92.1867329636487
92.2854720004721
92.3334909725623
92.3443296155133
92.3361217869462
92.3515698077444
92.433073119471
92.5356242652322
92.5832131263644
92.5691449982424
92.6054915630184
92.6388757865801
92.6172004154414
92.6521400375637
92.7426143140244
92.8058000874586
92.8467661163549
92.8977624636278
92.9314975370561
92.9181732285921
92.9285307938408
93.0061410903699
93.1219895099723
93.1814505955749
93.1712804322397
93.1815033208576
93.2433608845832
93.2264329332106
93.195917664916
93.1952934990361
93.2301385361362
93.282972255216
93.2948271814009
93.3351219858296
93.4202425583025
93.4743168818785
93.5454993296108
93.6093888122691
93.6277830029334
93.5926466944346
93.5996741683455
93.6307325869601
93.6857288773374
93.7327462892718
93.7162530988478
93.7235970190314
93.7309775041385
93.7628676337459
93.8557945119691
93.8329327658315
93.8294660025868
93.9330468474957
93.9862312244318
93.9622871344983
93.9220146957468
93.9299800609392
93.9718282620437
93.9683256905607
93.9997694622714
94.0875677732441
94.1361246921816
94.0921993547107
94.0456611600801
94.0728850469927
94.1194521790607
94.1707355970502
94.2805616325653
94.2721361056648
94.1813161827612
94.2069811663581
94.2817194744938
94.2732553343685
94.2864576945603
94.3578992078125
94.3988727444317
94.406920387583
94.433570942775
94.4240927225792
94.3777967228274
94.3736739674494
94.3875864278699
94.4077530362112
94.5001369186548
94.578656940734
94.583037202887
94.5868648992128
94.6330273634619
94.6577955788177
94.6491208416605
94.6519570515449
94.6284732736176
94.6487927366795
94.7208606124841
94.6928759503771
94.6785981615347
94.7096976134314
94.6730852782251
94.6158442315103
94.6256306494695
94.6246339227043
94.6581258936503
94.7211280236993
94.7346126313516
94.7196940302516
94.7264493977608
94.7327198337977
94.7044827497336
94.6760456585058
94.6905328302752
94.7015160666545
94.7110822407611
94.7467893943056
94.7690895012996
94.775468224932
94.7803051217747
94.7730339624447
94.7830300511511
94.8076819434632
94.8238932979418
94.7923535554746
94.8242764004053
94.9061079840549
94.9231015723088
94.9282469684499
94.9686344353581
94.9523367875346
94.9093771515351
94.8878983304711
94.9522379355665
94.9889370119443
94.9174530032737
94.8729707593458
94.8898105626284
94.9032046683077
94.9286232618039
94.9542832831748
94.9711732996049
94.9695711092384
94.9419538283001
94.9400480195077
94.9725703370298
94.9731720856338
94.9401158503694
94.9477669316175
95.0005973780525
94.9599962489137
94.9182704978519
94.9664637086599
94.9902095275741
95.0133759681117
95.0560413020382
95.0267602624816
95.007153234441
95.0391434172648
95.050214710914
95.0245037878294
95.044388875407
95.0647605212675
95.0257415086942
95.0347391230536
95.1335876945345
95.1735594415104
95.1028700926932
95.0647537089394
95.0845811518362
95.0519379132203
95.0335256814217
95.0975912670105
95.1349406764183
95.1335139542669
95.1157825100751
95.0604542463604
95.0766430334211
95.1287112900339
95.1495730571094
95.159392041904
95.1618112389165
95.12504345513
95.1145365538549
95.157817037856
95.1598957326622
95.1731793208501
95.1983169211411
95.187544941278
95.1623179083194
95.1547361770515
95.1690781692228
95.1773642817932
95.1966569058594
95.1899829075437
95.1777756178084
95.1912172796806
95.1809311050495
95.1810425154277
95.2294275421208
95.2310580882072
95.2325393052727
95.2624168523063
95.2255302494002
95.2082555211043
95.24170244236
95.2294308578933
95.2169367224827
95.2511234787387
95.2652646753391
95.2444388890379
95.2236358676775
95.2263659210653
95.265360763055
95.2669975218713
95.2324839400463
95.1923342361434
95.1644313283414
95.1932744214653
95.2544892728827
95.2875714371149
95.3057246491641
95.2941838466108
95.2973731630387
95.3297874603111
95.3100039303472
95.285119897173
95.2945325707145
95.284992318429
95.2706802383094
95.300413380379
95.3414366608009
95.3298963350953
95.2753691255682
95.2502901791395
95.2683248129771
95.2514510442482
95.2548971160735
95.2849872862954
95.2833267343237
95.2446617325313
95.2216968319332
95.2678282676136
95.3196655954891
95.3627056945101
95.3757173897077
95.341570888029
95.3297870855935
95.3270569839967
95.3049587792997
95.291515777781
95.3056731829626
95.3297113102075
95.3391293491185
95.3330890594353
95.3523178805166
95.3613750746539
95.3749657925626
95.4006100433699
95.4621042148873
95.496690145767
95.4475422208533
95.4203198404893
95.4515205353698
95.5075669689478
95.5171463572065
95.4685189803379
95.4575032917204
95.4622757698533
95.478770753846
95.5501826138482
95.5864486146157
95.5160460867651
95.4922895941011
95.598703935466
95.6246111824386
95.5550787437797
95.5807726483375
95.5945145130873
95.5634590800303
95.5247060041787
95.552808890477
95.6287538630638
95.672838811395
95.6690394423796
95.6669228388047
95.5418729847667
95.4927232698057
95.547324275938
95.6016064570232
95.6553532119296
95.6625268766316
95.6732279818387
95.6554361858227
95.6705796834239
95.7673737750319
95.7977174386136
95.6864691240938
95.5656039370286
95.6143231771825
95.6725120579264
95.6917212723979
95.7195504179167
95.689778389712
95.6527284825147
95.6850206464384
95.6595996238707
95.6575519133693
95.7145001637488
95.7715295893213
95.7567664439809
95.6672770485923
95.6194200407197
95.6862960983767
95.73224181933
95.6997847496078
95.7288792749243
95.7620132489719
95.6713524714491
95.6701305560639
95.7110578336324
95.6956741145046
95.6929796982555
95.669202265007
95.6778592552844
95.7724557224917
95.7987117755233
95.68448651979
95.5690247081534
95.5773531392706
95.7093434493722
95.8146766539869
95.804349774443
95.7576025335387
95.7202764497169
95.7419330818166
95.7964858440747
95.7543625335043
95.7266586521474
95.7673610431136
95.7872903628014
95.7266968008981
95.6638906595453
95.6798929722065
95.69417804556
95.69135255834
95.6928376806808
95.733798994776
95.7464221876281
95.743738486813
95.7349348649569
95.7171354724793
95.7233677548655
95.6702576942766
95.6193427899524
95.7308195498476
95.7861647894449
95.720849626593
95.7860006296253
95.7961933633866
95.6758735710267
95.6844612826885
95.7471621168498
95.719759280699
95.6781623850373
95.737556157851
95.7553622649537
95.6926562754977
95.7006142537254
95.7236191650557
95.6499435426439
95.5974933869454
95.6507047731312
95.7634238330608
95.7346456572637
95.6396161635574
95.6641652679086
95.694607203227
95.6984520657676
95.7035830219784
95.6686797069283
95.6853123205576
95.7040882232682
95.6656607710107
95.7040541040639
95.8055990125103
95.8595947951624
95.8307527444725
95.8187402505696
95.8073418685239
95.7649340097864
95.8486571356985
95.8993307270532
95.8002343376454
95.7120153948605
95.7095974622785
95.6475703766998
95.5164627004089
95.4100102150387
95.3780563633878
95.4602179069343
95.5843514275852
95.607612710823
95.6255355543474
95.6658273529132
95.582970895907
95.528326694845
95.5521845098388
95.5377932190101
95.5361460690629
95.4713819956233
95.3996348191265
95.3928891014326
95.3770441979871
95.3246196899537
95.2371840474411
95.2113272597894
95.2338919140375
95.2098784174924
95.173700186624
95.1966519104356
95.2171828255068
95.2459159872475
95.3337452968552
95.3218309217848
95.2876217474838
95.343446874693
95.3590389199314
95.4098467951954
95.4209186127417
95.3536004481755
95.3311401508255
95.341028396214
95.3597963118651
95.3543294396075
95.2993747084248
95.2764398018412
95.4307302239348
95.5521941729159
95.490157668279
95.4822839243358
95.5312965261609
95.5277369329889
95.5735931810628
95.6805449669905
95.7231659851528
95.7776282236136
95.8562968709469
95.8073804437359
95.8094316593044
95.9306674035299
96.0360055709781
96.0261049959058
95.8606882576456
95.6963671740955
95.8117650800435
95.911332836478
95.9312542170314
95.9986896867838
95.9818708411235
95.8289257477418
95.6433076470869
95.7737152575951
96.1353674081655
96.2076920987468
96.1270459479155
96.2419080139956
96.2504637486119
96.106888159834
96.2706231079811
96.4463704103582
96.3544704363282
96.0948674464633
96.0239366114053
96.2804986116465
96.5198071331654
96.5276924166896
96.4853100652744
96.5749974492175
96.5697941694479
96.5100742344769
96.6030518211222
96.7767398932622
96.7696415156695
96.7966100031639
96.7901837799923
96.6700354704869
96.7308109932794
96.7672457639227
96.8566883821715
96.9204783623667
97.1060273340767
97.4295747031795
97.3672197715552
96.9727539468917
97.0244233593909
97.2413308301149
96.929602565569
96.8571442646975
97.1337727901328
97.0989873147939
97.3959112068806
97.6088495629945
97.5164036461242
97.516757236919
97.1070228627749
96.9582530760441
97.0677931963616
97.1345137979868
97.1760657673248
96.9259451649374
96.7869510936747
96.7464627450206
96.7338493312342
96.813103952536
96.8102699939837
96.4565078931019
96.0190499476401
95.9508603065208
96.1021033233557
96.1009516725746
96.0659306332667
96.0834500453467
96.0421788834236
95.8954752791329
95.8776783904936
95.8547827067638
95.7485043866038
95.7401774249629
95.7164975181169
95.7001670650307
95.7520435159392
95.788430817635
95.7630737062462
95.8355016543494
95.8712117300462
95.7357616701179
95.7202754739449
96.0339188368255
96.2610794514843
96.0967143951097
95.9270484531441
95.8719373421979
95.7865901842087
95.8058128278183
95.9614566796214
95.9935381998767
95.872895056174
95.8004931646641
95.9373682077493
95.9787089938485
95.8796404596855
96.063460659389
96.3059301695522
96.4658306401716
96.4108477938798
96.3142587704408
96.2228471290477
96.2159810791047
96.6158310398924
97.0203410060963
96.7276508824357
96.3987353727596
96.3289990839266
96.5075080159373
96.9169923900227
97.1019191688928
97.0821638375997
97.1456678249353
97.2794011668333
97.4421448616699
97.2890809264236
97.1105664546159
97.1785306426368
97.4801604054995
97.8427767179339
97.6428359240709
97.278752196095
97.1900514144659
97.0475820202794
97.0442252884772
97.2779776714122
97.5326010816795
97.4827019613564
97.2683869273535
97.1503366240932
97.1594539322553
97.0093194885086
96.9384070249805
97.277290114802
97.2337289042921
96.7724850398825
96.7793780117527
96.9140376796293
96.7448974300033
96.545647407319
96.7474308982309
97.0516515257029
96.8706418341264
96.7306348576798
97.1469609398603
97.5971316250318
97.675385649259
97.3762468683076
97.1472699867712
97.2185279588444
97.0849573414713
96.8323990597619
96.8276979119186
97.0787869723095
97.0296472905286
96.7496285144818
96.7233453556056
96.8082419436971
96.7537878740073
96.6860546327089
96.8570528769149
96.7387631487833
96.3658084004449
96.2944853127359
96.4409380674134
96.4548636753966
96.3313067013712
96.3223426313606
96.3864254034353
96.3387113278551
96.3418628701542
96.3779680304715
96.3309012317191
96.2574621032313
96.2152240165954
96.2123864390041
96.1087267126751
96.0060737647336
95.9672275742008
95.984055053189
95.9786127323971
95.9928048405325
95.966557465171
95.9610982399512
96.0387825540453
96.0389769667625
95.9261305084871
95.9407199347535
96.0279862319317
95.9965929305145
95.9255654649999
95.9003339297573
95.9062140374753
95.9414190911283
95.9279892715271
95.8317275558191
95.7261045512129
95.6676130661392
95.6720587725832
95.7499938456862
95.827226450443
95.7755124919704
95.6955605700305
95.6569326866499
95.6577974027602
95.6213193446214
95.6383723464083
95.7094416397982
95.6934613425279
95.7025174789176
95.6499883117493
95.571647557308
95.6060326649801
95.6986165994061
95.7057830791911
95.6572860047519
95.5793779926857
95.5410322403217
95.5853092157754
95.5799168184871
95.5590007811749
95.5691285401211
95.5605439408792
95.5155205759694
95.4894558104151
95.4930258130604
95.4445901292188
95.4532954894919
95.5164749632477
95.4943745760894
95.5399502013302
95.6438797644736
95.5878662743444
95.4650954606684
95.417769773393
95.4318441413213
95.4618668948363
95.4660310194407
95.4619376282438
95.4494849512289
95.433406826662
95.4849354706675
95.516117613689
95.4659239137328
95.3714823055297
95.4024419486883
95.4680194335435
95.4233293091525
95.3572563577355
95.388028151241
95.3903007227572
95.4410812642136
95.5312637189021
95.520182295101
95.4686844710132
95.4104237542035
95.4297480372977
95.3783886150664
95.3806687523844
95.4253370695584
95.3794126339751
95.3644939465352
95.4480054146746
95.4476732979873
95.4941596928226
95.4691447105328
95.3267783413447
95.3461682315226
95.4109181776739
95.360471475103
95.3383999046494
95.3646220728426
95.4067164605831
95.4528584427771
95.4072292542061
95.1581771485922
95.1921758706268
95.2909057270695
95.2301268287924
95.234968016847
95.2803769894818
95.3276084684178
95.3927155989647
95.3046902526035
95.0814764964682
95.1063645344635
95.1971384844722
95.2402179004586
95.2252958775681
95.1719964784859
95.1486333464127
95.1614395041499
95.161635200625
94.9684422657166
94.8203950502688
94.8109298743809
94.62275221536
94.7117522686067
94.7362368698327
94.6712434622733
94.6197758146603
94.5002471458046
94.2006331205432
94.2499515438382
94.2519342703559
94.1078530744107
93.9770954321422
93.8910331328599
93.9022428935628
93.7128070730719
93.5173503557707
93.52686742402
93.4207842148836
93.1254004616602
92.9265991003493
92.8885044290759
92.6994800714852
92.3293291690229
91.8832560928265
91.6990052648369
91.7000395012235
91.2352001655027
90.6787511227161
90.5736786926457
90.4698484315494
90.0686225913931
89.5274077992956
88.9960332937533
88.6111822141667
88.7264864333709
88.742913134683
88.5007911420192
88.2467741983457
88.0033272188031
87.6032597798846
87.0139411814717
86.339663249138
85.4947547658215
84.6051415427175
84.0391162450724
83.6453060545203
83.2134379662688
83.0623589538482
83.3353246294643
83.9136952730353
84.6166767579903
85.4670381069554
86.3527631824053
87.1391907175785
87.8564955932046
88.5094583006805
89.099100809224
89.6277783008121
90.0297093917874
90.4030547459417
90.8025016665161
91.1744355250582
91.4762751454916
91.6435542578991
91.6837648527979
91.7441219852379
92.1988353405226
92.3959161868784
92.2840367586909
92.3769748775645
92.7337613953761
92.8930430234858
92.9597676161978
92.7870763672894
92.3544927999229
92.7917494947798
93.2111909049164
93.0947343797807
93.1458467923614
93.2313293226475
93.3937725734175
93.4684253133556
93.4348679329296
93.3435815209431
93.21671883749
93.4336052456207
93.6834776452206
93.5422899741308
93.3860608124323
93.6716821166513
93.8035410528272
93.782327033507
93.8027247946602
93.8517935257229
93.7135701752483
93.7142412359442
93.8530177249341
93.7995682137335
93.9495088247641
94.0508775384837
93.99954326949
93.8062021927495
93.5505118447153
93.8606865469058
94.1908566423173
94.1178673131829
93.9668116199726
93.9304724139725
94.0664289936571
94.2067643163346
94.1377472680475
93.9181916160621
93.9582934843447
94.1134736074592
94.1435758154778
94.123979758681
94.1616476662874
94.2368982021263
94.1975141932675
94.0773712635167
94.0206803152703
94.0714065667669
94.2663714354973
94.2391384552064
94.0847188960478
94.1034959413546
94.3363657784883
94.2962660489671
94.0518283068979
93.9072742022369
94.192582695995
94.2570232503311
94.1281695878951
94.0550906900016
94.0545685111684
94.144330361143
94.1946995977196
94.1851746148375
94.1805683720464
94.1118744287426
94.0202589963015
94.1777442491914
94.1832109750726
94.0669647018065
94.0763397754985
94.16920678843
94.1750332436192
94.1735857729595
94.1734031936739
94.0253414847569
94.0568111677016
94.1888471687397
94.1623655640595
94.1384141670221
94.1872691076489
94.2391178969389
94.2483201437958
94.2801587122079
94.3441626773818
94.3184592723838
94.2373204256255
94.2672911560598
94.2887605813224
94.3465414020238
94.3907315652277
94.3067523694578
94.225984084027
94.3051402132989
94.3982787551662
94.3766613592461
94.3731247893431
94.3926835263877
94.4166195204819
94.3705804924421
94.3534817088925
94.4073612779345
94.4024094034398
94.3972316107478
94.417003956772
94.3581573944021
94.3458221561693
94.4264655765441
94.4427070472942
94.4236505460501
94.4295840984218
94.4508533251153
94.460129938522
94.4590100017782
94.4787345892436
94.4949045620669
94.5084528025221
94.4712483227517
94.4111187520571
94.4358487789664
94.4690989635092
94.4664335902703
94.4622102587503
94.4698605206072
94.4789992353423
94.4849422053045
94.4900877807978
94.4782681417354
94.4570025787902
94.4377440767454
94.4406148411571
94.4450576574979
94.4405774186274
94.4554924857273
94.4700455593312
94.448076673794
94.4443774095616
94.4380460753657
94.4119871213744
94.401667406018
94.412705696875
94.4194800009932
94.4111000726538
94.4079664345851
94.4015081872531
94.3752214164379
94.3385085266933
94.3190971621086
94.3184878324542
94.3076318342063
94.2836554474843
94.2529134028373
94.2228468021272
94.2001185213943
94.1560462134352
94.0991255565026
94.0716417328552
94.0421954176749
93.9772262389427
93.8924283605845
93.8270314024143
93.7741266213426
93.702768437878
93.6041242686148
93.5318300834901
93.4725401928694
93.4000900466547
93.3169476774476
93.2171998298513
93.1042700506009
92.974292996713
92.8487440131306
92.734699493797
92.6067541817661
92.459505551931
92.2980792787833
92.1203977208666
91.955045504549
91.8072009831252
91.6580630420937
91.4965497272864
91.3068964413639
91.0944007577944
90.9140291652514
90.7436628497064
90.5333136828072
90.2999487575356
90.0689102654929
89.8330347637874
89.6024122471625
89.3793784142857
89.1475995096907
88.8803513583289
88.5880762555048
88.307401446567
88.0359021986588
87.7642620654061
87.4949111000545
87.1794219807757
86.8560332441741
86.5305163178216
86.2006625720716
85.880119575865
85.5525955970723
85.2115982637794
84.8863700992997
84.5747021364577
84.2520509820683
83.9342097346934
83.6222854735502
83.3031366102645
83.0246752605561
82.7580129794255
82.4977507498795
82.2435502629437
82.0004093089304
81.7618128592145
81.5248088351902
81.2655322179017
81.0194373695397
80.811320883102
80.6052256532069
80.394108151827
80.1982798541998
80.0025745308858
79.8296777724639
79.6837299573114
79.5675524503243
79.4541930931319
79.3510557272417
79.2759260620254
79.2246935741142
79.1691563385096
79.1345365368557
79.1063603727091
79.0753805203958
79.0402860883107
79.0064157564599
78.9771892067314
78.9717206935498
78.9613897974361
78.9902799146966
79.0291759827828
79.080488840895
79.1417595036384
79.2458251716503
79.3987446293772
79.5854304682322
79.7996818364441
80.0243829560747
80.2458615194405
80.495039265111
80.7631552903928
81.0604170919494
81.3422249627639
81.6355838665592
81.9227387528409
82.2215283809292
82.546311933521
82.8932761304483
83.2129527208325
83.5446946049921
83.903493047368
84.2726446334982
84.6284057166538
84.9867155073795
85.3403067911715
85.6864394963558
86.0298854805429
86.3576904939874
86.6623362218952
86.9643834248203
87.2437157128858
87.5049052044528
87.7394842402909
87.9612905123146
88.1717889661836
88.3296615056983
88.4653957422301
88.5925920342242
88.6877447867892
88.8041586153907
88.9340842241205
89.0499499576308
89.1573323126279
89.2324509261013
89.3037015659232
89.3852352117165
89.4697167985336
89.5332174585588
89.5877787857396
89.6336409721378
89.670212846432
89.7201714028659
89.786107248712
89.8348797822367
89.8505102158951
89.8766359427961
89.9322273609459
89.9963059669022
90.049471358062
90.0618040366067
90.0516262474027
90.1597050198468
90.3334047207757
90.464797336881
90.627326984584
90.7848265146878
90.886994526924
90.9540931168693
91.0325818886254
91.1498438563223
91.2643866895277
91.3560285284282
91.4429438127123
91.5183921529918
91.5771538112181
91.6489352062903
91.7174772097764
91.7653282579777
91.819442795999
91.8704282171461
91.9186986282783
91.9704556855226
91.9997558339481
92.0382381472706
92.0952692516026
92.1573492705255
92.189643784553
92.2137995793193
92.2300449790291
92.2432549705174
92.250353298787
92.2891848330622
92.3469788419203
92.3873124883441
92.3757640821965
92.4168721032095
92.4971421928297
92.5055997585739
92.4997110550505
92.543053805697
92.568729019521
92.571982454507
92.5858100207055
92.6304411847428
92.6534800164059
92.6482637656976
92.6475406756965
92.7134324978406
92.745065016303
92.721247296655
92.7414103031123
92.7821477990033
92.8151753367896
92.8381860746251
92.836544729956
92.830147099787
92.8564655498475
92.8512089110278
92.8048847254583
92.8120776298788
92.8504610041244
92.8821170868373
92.8935202888823
92.891999081469
92.8678395812945
92.8991886519185
92.9315793289742
92.9003939410843
92.8621862450816
92.888958202566
92.9192751683695
92.9081821513613
92.8909961796646
92.9214459561721
92.94824140942
92.9560197337828
92.9403113398613
92.910740613408
92.8704387813744
92.8640214204441
92.913522569747
92.953241176001
92.9609149050161
92.9336522018661
92.8940410517477
92.8837771057198
92.906577047124
92.9182926543044
92.8907604009289
92.900384407479
92.9121165540347
92.9065766927735
92.8727215459544
92.8444915546488
92.8352102620288
92.8455871216486
92.8157125348579
92.7880656265917
92.757504348323
92.7368684501636
92.7481063781491
92.7346181738154
92.6940695450341
92.6768356136853
92.6692708699385
92.6586664012359
92.6666805588657
92.6456940972002
92.5778827423903
92.5846708216203
92.5804227120266
92.5108471192187
92.4518622264989
92.4741315214889
92.4499046502116
92.375336498351
92.3186241823319
92.2838266447319
92.2887075310916
92.2454811498597
92.2030968477106
92.1696888696554
92.108901342423
92.0761086031009
92.0004686720397
91.9260773419363
91.886566097745
91.8373994765218
91.7767584085735
91.7453021166554
91.7000633051537
91.6318150295009
91.5257428586334
91.4337115713672
91.3837912434792
91.2810322909824
91.1394913391661
91.0620327896723
91.0021329102174
90.8989678410184
90.7561902040371
90.6198843947267
90.4670828287419
90.3249407907591
90.196666485282
90.1022347071071
89.9303270495066
89.7155635269669
89.5590115917117
89.4270353460439
89.2990216407263
89.1088575393666
88.9117530655188
88.75077747154
88.5951181009073
88.4505558275373
88.2342425600594
88.0272181676137
87.8797991880928
87.7239690227606
87.5695884248179
87.468529005942
87.3562062643402
87.1945803027387
86.9996806108401
86.7829612186583
86.6000152806377
86.4600396572847
86.315819549094
86.0974142002915
85.8886389809744
85.7313581223032
85.4532071398908
85.186305444547
84.8773323394605
84.5561611942287
84.2792994098368
84.1126456035337
83.813645792246
83.4873657173366
83.2007899252122
82.9822229868468
82.7974870463191
82.5416015188172
82.2059331499287
81.9770358758115
81.8137869349756
