1798
3999.43349933624
650.420452594757
1
128
4
98.4381504753966
98.3505844184828
98.259025619243
98.2050002782499
98.2765178618551
98.3956168909531
98.405393653395
98.3096399411939
98.3618478041731
98.3040610640365
98.2561355886407
98.2756283031542
98.2538002181816
98.2731546319549
98.3109673185394
98.2940018610841
98.3119703962741
98.2266776158523
98.2330979771802
98.2711811391025
98.364023072255
98.3337324934025
98.1752359396078
98.15225933698
98.2545613636761
98.2879939736506
98.271679293673
98.193239722879
98.2456895898773
98.2988738436976
98.3737083444756
98.3346735236626
98.2521115733426
98.1948376268224
98.1704752255057
98.1592542730491
98.2660060547012
98.292794797648
98.2867341524964
98.1808515278416
98.2726475624883
98.3813059686901
98.2973527081819
98.1646241088112
98.141218558939
98.1193816132831
98.1722507765018
98.2653496343796
98.2965628999989
98.2225336101316
98.1359909321303
98.1323854222791
98.2357680251905
98.2196623407728
98.2543164931406
98.1890366808822
98.095326818563
98.1269831267266
98.3575537749836
98.1898863860984
98.0846765333719
98.1603785824925
98.1366727992356
98.0893767080071
98.2211591404324
98.2196469061749
98.1901174898173
98.1385611558355
98.118740224609
98.2429858401116
98.3520718194712
98.2612694185369
98.3230215254831
98.2618888490638
98.3723484314157
98.3952248181666
98.1456443837342
97.76626081173
97.9264291468385
98.2183659433289
98.3849641900255
98.2731004679524
98.0970616896152
98.0476155278572
98.1558297122097
98.1357748541139
98.1520259838908
98.2942712500319
98.3742817109683
98.1719727939463
98.1112810122786
98.1111440506137
98.2957130279244
98.4150052455124
98.2350095433575
98.215775474601
98.346638796777
98.0879481319428
98.0860672855811
98.1876160099028
98.2827655203393
98.2755644265357
98.1412321495214
98.3267223331944
98.4543643056149
98.1381454923923
98.1820806447405
98.2719108592216
98.2271410582894
98.2504884392059
98.2666483555829
98.2564976285045
98.2189721910965
98.205602963782
98.2540255693495
98.231470404688
98.1269654011515
98.0976398540499
98.3098346477032
98.324846630112
98.2669766431053
98.2472897893893
98.1706401934939
98.1225656537336
98.1613014583783
98.2040014393116
98.2964261808776
98.2222838396578
98.1681962971
98.1498887068148
98.1749951047352
97.9932285024122
97.9803876192233
98.1436750271055
98.4118546895221
98.2010662262097
97.9224319910535
98.1046000680329
98.1465408826719
98.1430894839884
98.0139770881391
97.8908976695059
97.9155951092274
98.0846230703732
98.1912968158653
98.0762973800646
98.1858320974464
98.1732290055803
98.1040959457012
98.1821861401944
98.1361591793743
98.0393659472975
98.0363601577324
98.0454362671253
98.1395750631345
98.1540882375741
98.2301934510512
98.2059516298559
98.0658393664297
97.9285145583786
98.0411427735525
98.0280328155345
98.0588341299014
98.102664653426
98.0803714013329
97.9019834018966
97.777727365416
97.9766130566558
97.9880369715195
97.9263536467019
98.0704786226449
98.0712326390128
97.8087661419868
97.7677915764056
98.0504022330332
97.9138428581202
97.8772283922285
97.8714426937296
97.7144574443256
97.4921795824098
97.5707882705613
97.6569736200767
97.6591740099137
97.6887211190432
97.8963948565563
97.7127352811611
97.4086463554639
97.2436538666392
97.1626225589086
97.1974600301207
97.2980310296512
97.2167053974272
97.1047236730988
96.9609073372935
96.9851997374847
97.0813764430634
97.0499648671926
96.755602381975
96.4657855967429
96.3324404992568
96.4232806548525
96.2691015050177
96.0643498918787
95.9477156371335
95.9083824079922
95.8133029671542
95.6780971266477
95.6132983695652
95.4939083208337
95.3710522262638
95.3979338519304
95.304001484757
95.0784047021942
94.9077457230329
94.870939749735
94.6759187589999
94.4722108905187
94.3831703252308
94.4458554330879
94.2048899131774
93.9342663778947
93.9227750296062
93.8152094481403
93.5144035281599
93.4095280657549
93.3455150234859
93.2665825546993
93.141824095043
93.0833542644005
92.9123083251559
92.6509564623126
92.4583553945048
92.4370175178945
92.368622595266
92.2842378913723
92.2088856012173
92.1540816219943
91.8884418631729
91.6652954001284
91.4726693930568
91.346858193719
91.2436495501637
91.1745357291321
91.0562790968998
90.9123248924117
90.7341554165098
90.6523477990536
90.6086993453869
90.5416979056244
90.2663635330857
90.06257607044
89.926912383796
89.8918521769664
89.8570317499086
89.814002479766
89.65264164498
89.4826317618488
89.4171731923608
89.3574077829527
89.1744460542916
89.0824395076572
88.9895247747085
88.8445971946946
88.6770420887281
88.4782195886531
88.2328155983105
88.2865082596327
88.383378096123
88.3808500829994
88.2878013632749
88.0913017840833
88.0252724448519
88.2094855312148
88.1511360416762
87.9430424226885
87.9162980198851
87.9018211429509
87.7075931514912
87.7062955848454
87.7250469029703
87.7228493923067
87.6732934073548
87.5476052598356
87.3389893601614
87.2499250503393
87.1591912175713
87.0750175094998
87.0069648531032
86.9252880718786
86.7896880093852
86.7673052063651
86.7155850568698
86.6198836051471
86.5124813211832
86.4021750093666
86.2161125905053
86.0972763381243
85.9617946448034
85.9416508180292
85.8774424864759
85.7088856939291
85.5930840809218
85.5852573947748
85.3482792326673
85.0594219846904
84.9346625940568
84.835398545004
84.7059154247768
84.6581784420424
84.5630512677548
84.4581141591056
84.1924619201474
83.955646896502
83.9319660931038
83.8800541674711
83.6399668122171
83.5026657885471
83.4270606893539
83.1934495462974
82.8964523811188
82.8125613710484
82.5463279144292
82.5690175460347
82.5600639864796
82.378434076653
82.2959495848391
82.0847800441853
81.8550370428406
81.5076707142975
81.2493989496911
81.370951611239
81.4836042045033
81.4993410107055
81.545899923269
81.5754884000225
81.3013890256249
80.9519724254231
80.8296631844022
80.9920826813298
80.895543486554
80.8181856141576
80.6883195721466
80.4452041101123
80.5456165062244
81.0057880365026
81.2496178080395
80.9814867027023
80.41448394356
80.1593410543596
80.2157998578438
80.0909546901894
80.4587434308648
80.8095507772034
80.368152408695
80.4008427361758
80.810441560549
81.0664576101349
80.9225450384158
80.6605084754593
80.6648117616513
80.9413757621875
81.1211172398667
81.2098359004881
81.1541895992709
81.4152336956047
81.7907291560626
81.6744729417318
81.2718686532124
81.3497455802215
81.8307656213017
82.0270212653049
81.9581869604012
82.0561484914196
82.037864370079
82.1008084099192
82.3253078265397
82.4663316094711
82.4347826674724
82.5201441054774
82.650708248572
82.7844446258554
82.92673275763
83.1566960737905
83.259965295798
83.1362702041238
83.0370656090895
83.1801680278822
83.3183299702075
83.5129473962414
83.6393867279349
83.6273449788705
83.4989355704171
83.5424574670113
83.7107260747852
83.9010202094626
83.9223570130091
83.8571614486501
83.8499065131673
83.9562411143843
83.9414667997198
83.8987100423392
83.9046266778561
83.9555919890452
83.9053032284509
83.8530592958859
83.816226755786
83.9369833700652
84.0623013431409
84.1853151338098
84.2325033076002
84.2373369573616
84.1835101452056
84.2512703900773
84.3522390941691
84.46893769547
84.5481085439737
84.6187555153396
84.6939424684088
84.8446979322381
84.9265009932518
85.0406113792538
85.0483535602487
85.1269673183204
85.2550403732336
85.3588458095829
85.5047081745773
85.6524998227972
85.6123310423254
85.7185496952726
85.9065452933849
85.9818607703427
86.0967590052322
86.3597531427809
86.3625270248914
86.2738203450962
86.3361710721595
86.4432006334784
86.4099441286033
86.5271909110184
86.7401126271964
86.87105146735
86.9057323821627
87.0499385931967
87.1183427665188
87.1209295978584
87.1525821194872
87.2804505650051
87.3767291575151
87.5176274731243
87.6713679627227
87.7793639458254
87.8199575942531
87.8968176013654
87.9120242307648
88.0303212499009
88.1469807054478
88.2580348616939
88.2869070358537
88.3381998115116
88.5023791505565
88.7183587359066
88.8256102838185
88.9068079604866
88.9264649968778
88.9443351663507
88.8862914106956
89.0228624716808
89.2155261539074
89.3368794894863
89.4081687540379
89.5427654109702
89.5960823511834
89.6253069770866
89.723523901049
89.7990938187586
89.8057528275106
89.9644137525315
90.033963698876
90.0685430118815
90.1256366188215
90.2474003056863
90.3724992741508
90.4962278058512
90.5107983086267
90.5299670466713
90.5933945334847
90.6889451667228
90.712918172472
90.7714036492028
90.8289023367943
90.9356308711145
91.0351684709975
91.1164421526687
91.1492784645813
91.2723136412322
91.3281262899546
91.268191869498
91.2646879243814
91.439639670387
91.4966675205629
91.4903137904758
91.5539819959964
91.6804261434031
91.7664131719646
91.939756257625
92.0344247613891
92.0029654623672
91.9524421941134
92.0044069699411
92.0628205506745
92.151628793132
92.1825786514539
92.1773499714499
92.2328039633073
92.3373629124654
92.3225925553502
92.3822232337112
92.4629647047909
92.5636160845955
92.5968517054517
92.6220660787254
92.6114857186297
92.6710545467486
92.7690612613362
92.7991468418272
92.76606181778
92.8182316863177
92.8377732000234
92.8556245449267
92.9059243243633
93.0046797361397
93.0399679483819
93.0709278871501
93.1057558046302
93.1610174356563
93.1688885553347
93.2254170411966
93.2812286604246
93.2976618371955
93.2968553982769
93.3465782338279
93.3841591370905
93.4121322030312
93.4103245391956
93.4680268268698
93.4778530668602
93.5389230015017
93.6122301475978
93.6499811097159
93.616151308475
93.5730835738268
93.5906679139173
93.7278805460086
93.7183183703722
93.6855107167527
93.7272194906958
93.7829903853355
93.8206328061453
93.9025679459194
93.9018782382193
93.9099183372989
93.9501578648682
93.9217348686947
93.8922466207409
93.9718186975293
93.9997448037439
94.0456073740677
94.0251111507155
94.0121075389251
94.0996793222599
94.1618989993557
94.1341508673203
94.1494444588251
94.185154663028
94.2093777616161
94.1885087439222
94.2659914865269
94.3074443226185
94.3133589936138
94.3490509369971
94.3789313777916
94.3415767031306
94.4186533240581
94.4322521685676
94.3788136288654
94.4129891837612
94.4894592153264
94.4395363893175
94.4767761159502
94.5498057434959
94.6132011405712
94.5682151053766
94.471004781319
94.4804994091551
94.5901030242931
94.6450620541275
94.6651286957241
94.6115235378024
94.6358110460383
94.6885350165937
94.7335516004951
94.722438279062
94.6933700503654
94.6961622248747
94.7660384714455
94.7774149615123
94.7724429162906
94.8330310707138
94.8255602401349
94.7540993926492
94.7792113696295
94.8144924897728
94.8732922218398
94.9358812869107
94.9373306746994
94.9033258793898
94.9423202199806
94.9819511948049
95.0230970146528
94.9949772658933
94.957157348176
94.9646131535383
94.9774748326633
94.9794560306906
95.0253359769001
95.0596737707614
95.0374266202882
94.9844064215174
95.0333155058177
95.1017089144112
95.1084087006666
95.0943468578694
95.1124711162668
95.0985407764088
95.1374505896609
95.1478869570823
95.1220169076808
95.1064525013237
95.1530735551607
95.1958549018359
95.2277698286044
95.2142320553905
95.1661270897022
95.1140053013959
95.1355540622532
95.1861367142522
95.2397481362162
95.2447290369839
95.273656744489
95.2707648655959
95.2569628134972
95.271439046519
95.2866910704668
95.2732899121023
95.2690777264636
95.2547416157536
95.28108887629
95.308152057014
95.3175666515247
95.275637828796
95.3346800545842
95.3943069091364
95.400104489692
95.3397527041826
95.3193390151797
95.3666613887004
95.3977329731241
95.3836039268767
95.3671400260796
95.3556228331244
95.3847274117
95.4011728098352
95.3973760845154
95.3873971335752
95.4044496637416
95.4222553439369
95.3739283825822
95.3421577044642
95.4188843401077
95.4501069643418
95.4446173544176
95.4892103488528
95.523468264009
95.4967771022372
95.4809018808895
95.4505634038339
95.432629841371
95.4477493231105
95.4556632600402
95.4253510421855
95.450623794686
95.4731534517316
95.4912470771002
95.4830359677704
95.4566695129837
95.4669796440235
95.483504378945
95.4735522211947
95.516739657594
95.5446224882252
95.5330108012558
95.5273233656875
95.5311259765831
95.5372512739444
95.5694924356955
95.5156160682598
95.5037913104588
95.5432826786447
95.5543488237477
95.5429168093987
95.515362530453
95.5303977032184
95.5709985208467
95.5531196278699
95.5617961056122
95.5653449249895
95.5416788671893
95.5094515954588
95.5307638118191
95.5185076492454
95.5015964478759
95.5154235994356
95.5492792302804
95.5667928473284
95.5628418845066
95.588132966034
95.6109371910619
95.5623436934444
95.5366478827638
95.5766844626098
95.6066138495669
95.5798269678587
95.648030582894
95.6904242996373
95.6792570311764
95.59969493372
95.5755183152156
95.5857473475045
95.6263523888693
95.7031615300166
95.7558125708952
95.7646060853965
95.7217266025869
95.7041208683951
95.7754369615179
95.7760473479496
95.7252649373325
95.7126932093951
95.7795111451779
95.786816021824
95.7536015459512
95.7763498604342
95.8063493928652
95.786165763901
95.8094012973991
95.7708299758691
95.7907693540501
95.8716629725317
95.9003859929788
95.8886628828559
95.8836760317855
95.8572563901532
95.8690086130058
95.9474443614733
95.9180224333808
95.8359738325785
95.9158934839385
95.970698378027
96.0065346531426
95.9676668656254
95.8688414399735
95.9290195075135
95.968890125858
95.8927545833483
95.9234009395975
95.9341901159589
95.9032823757121
95.980298978372
96.0413853845204
96.0729053821703
96.1208104804193
96.0927198659689
96.0993930116128
96.0817440258329
95.9945607110321
95.9340717576127
95.9373644496932
96.0061719631688
96.0593781003095
96.0726704954582
96.0953680273034
96.014398444246
96.0120711856273
96.0116112107706
96.0607254823399
96.08796282235
96.0632894198035
96.1028764439667
96.0773367847006
95.9986553637371
95.9960146976972
95.9239022610243
95.949709571408
95.934335385744
95.9226494316584
95.9906715220597
95.9972168515251
95.9666828501346
96.0258337595103
96.0478819261288
95.9988600409933
95.9767071083172
96.0630907602784
96.0293251447641
96.007850121682
96.0728475524414
96.036173607687
95.9439540041755
95.9544278885583
96.0234187713098
95.9466788223821
95.9258058030626
96.019037485934
96.1054383267308
96.0588927373982
95.9407694720936
95.9505197211118
96.0009564403926
95.9274581738622
95.8150715598304
95.8228249171648
95.9486774298541
96.0571232539441
95.9886662079391
95.9094600406962
95.9517632488338
95.9443534101107
95.9816741694196
96.0327738073554
96.0399630551159
95.9887022372249
95.9030167520423
95.9352997679993
95.9537422264482
95.9436829901068
95.9828532375835
95.9781673620841
95.9172971228114
95.9243268065681
95.9367323395937
95.9274347074223
95.9809393497053
95.9598416605976
95.8831030848206
95.8915589469112
95.942035649883
95.8663856246265
95.8046459037783
95.8167015120126
95.8731003833475
95.9773565691025
95.9346322847309
95.8624709897623
95.7639527721216
95.7374637471118
95.7552806987724
95.7086348187577
95.723526552639
95.7560619528147
95.7688056501565
95.7409772003403
95.7085351590885
95.7462567843076
95.8611668813393
95.9242658127949
95.8740428397549
95.9054808377032
95.9305070831079
95.8754119792659
95.8467198284011
95.887215334027
95.9106960675174
95.7428993628689
95.6261629095755
95.6471221200594
95.6909238449608
95.6485562543564
95.575552432255
95.5502819542551
95.5630719601469
95.5682055904211
95.5329573155013
95.5054954410916
95.5067440327518
95.4727112325766
95.5419813814524
95.6320650414872
95.5623569797959
95.3717092054581
95.1828931938134
95.1649482379914
95.2305467021851
95.3034168296481
95.3172291481296
95.2894147889247
95.2989663441456
95.3492849351682
95.338527498248
95.3449659027596
95.3422740503716
95.2863085641004
95.2424192547909
95.2968369476283
95.428125406495
95.5342370194417
95.4985763276755
95.3860727620668
95.4248071795477
95.544489229397
95.5033623491804
95.5709998958041
95.6456473242091
95.5237237587441
95.4100641966562
95.5147870373004
95.6552728429118
95.6415294284473
95.6695024604198
95.7673959245815
95.8698208742147
95.9440517836113
95.8861406380363
95.7144446420127
95.7781938880611
95.8743729886017
96.0196463457554
96.2623047955426
96.2305553536434
96.0892708555732
96.1588563353905
96.2242658146801
96.1230898189911
96.1236300112857
96.1526950950637
96.130331334331
96.0474724911643
96.0233936342518
96.116088119721
96.4841184045993
96.6930562737416
96.6415843934881
96.5364634570039
96.6960159519617
96.6242576175666
96.4267505853318
96.5989343585404
96.8608003332408
96.7305401631985
96.7861357243309
97.0112214109815
96.9233079236338
96.7948938760241
96.8376621236719
97.122462621357
97.2445467914488
97.079811029489
96.9662367447293
96.890325601383
96.9104685173907
96.9920143060449
97.2373794076916
97.5334909402586
97.3772532201387
97.1622198363694
97.3486761268397
97.319129571192
97.2542374379702
97.3014318890716
97.6048593503774
97.720451043249
97.5101227120892
97.3255495398032
97.3913610003332
98.0223561065732
98.3584922631663
98.0490712922489
98.0226946090357
98.6601216912888
98.7654407556951
98.813123321903
98.6602555972222
97.9495972934103
97.5276269023767
97.2782225403146
97.0599842298962
97.050946142189
97.2366095962194
97.1969066963981
97.0274002895138
96.9486006973182
96.7096691188535
96.4617619318786
96.4250394009653
96.4955828020703
96.4610271624679
96.1734989509431
96.0352286669339
96.2249573088297
96.1593378100762
96.008218664558
96.0652333349223
96.0647644164119
95.9752831802043
95.7729756103745
95.7836983284056
95.8716884240217
95.8515601735243
95.8322395744852
95.8421877711299
95.80219604242
95.8259842302603
95.8244577685023
95.8442021595321
95.9631801379741
96.0109131010258
96.0028764729637
96.168805017675
96.1370870826829
95.9379003167101
95.9980340159835
96.0301580818798
95.8485405617843
95.9698344765945
96.1213139758239
96.1755081800926
96.2993434760723
96.3607952261513
96.2801063143122
96.2064122090447
96.3260023496895
96.6661509419064
96.7199517844866
96.5341764667968
96.5097562548521
96.6252602243472
96.7112624322997
96.7874710536347
96.7479080260543
96.9887538148036
97.2097900984594
97.4899823600024
97.8026265323556
97.7111400114448
97.3799828099412
97.5661192127282
97.9861130366383
98.0546250846746
97.9023875574077
97.8626378267484
97.9204382974354
97.7752514433428
97.5668729150731
97.4977087829336
97.4635302058516
97.9104235640928
98.0200301905248
97.8691005765678
97.2855890970341
97.1117626941697
97.5768528596256
97.8530465388205
97.7521461431923
97.7564636301943
97.5259813732264
97.3403098853116
97.1420568532401
97.172645199205
97.2277442648436
97.4521046827886
97.4346606654369
97.3569533784706
97.5505733604183
97.5659001902706
97.647206798214
97.8903265800359
97.8997204669611
98.0359853770683
97.9296266247914
97.8632515090847
97.8014692301558
97.5620409309681
97.3093429694063
97.4806711924417
97.5705385304888
97.5199206023417
97.3487113800132
97.1732831789254
97.0538303245946
96.8523012334694
96.6856792838318
96.6740535088879
96.7823949109468
96.8230375442765
96.8903132227429
96.9011671142993
96.8179593836235
96.7916611199547
96.5706344513551
96.4046427671114
96.4395472432846
96.4314195605745
96.3963109151246
96.3921750054908
96.2357061241355
96.2214692533853
96.2904074271685
96.1300446155942
96.1084921149651
96.179524086109
96.1179715421083
96.1336504322707
96.1524840066212
96.0081481392934
95.9271330483318
96.0230542122137
96.0902915851813
96.1137699793941
96.0012276777773
95.8552929756454
95.880365043355
96.0347353501766
95.9510497968385
95.8980225496918
95.9111629183097
95.9314550347953
95.8494706082493
95.7578681774016
95.6985377615613
95.7269581421311
95.7715410355202
95.8076896366722
95.7422473795118
95.6450491236377
95.6564394479798
95.7173242687025
95.6423606856961
95.6239770797953
95.6518463847909
95.6361209139443
95.6007581895849
95.6235729955819
95.5982845049308
95.6639617391685
95.6293481974166
95.6142844987567
95.5452902208029
95.4999176450333
95.5733825967609
95.6206787350425
95.5584221143908
95.5234789524598
95.5230089245881
95.5012862710264
95.4405862190399
95.4594747687354
95.4600257451269
95.4535029576327
95.4427181696795
95.4239469849358
95.4970826685662
95.5413652220509
95.5558981898793
95.5322853197144
95.4469792584258
95.4180241660734
95.4149316417145
95.4113115873587
95.3961626782154
95.3715692319135
95.3255716559409
95.3371445048918
95.3595401898935
95.3889482203485
95.2918144736407
95.2390239216212
95.2923939957331
95.3544163664582
95.372353152409
95.3887487439295
95.3587072593977
95.3186010787352
95.3501904853609
95.3418979611197
95.3561680445019
95.2029527186368
95.1786329956192
95.2167846890699
95.2999539274622
95.3484064217294
95.2842099035096
95.2454716769205
95.2423413959991
95.1736628454726
95.1940483088048
95.2896012820971
95.2369774768046
95.1105904783219
95.043552331705
95.1254955500109
95.0979788453089
95.090285277923
95.0750024112174
95.0766307698482
95.2127309012817
95.0305569032379
94.8308229390686
94.8976833680257
94.9641087807724
95.0014805914998
94.9741408518297
94.9710755328327
94.9552725971331
94.9274500896927
94.7365427992683
94.5998746358039
94.5160586747561
94.6154602551185
94.6314131165984
94.5771898028962
94.4462643081015
94.3185786922882
94.3026909112418
94.1688950971039
93.958143314441
93.9701486106614
93.7716580425344
93.7557362536028
93.6624549551928
93.6018583174408
93.4348056952586
93.3144922276166
92.9652482335542
92.6950966095714
92.6111866959184
92.637190267375
92.4761450174805
92.1622277354298
92.0004637938037
91.8396850422632
91.5852887613058
91.3446328212375
91.315803628108
91.1727086507372
90.8466311049638
90.6206728585328
90.5073609929852
90.4062816669606
90.029833249579
89.4115590021152
89.0223185727815
88.9253832317339
88.4625942989591
87.7390681435011
87.2843805977169
86.9688079005649
86.41280198576
85.7427830468373
84.9849409667135
84.5331139440337
84.8284141322345
85.2282181323769
85.3165302119863
85.3669267469668
85.4917410663208
85.44029787807
85.3958689245877
85.325652376085
84.981630581003
84.456346982093
84.2004639902734
84.0642233014664
83.8894415526863
83.8387473821153
84.1291642864148
84.5877941877939
85.1128817185588
85.7179708637248
86.3711755275337
86.9341619870625
87.4237921391843
87.8783928844043
88.3235483416995
88.7040217753573
89.0675907455276
89.3650754194658
89.6013934440446
89.8190198662865
90.0813539062203
90.2575882765045
90.1611101284688
90.1875592589077
90.5778734050719
90.7674613025779
90.6696558575122
90.7650359606719
90.9549629361535
91.0632007545163
91.0756144235223
90.8145599927702
90.3821648358304
90.7881927659843
91.2459584468861
91.3299067356577
91.2857568861773
91.3522362127063
91.402578265763
91.4069687941089
91.330469771323
91.1367151500485
90.974923674139
91.3122987010446
91.7248964645944
91.6567080603072
91.5782741708056
91.6810218766723
91.7982483994895
91.7013817415471
91.7238496210911
91.7073002107993
91.6028239296275
91.7045688443327
91.8187727516314
91.8680940442151
91.9117682965262
92.0320223938012
92.0232912962762
91.8024163286931
91.5412155686954
91.8573433027536
92.2481948859861
92.2554667247597
92.0958251316607
91.994271738743
92.1160476691971
92.2758334164227
92.1904611290394
91.9794484836293
91.9284204181395
92.1715138499818
92.2758290923904
92.2582447680543
92.2320790765821
92.2078064237596
92.1714950405516
92.0492735257173
91.9113862501738
92.007037385693
92.1768306077685
92.188237451362
91.981451258302
91.9577262680757
92.0670173210838
92.0367375507515
91.6761603055712
91.4853259738489
91.7110300585473
91.9008202833952
91.817068190453
91.6561279067143
91.5919194336666
91.590486170996
91.5921017748481
91.5739246213527
91.5232955194282
91.3359035599028
91.2490168081224
91.3435453407108
91.3799005976112
91.2763712227435
91.2932200982643
91.3174051670197
91.2851225712195
91.2798031094731
91.2379954726672
91.1696420395705
91.2149469109644
91.4002583203989
91.456276090659
91.4480599754466
91.5086219685636
91.5550688117285
91.5578765948913
91.6073743172744
91.7466023311258
91.8108669620426
91.8099937197132
91.8037374827806
91.8800396054842
91.9906375294188
92.1671793563903
92.2125376371896
92.1674704934878
92.2313569181342
92.351059033212
92.4237394703303
92.46032030314
92.5259856692071
92.5169144430507
92.5057581646235
92.5882428915886
92.6978680100473
92.7317706135385
92.7942569786725
92.838553304111
92.8060723275748
92.8147730541806
92.919046424351
92.9812644402758
92.9954152386714
93.0228729554941
93.0541668216165
93.0745109327719
93.1026210294557
93.1360146458971
93.1583888289184
93.1798754283421
93.1678104324335
93.1060659214384
93.1189492016607
93.1737650146951
93.1894929851125
93.1948659304905
93.2037826518693
93.2181217711962
93.2099329383148
93.2135694952874
93.2291528146719
93.2138628627728
93.2197842860454
93.2790867186136
93.3139649349154
93.3210856931173
93.3501829979105
93.3814008206558
93.3766983554437
93.3713411456919
93.3734705511689
93.3543145163814
93.3496183272198
93.3623044106788
93.3634443657634
93.338828194697
93.3168338389784
93.296647319221
93.2710201584359
93.2651182141035
93.2645712991671
93.2339113766231
93.2067443778
93.1983394590111
93.1625381124643
93.1146681799654
93.0657955087767
93.0194924538202
92.9779810227807
92.9421306169189
92.9013569875519
92.844928478492
92.7907953797086
92.7285601200474
92.663502922389
92.6237583715407
92.5801266195496
92.4988198368088
92.4179976935085
92.3610659155148
92.2819161329012
92.1954047076256
92.0910192553066
91.9508632251093
91.8240425571652
91.6956004419182
91.5541242741897
91.4102610204689
91.2428972614128
91.0481129035824
90.8438821999411
90.6235468489074
90.3886076726616
90.1492368997401
89.9085208039551
89.6460901327196
89.3591123113399
89.0430646355634
88.7012025352137
88.3346002793657
87.957444396451
87.5730967935058
87.1548222875627
86.7218741594398
86.2702407106077
85.7852176209792
85.2735311443311
84.7543064927093
84.2677351366486
83.7817350544555
83.2801024566575
82.7705769923038
82.2457338427868
81.716655921251
81.1773150969514
80.6273484690562
80.1039485977332
79.6103623566084
79.1134158430161
78.6019819127169
78.1227048111935
77.678782874385
77.2063079641799
76.7237215368738
76.2629418646139
75.8130731510922
75.3772088039553
74.9357339850588
74.5212596806077
74.1141111778336
73.6755284148242
73.2538432785352
72.8491691882198
72.4385532062419
72.0294112682214
71.6150510871486
71.2171016824999
70.8477033282033
70.4659054405739
70.1058935277822
69.8388135055444
69.645603139261
69.5099495712351
69.4030619693369
69.2838664985057
69.1635010783101
69.0532655362138
68.9316741048497
68.8303383401889
68.7703356527688
68.6961922795981
68.6098727754501
68.5485556648856
68.4851928244877
68.4511039743805
68.4443634746614
68.4659110789686
68.5514092387475
68.6920055964879
68.9127947230644
69.2547272832854
69.6912484673895
70.1358237538956
70.586568243175
71.1127842683443
71.6738696431119
72.2191873033003
72.7337275108966
73.2188715172195
73.7129984338006
74.2306133366214
74.7498227721198
75.2727447354134
75.8059962292505
76.369972023496
76.9505558050318
77.5257903337024
78.1058113269239
78.6941481005857
79.2820372201695
79.8441321525386
80.3626444641812
80.8776403889207
81.3758525177722
81.8454627950528
82.3064445670133
82.7356898690831
83.1110522290675
83.4272688565277
83.7043909808568
83.9959223836745
84.2701378476918
84.5108110283929
84.737364643279
84.9414172833794
85.1192550167857
85.2853692806178
85.4280746607677
85.5660641369819
85.7075578909179
85.8118671345691
85.8958459091352
86.0178560465693
86.1282808298066
86.1927123922156
86.2441820688232
86.2812157448001
86.3352803878733
86.4159278755361
86.4678353366948
86.5164985306124
86.5750273748677
86.645797326156
86.637057603639
86.3931436284524
86.0874843748602
86.203888612816
86.7068528535305
87.182694404651
87.5118254487895
87.7594943760334
87.9533201303841
88.1108452848222
88.2592082668249
88.4234402507591
88.5873624144083
88.7162398542735
88.8376939303767
88.9902527185066
89.1124304346143
89.1962815688206
89.2855510845689
89.3784792551431
89.4832005454267
89.5673845300605
89.6300514012507
89.7206576454913
89.8094781043121
89.8765849906483
89.9393721739093
90.0090966562286
90.0874106922696
90.1544595480892
90.1756200936048
90.2114508233047
90.2880635352017
90.3474374394477
90.398681767105
90.4687827891247
90.5008070831038
90.5108702517654
90.5280065091734
90.5711311107087
90.6109997597309
90.6477659030124
90.695984187614
90.744813796856
90.7622072928725
90.7902045887775
90.8238232576018
90.8559000994103
90.905123547913
90.9211925504426
90.9097055982406
90.9475623370714
90.9816884402036
90.9690283792556
90.9830519244731
91.0262588379911
91.0350581913475
91.0508659317917
91.0677888999607
91.0823705807286
91.090224639957
91.0824847297517
91.070720459936
91.0838650732794
91.0921897363605
91.0574016045825
91.0086254913315
90.9838725095313
90.939295437025
90.9009429777319
90.9134431310164
90.9319549921792
90.9129659152521
90.8575469985547
90.8150497708639
90.7969502413384
90.786107494735
90.7903206284976
90.7715203781747
90.7755867674678
90.7756213304214
90.7579922235165
90.7648181983996
90.7898717052393
90.7986969083852
90.8234765616322
90.8417917842864
90.8142146878555
90.8133567229301
90.8287717901086
90.8090637763548
90.8254710945458
90.7807590780693
90.7160218798989
90.7093338270586
90.7089570101875
90.6980194724073
90.678282259811
90.6436397044958
90.6069596923041
90.5637541779889
90.5109514468801
90.4418120720157
90.4182796924439
90.4186066670348
90.3675312652696
90.3018333862024
90.2995659592304
90.2331354224409
90.1570557389772
90.1226129973831
90.093150692566
90.058361877277
90.0091079400283
89.9545299011661
89.9237832187347
89.8756643694508
89.7957236304711
89.7057281741964
89.6274364262083
89.5575738501917
89.499043501796
89.455636095967
89.4094827229693
89.3335954153458
89.2369775374102
89.1745452078915
89.1402411232426
89.054956384703
88.9402387481262
88.8739561136232
88.8204122509549
88.6856765894465
88.6070710938183
88.5339927961303
88.4083448195753
88.3118220584033
88.2208577515133
88.0863402241687
87.9892404198961
87.9115355404929
87.8408630015471
87.7091608743229
87.5369794012313
87.3681511060177
87.2260227481944
87.1187833073917
87.0099308335445
86.8848667921187
86.7593053415503
86.6205624621031
86.4696019912579
86.2999471943673
86.1749634158869
86.0404137562734
85.8894802814392
85.7069751763612
85.5020712685373
85.3359879511906
85.2050079553901
85.0473972959313
84.8938259536266
84.7651146708451
84.6596215488107
84.4711919276011
84.2536368695516
84.1034427455378
83.988931550863
83.837576963577
83.6613016765112
83.4784720915264
83.3026828615036
83.0954770530966
82.9136204460131
82.6645237272089
82.4207306504613
82.1153029435079
81.7408986646642
81.3911240308816
81.188205414977
80.8857489332425
80.314219141956
79.8579372616174
79.4887438802334
79.1098529676786
78.7588818055935
78.4687177696521
78.2692649016118
78.1060100731877
