1798
3999.43349933624
650.420452594757
1
128
4
95.7604191270866
95.6361833241148
95.702994399817
95.700765881956
95.7393140189018
95.6217121059271
95.6773202046985
95.6698577880761
95.6879180593427
95.6286431476034
95.7042895142404
95.6554318937005
95.8531465557172
95.8574720601511
95.8421653653637
95.7077916429103
95.7180165268482
95.6612456671019
95.6846393585527
95.5728733640327
95.6262445714282
95.6157497481399
95.7594093107279
95.7391769552076
95.6626920437784
95.4611525270632
95.6295498916669
95.7055410993619
95.6051565365819
95.4333361123217
95.4996787899434
95.5227537349104
95.7044814615127
95.5827052791089
95.5661816015501
95.6018090380229
95.6494168170273
95.4382143228175
95.4723966941327
95.5601321717711
95.7009354041664
95.6082261964704
95.5580069798348
95.4498652924688
95.5551392441361
95.4090124710002
95.5432941588159
95.6650604483698
95.8114253624078
95.7253469422975
95.7123712077239
95.3832374151591
95.1492104018543
95.0334974963701
95.1548877477964
95.2763775681598
95.4211037334077
95.5164173196986
95.7094815471539
95.4969096813857
95.5366840852896
95.2684263837222
95.2155304233968
95.3602152816144
95.4394493816374
95.3569836977988
95.5393016049456
95.4526761783695
95.5136005064179
95.6072008655432
95.3121790976127
95.2160215381128
95.3123415838704
95.3522233211932
95.5457834573151
95.5535780539987
95.5664048624577
95.5073245020742
95.5278079333824
95.1371825939855
95.2118939056098
95.2359308892322
95.4890092944824
95.5307958414059
95.4501178186809
95.2418825217816
95.4068461248948
95.4194365209578
95.4400645610621
95.3922240248176
95.5581362956232
95.6262991944594
95.83764408601
95.5782450040116
95.4432816487856
95.3827670706684
95.3257365350672
95.3866564162218
95.6700925729476
95.6091904546505
95.7884972188033
95.6751903234659
95.8037658654689
95.7124909856683
95.6001047747807
95.6362992428292
95.6139710778103
95.4195853536211
95.6007768895173
95.5240867281903
95.6920567306752
95.8023697540225
96.0144396773016
95.9459425936568
95.9880790452119
95.9315667823353
95.941420390456
95.8903202073692
95.8028666375404
95.7499598112716
95.9502616611904
95.8440973603934
95.9184350510999
95.8547014461396
95.8743418336159
95.8145515339096
95.7724556852964
95.656708334571
95.6782491657442
95.6186574973372
95.6911586898867
95.6754510200101
95.811324907247
95.5620023425109
95.241828906856
94.8466763887274
95.1298091798242
95.0812362604231
95.3636490283278
95.3068924360419
95.3893657954088
95.2245385318006
95.2183781757274
95.2182773261943
95.4069359186016
95.6586153439558
95.7893607580584
95.7182399407735
95.7560794643353
95.4952959917679
95.6665770439234
95.818702062909
95.8671194477038
95.7768085516779
95.8627756271185
95.7098867298725
95.6746817189112
95.6404740079151
95.8016212755018
95.8750204963135
95.972887365348
95.9790874175933
96.1286976945325
96.0596747824914
96.1032794077996
95.7203593009538
95.4686334949551
95.3611179997901
95.5909343114183
95.7333951576513
95.9193532852229
95.8507946199017
95.7838717679543
95.7439861887984
95.4301251919738
95.3229263295063
95.5210969385004
95.4786180775459
95.6312283067263
95.6744172231471
95.9357619805499
96.0052448570327
95.9607303175954
95.848133134216
95.8764407214921
95.6519796037571
95.6052442640237
95.24899649808
95.0853689126541
94.9513430199203
95.2276156944285
95.4649685298405
95.6724232476278
95.699226251548
95.7237978074383
95.6307626737391
95.6615571535756
95.6482377757825
95.5028536991346
94.9520279384856
94.9425009805175
94.9667050178903
95.2990140702413
95.2084167023073
95.0208041421158
95.0205320878456
95.0499835866595
94.890861177659
94.9915496350961
94.8434387529345
94.8665548939838
94.9257084917039
95.0492003982971
94.9489264684266
95.0371793415012
94.8739996572717
94.7627746917092
94.6025131990414
94.57065818778
94.5114347436162
94.0841092240874
93.8278811624833
94.1714030641513
94.025700528154
94.0853139845295
94.327164179235
94.617614470255
94.6017473155719
94.5964083219543
94.3870281103333
94.340493628533
94.1939256416218
93.9975138571945
93.8464614033838
94.3984656338724
94.3952289259957
93.7320393991075
93.40167490804
93.2408650153508
93.0940711680285
93.6372019395449
93.6711520380408
93.6921978258021
93.6370186454625
93.6752482020362
93.3269261453245
93.6712054428725
93.9392965723804
93.7275734003318
93.5066577520372
93.7348745792801
93.5349768984568
93.2104674116237
92.9214043484374
93.2582048554922
93.3238823619457
92.9219661313649
92.6381873236209
92.8457157647804
92.748462344445
92.7322234774373
92.6535245097611
92.4874095053076
92.6525189771654
92.8791392746417
92.9052574648235
92.8879099855551
92.5520129555392
92.3821722474581
92.284598075704
92.6538939707179
92.8784705919764
92.660919589534
92.4231636601693
92.5288020414532
92.4954474017544
92.4333431901961
92.0949979262355
92.2112199821848
92.2691580763514
92.2356803979349
92.2961818030274
92.3059412063174
91.8468964738996
91.8285418774991
91.9628796497947
91.9147744218954
91.9500908851501
91.9900082552106
91.7962408768686
91.9260458509847
91.9173936582899
91.7500608251759
91.6732601912727
91.6821280320843
91.3233994847858
91.2626410724074
91.2795952890515
91.3238301056058
91.2088772311312
91.2324096652205
91.1979133217471
91.1294422517601
90.9364406353756
90.8653495868019
90.8045209141825
90.8439580528963
90.7625183607551
90.6268051171882
90.4589222581508
90.5459079997745
90.5060373002392
90.555403676971
90.5300246065999
90.463140745703
90.2588007447341
90.2760656690432
90.1860305482968
90.1209985698094
89.9810789623121
89.9767888519338
89.9286172327975
89.9132629491033
89.8094280308253
89.8382858078829
89.7661675818312
89.8069947456095
89.693331972985
89.5756817930939
89.5748804794844
89.7106351988872
89.580785884592
89.5421271837227
89.4815165046099
89.6058798692351
89.56243708277
89.4930454135876
89.4626612702189
89.4547045478729
89.4143114983622
89.4412340363648
89.3555865955523
89.5013986489785
89.5673147858379
89.5728002204021
89.503492034552
89.5746211141439
89.5807752670774
89.5564848601774
89.4526372671811
89.52645372902
89.575172345723
89.6335936637163
89.6004860071876
89.6449176310029
89.553543539219
89.5688375341302
89.6098099451961
89.6319948224091
89.6004578409606
89.7350004476217
89.8067510657638
90.0156715118439
90.1044992085072
90.0383129490472
89.8787391559951
89.940710400559
89.9756883998567
90.049185232992
90.0569286096107
90.0735316883119
90.0969712225909
90.2598840615828
90.3133280338669
90.3388511880207
90.2487481989573
90.3929803524485
90.444601559292
90.5231986495311
90.5360197633429
90.4857610984135
90.4326230737942
90.5526338742201
90.5682428169163
90.6405368204842
90.6213169964272
90.6148147022375
90.6871120004122
90.8357523278373
90.8437721467592
90.8930320453457
90.8584536016598
90.8685601519542
90.8831204673719
90.9739619113251
90.9494447130625
90.9545212147937
90.8145032831212
90.8361318329789
90.8691702909111
90.9119004433399
90.8884042428851
90.9207353507751
90.8379762004072
90.8972620967239
90.913577041311
90.8750715116327
90.8524386239415
90.9829043512362
91.0083740621912
91.0027227442352
91.0138305369883
91.0569317535789
90.9850925087673
91.0978281403139
91.1713871926518
91.1553775591851
91.1086798919995
91.2037013233889
91.2612916411167
91.3435043174004
91.3794992114955
91.4697971788896
91.3984701139835
91.4410758461487
91.4607879307128
91.6315406363354
91.7219850554144
91.7042069727089
91.6878774804759
91.8173463413968
91.7995332554394
91.8418028514818
91.8287152672677
91.8647068717778
91.9506554914377
91.9361361256438
91.8979860357156
91.9665012218267
92.0074948321805
92.1172600725645
92.1581244567288
92.2851431317547
92.275352782455
92.2017550391757
92.2275203242224
92.3371329596831
92.381091588176
92.4634395637003
92.4316674617332
92.4956334653678
92.5925030959825
92.670212878799
92.6526688263121
92.6697088150329
92.6372780728253
92.7072714834577
92.6913017623991
92.7244758177337
92.793896474821
92.8995877510053
92.9209041778412
92.9705152604325
93.0194212376524
92.993780062373
92.9427096717109
93.0588153104815
93.0970879031059
93.0518272926686
92.9995677462801
93.1461759511863
93.2532205691842
93.271039755603
93.2182954851711
93.3033176160105
93.3287868856266
93.3356746600537
93.341809440751
93.4122565556252
93.4617084375216
93.5770713098426
93.522494697488
93.4028993428241
93.4288299147451
93.5547972645446
93.5508018275737
93.5854941427394
93.5726164943646
93.6106599029689
93.6558703486942
93.7686317014175
93.8216253334748
93.8011954714269
93.7366514524996
93.7630341989487
93.8617250210065
93.9614180229928
93.9982724965221
94.0190807497204
93.9434023521853
93.9666808548431
94.0435259853248
94.0400883661811
94.0349847173399
94.0669208961453
94.1051146904576
94.192888451541
94.1511190529875
94.146815697468
94.1259540301689
94.1778610459893
94.2020298726791
94.2620415210634
94.2520023172696
94.2982476364385
94.2881859717755
94.2385213584643
94.2429682904001
94.3234066663238
94.3306927520737
94.37023954518
94.3789248358693
94.3537400481425
94.3370476990567
94.4405843933031
94.5122968873636
94.5384693815671
94.4878584911561
94.4956223138422
94.456341310022
94.4555035178885
94.5910843115944
94.6253152661791
94.5010697242344
94.5692643531639
94.6750154278159
94.6448414137484
94.5725003274686
94.6029926553692
94.6377924105306
94.692675663829
94.7066822732509
94.6504842132407
94.6858060059261
94.77708779415
94.770371249955
94.8337343240513
94.8339060921767
94.7967877032248
94.7705732451257
94.7891535406955
94.8227054113945
94.8242346646677
94.7882061476313
94.8259476686011
94.8122720251489
94.7528358696746
94.7572912553727
94.8148864263474
94.8319097626297
94.8177644297762
94.8128739876141
94.9311156187529
94.966960601097
94.9618663217206
94.8850325464435
94.9074394411749
94.8853145009043
94.8828645350575
94.8945927312952
94.9149180097277
94.8950618255164
94.9667486013063
94.9863739314421
94.9958735875527
95.0117337527756
95.0777009333453
95.0303663248747
94.9141107382946
94.9265463776092
95.0012710875844
95.0153646112607
95.0259503274099
95.0231909238369
95.1263922533787
95.1113779481758
95.0748537683973
95.1099908094866
95.1624278047336
95.1224168757115
95.0977066411078
95.1066386003209
95.1015725888737
95.1103963884179
95.1416916777311
95.1230067252221
95.1246622878697
95.1431986686263
95.1504712073414
95.1622471338389
95.2327027887621
95.240701982506
95.1868128953301
95.1680843719306
95.1865648336108
95.2353811369775
95.2618885056943
95.2942971427731
95.3249027842584
95.3024845333896
95.2673932357613
95.2446248644726
95.2728035621829
95.2860450691889
95.2818240100651
95.3283461869154
95.3582080452923
95.3104905566423
95.2730546977464
95.3079276346079
95.3793779584583
95.3805260646705
95.3507536053186
95.3897479093876
95.4265659736805
95.3760909589026
95.3384267729226
95.3396436079346
95.3607727009359
95.3548242130725
95.3264443711656
95.3231442532217
95.4250684712513
95.4719522685417
95.4450757161723
95.4054575477038
95.4201293117367
95.4208780806003
95.432137388241
95.4777075759937
95.4934332921378
95.4593274453772
95.4316363299225
95.4335034622021
95.4118653755355
95.4165782747609
95.4475877538616
95.4390895677872
95.4469024480647
95.4377255204087
95.4403108544931
95.4439641918465
95.423847801498
95.4812215484975
95.502622592032
95.4423963191025
95.4761152587094
95.5615811560047
95.5499329815463
95.4927012929763
95.5121401060592
95.5446037132493
95.4795354821635
95.4739242629821
95.5068585373278
95.5097705031577
95.5522230346326
95.5699985842344
95.5628052777289
95.5607494804806
95.5798133076629
95.547960263887
95.5552628554782
95.5767460881989
95.5544073168995
95.5013276290672
95.5243782365982
95.5619638939742
95.5578064454723
95.5157211405664
95.5135233646893
95.5259906588244
95.5415206586031
95.5637531797537
95.5735293012723
95.5790563311656
95.5602156831883
95.5835677038539
95.6117121724255
95.6218184677151
95.6148317811099
95.6043180236471
95.6182677699998
95.6092544217166
95.5708720766869
95.5898669378086
95.6368295249406
95.6132061340407
95.5545034005505
95.5896965211136
95.595283785504
95.5639066372157
95.5650171914081
95.6071897534218
95.6056384065728
95.6071634359313
95.5911732980159
95.5935552219486
95.6191430932492
95.6350873171698
95.6359015848684
95.6093311515959
95.6368165118785
95.6541152296773
95.6225217871883
95.6557368828119
95.6759132950157
95.6235978075024
95.5873693801082
95.5914528254266
95.6023100403711
95.6216004329347
95.6223993736572
95.619390689973
95.6264173663769
95.6522097163983
95.652886040319
95.6153331465839
95.627261010889
95.6425586949424
95.6351028685347
95.6224108489683
95.6248610028702
95.682641386957
95.6755748237463
95.6203077867932
95.6795433751372
95.767151443456
95.7901179476516
95.720319228369
95.706393968488
95.7408381389865
95.7344915728488
95.7314599286157
95.7964176828732
95.762078160243
95.7041805483706
95.7847351509342
95.8279209820206
95.8010766203903
95.7580730762582
95.7654166607699
95.8250657179662
95.8510667811201
95.813197423527
95.8119889651749
95.8635831989578
95.8984946405476
95.8806750508083
95.9166751477775
95.8879763332053
95.8446711856718
95.8365228073122
95.7832787221303
95.8217400368171
95.9630873248036
95.9429381272302
95.8607838961229
95.8601239274807
95.882867329865
95.9487061369685
95.9310782395805
95.9078749115265
95.9788406398139
95.9913044380898
95.9224043192496
95.9173557432955
95.9804859364599
95.9892160517801
95.9848143267344
96.0317040743955
95.9839919286484
95.907102790932
95.939879740412
96.0083119767029
95.9617888571899
95.9297718155668
95.9729047403757
96.0390729188363
96.1348324002595
96.066764993299
95.870391279056
95.8502894061368
95.9182422804066
95.9974841717361
96.03699525606
95.9802780721906
95.935063670399
95.942194435613
96.0003963198624
96.0429159110757
96.0495766248438
96.0501272083604
96.0847744207085
96.0597884909437
96.0030570267641
95.9560458015108
95.9336283671059
95.8739534484196
95.9399925834624
96.0291622939298
96.0205392171925
95.9852050175996
95.9351122812572
95.8920091501583
95.8944100844037
95.977364487043
95.9790775369098
95.9267711274837
96.0364498797969
96.0971466292648
96.0978081127383
96.0504012361451
95.9613527962211
95.9625586061145
96.0054374273906
96.0372261470872
96.0351401541935
95.9577906360631
95.9467180381293
95.9595968974848
95.9683856243194
95.957575271986
95.9427233585759
95.921079556998
96.012422277865
96.0265575283251
96.0088578028203
96.0532501936085
96.0678048504926
96.0028338871503
95.9952356577957
95.9002674249451
95.8612958433435
95.9385352295849
96.0394108559589
96.0775372586096
96.1001462995601
95.9933976526326
95.9366308843202
95.9389446266202
95.9160926908083
95.9583403197342
96.0168935734208
96.0328975262154
96.0074190754886
95.9915051845635
95.899791390729
95.8680912543874
95.9042801216773
95.8964026832582
95.8737127617859
95.8491641267316
95.8483232782623
95.8773994445417
95.8858458039263
95.8944795810991
95.8852411335156
95.8201172294759
95.8505497537859
95.9305861727517
95.9551326480371
96.0012421914789
96.0015235332225
95.9997276613618
96.1414286036409
96.1682350390152
96.2132302135876
96.2496857925211
96.2652585961329
96.2967040742102
96.1970998976315
96.053715949671
95.9772637962563
95.9569430090111
95.8541659177445
95.8528918455661
96.0105770795795
96.0834261125798
96.1235640880525
96.1010155585765
96.0240286490213
95.9932327681557
95.9794806708144
95.9276624349227
95.9693806379829
96.0228992196433
95.9282208246431
95.7287053935562
95.6844704335616
95.7059581423284
95.7679821859048
95.7047663951281
95.6043864848634
95.5911885500898
95.6606228657294
95.618714275138
95.5847365888654
95.6488369175775
95.6144211788689
95.5220005656793
95.5761979502655
95.6886976172536
95.713882387474
95.7196785933145
95.7035347504109
95.734221081013
95.7220650591411
95.6900319527029
95.7243394225376
95.8192132047158
95.862432251443
95.8286590994046
95.8158518199999
95.7954419915075
95.9643062826989
96.120271012512
96.1199046795852
96.223252156777
96.2152075643669
96.0644419162247
96.1017668513402
96.0675044621748
96.0454530357264
96.2177577387234
96.3283463215446
96.1377039345944
96.016900997377
96.1943187579115
96.3499677086112
96.232430195357
96.2339811716261
96.3205295449002
96.2520572807346
96.3169851457995
96.3730262625595
96.3487567510295
96.4390944983636
96.3074862223336
96.2210923476363
96.3844408014461
96.6193912438904
96.4740493254563
96.5566413302484
96.6347972400295
96.6561867906971
96.723866341835
96.7456558421204
96.6288445334082
96.8174146037711
96.8968759642822
96.5760646217244
96.8006048793311
96.9802539906466
96.7030316155247
96.5982438835929
96.7098656758401
96.9626747667826
97.0400732139257
97.0366820498805
96.8418242788544
96.8644555272571
96.9699100397753
96.928500606333
97.1211645493331
97.3061200168431
97.0854078130728
97.0852694838281
97.3673021608609
97.4354096784964
97.2945849955506
97.492950339029
97.4369541049734
97.3782559143091
97.4381447829248
97.3693083533574
97.224162172599
97.448697072118
97.8049001664766
97.8241640720553
97.3884631293955
97.4578377401225
97.4176031784411
97.2142096556374
97.2470004006871
97.2198518952438
97.0315451921039
96.7748650038641
96.57525852261
96.6780814440848
96.6879100094425
96.6559102348808
96.7872131738972
96.8380783635635
96.6209135453215
96.3381928744315
96.204605129484
96.1494207481137
96.0933970029246
96.1616609960678
96.1992678927495
96.2953979674657
96.2564687111166
96.2212848423697
96.2123434242028
96.0649215672394
96.066796247071
96.1612529638093
96.1900220832557
96.1729814942098
96.1068060752464
96.0918656292023
96.1699580538232
96.1578253114797
96.1086579365824
96.0994971558372
96.06903529276
96.0128163635718
95.9863163702475
96.0159002822713
96.025950975283
96.0719433750021
96.2567158303486
96.3781723153045
96.4195212311636
96.3263769781203
96.2682817982239
96.2727462827898
96.2712985064617
96.4677378280912
96.326602642809
96.1649874257505
96.3176700277865
96.4805468141856
96.5090337755123
96.4990518496229
96.4859153594711
96.7458630098516
97.1779810641433
97.0835375474776
96.8276594409091
96.9407424213858
97.1986554177881
97.3092414211002
97.2128102482147
97.1862660792807
97.2967846456218
97.6157733219406
97.6386959747313
97.7914860589987
97.754709961604
97.6513606922375
97.5679221382323
97.5451396148564
97.3428999077589
97.2505152018614
97.3239136367107
97.3604594692367
97.2370122051115
97.2258574851779
97.4479962632566
97.5550371028606
97.3201996703827
97.0676792580305
97.1875730777212
97.1543364409183
96.8161428582711
96.9351566172344
97.1194162060119
96.8765119935295
96.781103680279
97.2818573329794
97.3389710816159
97.1398062543693
97.1578845983902
97.3386773890355
97.3220446687802
97.3025484008878
97.4217357103592
97.4475341087962
97.2998165540421
97.2131957254955
97.0405094237211
96.9686874995303
97.0073547563397
97.255545572933
97.3531344078577
96.9979621565691
96.6544378219883
96.7654132014861
96.9501403402184
96.8165781761787
96.6005136126968
96.5787003350339
96.5461937153906
96.4176864109316
96.4416019253481
96.4702147239697
96.4907857190191
96.3779314702868
96.2833422834259
96.3034061622904
96.3411192808709
96.2097549161748
96.1441459054587
96.0220227584942
96.1143353898629
96.1724036700867
96.133557620789
96.1890304374318
96.1261371829694
96.0701674844618
96.0442491949289
96.0831512438181
96.0912285208629
96.1173092133081
96.2025308190943
96.183238706538
96.0352765516466
96.0146183423063
96.0700915435693
96.0617759061112
95.9670800792363
95.9238905849581
96.0156588614763
96.0072100794009
95.9756298871799
95.9348432867089
95.9120776450211
95.9428827436124
96.0179523949655
95.9505928026819
95.7388562899221
95.5191595197952
95.5099449296195
95.760386378594
95.861881953877
95.8131819417444
95.8032724629147
95.826295417783
95.8173074443184
95.828614922691
95.9112770600588
95.9046546289074
95.8102567141826
95.5172927493167
95.5513097990831
95.5160131265524
95.6490558063426
95.7159018219885
95.7475617616547
95.8603770536573
95.8236713977892
95.591247883213
95.5656473876748
95.4414454645583
95.5362124333324
95.5329429706717
95.6990577175213
95.7838725446812
95.7281261620827
95.7731726690377
95.783031746549
95.6968785375157
95.5842227859377
95.5845235810157
95.7180245116731
95.7792561225569
95.6860668337468
95.4903178149584
95.4096613629531
95.4726113609906
95.5253893159682
95.3514958626708
95.2930007126958
95.3187845980218
95.623497092903
95.6759215879834
95.6318236041045
95.4885302214212
95.5445496228
95.5370890577056
95.6025978080777
95.4998364059974
95.2808361886993
95.1941021547785
95.0286045399946
95.4190796439315
95.4856098521268
95.5644536847882
95.4857938452063
95.3902938758558
95.374773439531
95.5709138797332
95.4478083957291
95.4192089422849
95.1398969372116
94.892233564183
95.0422577929056
95.1574081689935
95.2393107789449
95.1140196356411
95.2478249958635
95.3722321976827
95.1253511481611
95.0434579215713
94.6068579834835
95.0263249951146
95.2246632768681
95.3797582748523
95.4767348710088
95.5216271234098
95.3761846171213
95.1405920662418
94.7363828540237
94.4658712255853
94.8366898345464
95.0651143549409
95.2563708102624
95.1151727834881
94.9976024559716
94.9984233565298
94.6612226256543
94.7278934365308
94.0912811482163
94.0907407631801
94.4823481023134
94.4499114220921
94.8744437344693
94.7027257721007
94.5092833842564
94.0814665435235
93.7918630328006
93.3837100917308
94.1316847114499
94.0727563951581
94.073758353459
93.9177719194781
93.6403531698493
93.5630028043813
93.4023777860019
93.4807145534688
93.5645457303482
93.3388532935754
93.0756184698316
93.1447775207159
93.2645865396043
92.7053654990298
92.1178287975483
91.4589459831394
91.4672832184587
91.4994967487619
90.8433346096518
90.6262852676718
90.8961644952785
90.8384358957321
90.4556577561066
89.8543022380017
89.422564481415
89.5016880605146
90.1744398545086
90.3292205507099
90.3870284289287
90.3609940024812
90.4422702302441
90.4691293516226
90.6174691008931
90.6799343772713
90.5421483172031
90.4957329248854
90.8687628036503
91.0860669573773
91.1087520791784
91.3537091659736
91.5521536206578
91.8187975584737
91.997376430152
92.2663823016916
92.4545115083051
92.63622556603
92.6966923810799
92.8710382485326
92.9792610126226
93.0962404143998
93.1730103256401
93.3354543601786
93.3483794233458
93.5179562386333
93.4574949483059
93.247615467896
93.050701000056
93.1998414145778
93.4383799209049
93.3227205400626
93.1437475997316
93.4079989806699
93.7075907939467
93.4997048968431
93.1559140135311
92.3999081389963
92.0990034418343
92.9885936597447
93.2494670937124
93.2320225546637
93.497901081744
93.3952156130242
93.5938308208103
93.2325881831025
92.7193397445473
92.326051074461
92.6386550206115
93.2247386819388
93.4671313112808
93.2223412444654
93.3373098173399
93.7160814567442
93.4818774783141
93.3222227278374
93.0744461916505
93.0931503779293
92.7391341583118
93.0171903593688
93.1117430099166
93.2452510583642
93.7095761860258
93.4813323774333
92.9498655433848
92.3733694002437
92.6727814590402
93.6857839017967
93.9736905740285
93.7505644018207
93.5829088934774
93.6804155732597
93.8936664143686
93.9871282871989
93.5997272464485
93.3231986186327
93.7023825517556
93.9228805918976
94.0900078328508
94.1243500293952
94.0982808109844
94.0199688860351
93.5787031644317
93.3551553130226
93.3207806066627
93.7752119050105
94.0806585393574
93.832136417058
93.7795755185552
93.9209860109265
93.9540557159248
93.2634421680062
92.7924437353649
92.9477336413891
93.7032958782415
93.6914194974343
93.7239777624571
93.6164198970725
93.6885196068275
93.8024545866953
93.8753910271183
93.7543372499999
93.574283396751
93.2210263980744
93.301694882081
93.6079786247412
93.4694342130438
93.4867348584881
93.5602213416853
93.6129571598297
93.4696838625096
93.4171113547777
93.2332392083376
92.9536838084362
93.4311401025315
93.6556676153217
93.7203707390674
93.7411831445397
93.790238413955
93.7583922508458
93.6974172175711
93.7510465014946
93.8739618599429
93.6801382114082
93.4874254150908
93.5935380984116
93.657350041005
94.0091970911935
94.0491761925834
93.9247799556347
93.9064710792326
94.1885618494043
94.2808623810663
94.2499488627797
94.2654585012025
94.1932396123896
94.1221681339078
94.0427545104198
94.2657433868109
94.3575141457264
94.4047335376068
94.4802777161455
94.3376474590772
94.0900215505843
94.3028181155677
94.5313663621294
94.6001940640417
94.6146858933866
94.6515926287903
94.6579947951046
94.6679048556248
94.7030203133759
94.7738671669612
94.7548992764237
94.6232203831145
94.3551052901612
94.3722938210886
94.6048020484396
94.7449501124341
94.7907316174777
94.8104840522689
94.8045081090813
94.7817802541608
94.79464972898
94.812696943568
94.7895913415825
94.7624798118815
94.7771659032551
94.7912629807695
94.7883887012348
94.8428130246185
94.8896418522769
94.897440375809
94.9201515508185
94.9507396235148
94.9484727843294
94.9615961867894
94.9579838436633
94.9473835214298
94.9337245530607
94.941542463374
94.9196569641975
94.8821340463462
94.8627281915072
94.8931641649463
94.8868484246243
94.8666378334232
94.8476271534352
94.8389143138374
94.8174359419844
94.8062676967827
94.7850146756739
94.7307352264264
94.6793358238344
94.6416351397618
94.6052547285361
94.5829914525352
94.5345820566789
94.4918049337255
94.4707737596082
94.4386157701321
94.3644304972778
94.2871420652459
94.2054283243693
94.1332712678627
94.0399710853225
93.9246968041825
93.8126773288165
93.7370573737369
93.6140079547113
93.4687421479325
93.3278199929442
93.1690973331606
92.985932300052
92.8262539446562
92.6490823479009
92.4487499400352
92.2377243415387
92.0543704705184
91.8351909025584
91.5828164532256
91.3320956331346
91.0913535815653
90.80012207032
90.4957002611824
90.1735307139216
89.8400795950134
89.4952061111148
89.1531454378016
88.8062153533289
88.4453007693359
88.0845844083217
87.7691743019817
87.4319852388316
87.1023115688935
86.7858493477933
86.4409575873005
86.051972203958
85.6996264689021
85.393853064357
85.1100596918954
84.7882839300352
84.4627264604048
84.1412765260725
83.831457223867
83.5381865144288
83.2678389706944
82.9786844681596
82.7044544279599
82.4396316070009
82.1806591638458
81.9370058165494
81.7164233752484
81.4839438648326
81.2514555856114
81.013272615788
80.782206658229
80.5504328791935
80.3366470901772
80.1213908046571
79.8914967299657
79.6401409042493
79.4394116179787
79.3103434074497
79.2336316654728
79.1915506517861
79.226827697369
79.2874142986705
79.3281072481266
79.3310300987435
79.3475845463359
79.3862029267754
79.4430721744192
79.4498994944898
79.4448201800464
79.4614205225782
79.4891631119569
79.4965665483048
79.5409168336948
79.6046909257376
79.6832186795151
79.7724134999072
79.9112524629473
80.0861669273594
80.305564741025
80.5782651030969
80.9209928282175
81.2644736363012
81.6226285360679
82.0060694475874
82.3780340091888
82.6904949618125
82.9870078686421
83.3199085656323
83.6945226380311
84.0191258445147
84.3775082529176
84.7598683110026
85.1035672486533
85.4471489007472
85.8451084505118
86.1963907779441
86.5112261225924
86.8720503819011
87.2537216770644
87.5817222317352
87.8955876087036
88.2011935269811
88.4823015097127
88.7216385876493
88.9567962972644
89.168582696106
89.3479946288777
89.49914022651
89.6378012985947
89.7365886605731
89.8456526600605
89.9813634309352
90.1132697533698
90.2094515995195
90.2885038897386
90.3500288775821
90.4187523721297
90.4814428883816
90.5575143089033
90.6084713349629
90.6447604185886
90.677999257441
90.712264836789
90.7398311972175
90.7731539138354
90.7930072386638
90.8108710546257
90.8388222222889
90.91518715187
90.9800257961928
91.0240399174347
91.0169555533608
90.886848252118
90.720366644609
90.8185705176211
91.1266282986541
91.4061025269669
91.5806629622809
91.7284620573045
91.8502349215754
91.9644644676608
92.0554651418121
92.1450899194675
92.2378148350322
92.3287040827462
92.403797692025
92.4704373521659
92.5164593516659
92.574170837269
92.6373315795104
92.7356444908929
92.7938021618159
92.8315949688541
92.8774024209107
92.9254027459925
92.9567125843326
93.0057279395654
93.0484660985574
93.0822424629709
93.1276921231921
93.169194312344
93.1991967080527
93.2546992507721
93.2890584029907
93.2878076249229
93.2871816620618
93.3317038138096
93.3740613778763
93.3857848831123
93.3665479387125
93.380360244135
93.4502887049112
93.5059572098489
93.493602799172
93.5119658028266
93.5339771089079
93.5710546596668
93.5696338455281
93.5658885934597
93.6187725741326
93.6426822267554
93.6112330613075
93.6466259351262
93.6794479474125
93.699112754735
93.7167885753864
93.7349819201912
93.7519046660086
93.7703750540204
93.7630284948872
93.7520801892551
93.7433030275356
93.74796534084
93.7585703052903
93.8028921541
93.7903304234026
93.736156668923
93.6775706797487
93.6558933379021
93.6993182293208
93.7255045214201
93.6536473013425
93.6208346718165
93.6384298514063
93.6361327963629
93.6290229405404
93.6431524684559
93.676235336408
93.6626146121589
93.6139002956191
93.6098187857724
93.6088187394741
93.616476405431
93.6175494257097
93.6343706739307
93.6559975559659
93.685919686087
93.6713980120133
93.6965489542444
93.7478114104781
93.7831569348441
93.7575360981961
93.7148962481559
93.6704158352467
93.676242732946
93.6679663522867
93.6754304567381
93.7154036102214
93.7402788066312
93.6592029335718
93.6064622571385
93.6293009552446
93.6297351762636
93.5936201695278
93.5588269471333
93.529404826384
93.5071922014204
93.4412643320914
93.4337285016125
93.4707879765673
93.4893138020973
93.4680969610898
93.4906376400836
93.4486929985035
93.4081836104372
93.3840177698083
93.3633212714243
93.3697245577356
93.3453237577421
93.2723351072324
93.2512466507043
93.2658679490828
93.2488363452708
93.1867758275959
93.1525980599105
93.1215901610612
93.1111413878884
93.0370765723641
92.9976708083754
92.9676874767026
92.9466040264345
92.9493397440689
92.9375796973988
92.9090471352357
92.8480981350426
92.7182824965573
92.6833095889777
92.6920228318214
92.6564926674755
92.581725697122
92.522356732262
92.4176295636074
92.3977337892108
92.4240965657104
92.3906951667464
92.2737630489129
92.2109795591094
92.1393441972936
92.0771423914427
92.0075306443208
91.9732431178415
91.8408051910278
91.7301332915959
91.6876907791445
91.6194353299775
91.5054450308189
91.4921423465887
91.457740578801
91.3485819845007
91.19456715122
91.1163591132116
91.0697082371975
91.0489321197497
90.9589538515748
90.8311594856022
90.7220979338377
90.6796179075633
90.58201644652
90.4537565135459
90.3336824249888
90.311292272228
90.1944177774117
90.0542505231124
89.8571114040719
89.6672432509013
89.5140408115368
89.4244668670458
89.1626793871059
88.9157374556997
88.5079557638314
88.2869939965158
88.2292352214828
87.8114500192167
87.5599199819249
87.2549526381365
87.0422359683557
86.8686523958189
86.7489715797402
86.5701880304497
86.4362668986227
