1798
3999.43349933624
650.420452594757
1
128
4
97.5531935901757
97.551492740158
97.515102305349
97.3764288950995
97.3798776004029
97.5285163046123
97.6017009468783
97.4950444082087
97.394606574249
97.4010140705923
97.3862994758137
97.4784524058472
97.6259226285712
97.5978918564602
97.5031189983066
97.5284957655359
97.5233413933345
97.5244312212416
97.5326264036807
97.5028929750335
97.4695963992533
97.4655379950618
97.4535230839155
97.4657519595818
97.4929357802928
97.5430371298208
97.6166357229136
97.4648408168318
97.4536501521595
97.4631571456275
97.3409040662249
97.3904662025916
97.4564454808913
97.5134435061475
97.5824253372189
97.6849093480423
97.6026970214893
97.4467685072896
97.4631892895542
97.5047122452479
97.5381702381328
97.6515133478161
97.6259504386749
97.5013752932312
97.3469465416119
97.2983461465283
97.4047558803345
97.5698935643234
97.7334765703255
97.8863766316802
97.9726663694834
97.8158400392222
97.436782966726
97.1818248358973
97.2079986234007
97.3599212360337
97.4435432299832
97.4899268503304
97.5740011951127
97.614264722851
97.6536442301613
97.6922845914906
97.5387854503612
97.3987032955486
97.3118912964276
97.4207220817054
97.5971178004975
97.7184406687979
97.7710296075719
97.6351216609652
97.3622884392543
97.4373986493266
97.5604029578258
97.3649412475269
97.3332024681311
97.6880931031631
98.0599695861454
98.0843750338546
97.6544141995809
96.9640349663389
96.8387194994458
97.2575160995164
97.7047082636686
97.8732244577996
97.9220133374745
97.8269303415253
97.4854570316784
97.312345274504
97.1447901994346
97.0886156513991
97.2813893001161
97.4848707125554
97.6793454931757
97.9050606310102
98.0181723018528
98.0099847239201
97.7206342945875
97.4264871921956
97.2779349696005
97.192724662916
97.2183366039584
97.4944589676762
97.7556431439406
97.922492958259
97.7438293949204
97.53639977153
97.6364580190812
97.4736913318855
97.2199419374594
97.2693563164178
97.4986042428275
97.7624109074251
97.9180794645826
97.9525894458503
97.6559980370963
97.5673428062737
97.5865506533614
97.575599440604
97.5154393009672
97.5677381846283
97.5970098702745
97.5992656792546
97.5838645905566
97.6130538063758
97.5980561692893
97.4475458534301
97.7018950972404
97.8305069430513
97.4911982997761
97.3649225698447
97.557124046695
97.9365835334693
98.166065769407
98.0225423185816
97.8622362522026
98.1524832185499
97.6466205804701
96.7604042734776
97.187632005656
97.5807401803721
97.5683412516208
97.509966028663
97.1592095736078
97.4065096513978
97.6418412057255
97.3982243705267
97.3009371984309
97.6080604975481
97.6635512868026
97.6025554835214
97.8001081140396
98.012924691976
97.9820044529027
97.8730521684743
97.6510081290397
97.345893302633
97.1499996263348
97.0245225757266
97.1762938957129
97.7531866123795
97.8655306194828
97.5268072012792
97.6188393787387
97.8863130581633
98.0900967991607
97.9397402002056
97.4393809006526
97.0252167642851
97.0923390530995
97.2914424561036
97.7339941579562
98.081086836749
98.0343521887225
97.9710367653678
97.6327863680818
97.2964774262518
97.1461541598068
96.8689116470314
96.8030236315841
97.0728510761314
97.2962315973724
97.360145941785
97.4575698404493
97.4493652488538
97.4916393997859
97.5589641829138
97.7075188614262
97.6420676690197
96.98633784323
96.5013887916762
96.5703406925516
96.6600047881404
96.7276617202275
96.89867947686
97.0319351886637
97.0991238338608
97.0588458165176
96.9976774093376
96.7073973900115
96.130819372626
95.8966467362849
96.1646824991441
96.5093330444824
96.6193474085731
96.2932257155427
96.0048277518244
95.9740775875759
95.8605422083619
95.7294661451305
95.6150306766642
95.446404957355
95.2537605736248
95.2796679272689
95.3372652340894
95.0990671820006
94.8374576253408
94.7664566370963
94.695774227336
94.6599826957172
94.7080533185933
94.6297892441959
94.1802524010446
93.8079505151244
93.7680739311646
93.7992744630666
93.7650861246596
93.6999587906692
93.4982144226416
93.4280302584318
93.5447897353089
93.6405783395639
93.5179383523304
93.0612840628176
92.5950198194918
92.3582336511078
92.2958677877877
92.3768376670457
92.3376672007155
92.1560266552189
92.0919964852518
92.0399529319184
91.9266637403182
91.7427408307171
91.5185921486761
91.4349433339561
91.3430280535393
91.2184805353296
91.0961485487114
91.0207131879216
90.949452157377
90.897304981129
90.7477042616179
90.5072655609734
90.3234997003796
90.3307296444566
90.2320961315951
90.0823669642182
90.0713110966893
89.9444841440491
89.8165344231463
89.732853763164
89.6141088913241
89.571203827605
89.5019878165086
89.4948350579397
89.4669290407438
89.3005804875288
89.1064206422996
89.0992460174486
89.246215743643
89.2610565226628
89.1477626618184
89.0527087373828
89.0388070211938
89.0568638477018
89.0554592357387
89.1411583260466
89.0803445091056
88.9699641681785
88.940809527229
88.8960817893016
88.8782582101729
88.8803912634923
88.8081978569157
88.7248291307857
88.7171237015583
88.6711218050116
88.4777419495655
88.4582613916028
88.390573096178
88.3431703685642
88.2691085431318
88.0873724692632
88.0900182128363
88.1498380622424
88.0089498660117
87.898844632003
87.8796042550713
87.8563910756815
87.6775901540595
87.4860595183072
87.380290296692
87.3566223025401
87.2245327914827
87.0809998449872
86.9795357810129
86.8889491541243
86.8559969079575
86.7348755019801
86.5979466794898
86.4968548754728
86.3477115423803
86.1691348533166
86.0933929333298
85.9433986561229
85.7460345430319
85.6548384444358
85.5712196589668
85.4787024365923
85.2481023849847
85.078329547652
84.9353351929087
84.7566116553274
84.699775828632
84.644098138628
84.4794968666879
84.2868826141166
84.1602204377412
84.1535164906834
84.0511152180577
83.8999115125616
83.8005903746847
83.7145701115555
83.6008025501812
83.522856128129
83.4387375333463
83.3458328016721
83.2374666312606
83.148699892951
83.1183478238941
83.0900333835153
83.0218869192181
82.9750626571797
82.9340678257122
82.9043020170868
82.8548310889926
82.8285775004831
82.7304174753905
82.6645751028592
82.6144479918564
82.6608130030882
82.6726568979088
82.6828814932954
82.6656699916324
82.704628164351
82.7647769339523
82.8542142577296
82.8870829748591
82.9768851537542
83.1074962146555
83.1842934110296
83.1793208833502
83.3187883233373
83.4799742351162
83.5679506697971
83.5912096802397
83.7202340044805
83.9080676315708
84.0852319996364
84.1714258412829
84.2796584488205
84.3907816709633
84.5307688765786
84.6367111287656
84.7539882326785
84.9148957652159
85.1089813281003
85.2041881504267
85.3149941520797
85.4398305760026
85.4915731142865
85.5379062435494
85.6620466436298
85.7859597232263
85.9178757920882
86.0297751541908
86.1631185686792
86.3307563495303
86.4748678029052
86.5002677063682
86.5850168313853
86.6976213314631
86.7625618337369
86.7608713066836
86.8341145209117
86.9256062212442
86.9849453622043
86.9985838226601
86.9737974986947
87.0230300363289
87.198001809752
87.2020402975935
87.0884752309566
87.0558809656765
87.1668002449035
87.2814536598935
87.2310803553484
87.1781615233135
87.1883148433191
87.2347283018443
87.28972613228
87.3386780754984
87.4137516139188
87.4535932497619
87.5143688737574
87.6296357414123
87.8052572495925
87.9334066704972
88.0030127292711
88.0671825811674
88.1666205880112
88.2872900859304
88.3446525248002
88.4900953205116
88.6447557831304
88.6562063554372
88.7483279740565
88.9117018037312
89.0292713991476
89.0692676049732
89.1761043477267
89.2783950349859
89.3768381970112
89.4765562438777
89.4656425003409
89.4686330781747
89.5411701857438
89.6351376113249
89.8247366789663
89.9685660845453
89.8924458883786
89.8510789663079
89.9996276359075
90.1130169412487
90.178210776928
90.2716719711328
90.3313279165165
90.3393313040608
90.4555106893574
90.614143515554
90.6868921621495
90.6670814571333
90.7630001417632
90.8398187460621
90.8466229524783
90.9331954136263
91.107564451842
91.2142982803212
91.2141196734687
91.2225969155484
91.3098685350312
91.4776553511237
91.5929278631294
91.6001803853538
91.6705727040527
91.790718686674
91.8399684341168
91.8853544250977
91.943015769665
91.992931378233
92.0934035484322
92.2027713912045
92.2246379698329
92.3043203929436
92.4628665572367
92.5026202453183
92.4430898336144
92.5151327435331
92.5686356318662
92.5815352427293
92.6940906134986
92.8279085571244
92.8559848945069
92.8356846006469
92.8925962479561
92.9064885009781
92.9235561886163
93.0272048725374
93.1065198925439
93.1146804053698
93.1943268118041
93.3354864058992
93.3793591804043
93.4039736768098
93.4824666970128
93.4943046348505
93.4827857739057
93.5018362181118
93.5523249164006
93.6522501683722
93.645893529735
93.598873549649
93.647058336827
93.7412854220546
93.7765462642926
93.7793329762654
93.8030690206068
93.8378445114264
93.8896667898681
93.9328363502338
94.0026359224594
94.1081780082086
94.09953157547
94.0916894761032
94.1407444161324
94.1829968615523
94.2382625131294
94.2103232784707
94.2101142934257
94.2555884321173
94.2674743470242
94.2748652499198
94.3327839945564
94.4367059183867
94.4519127377345
94.4656047367504
94.5153266943563
94.5201466292575
94.511016108691
94.4888888033492
94.5402088543725
94.6634074095248
94.6326919043594
94.6225183291535
94.6869400350609
94.6434765963079
94.6683546070457
94.7308228813165
94.7269130565638
94.7899908847679
94.8270760396291
94.7887619214328
94.8237950660592
94.8191361319979
94.8012311995712
94.874778573778
94.9229867529089
94.9409164992731
94.9285641798976
94.8937919394876
94.955061554796
95.008652672834
94.9972309675448
95.0250894182865
95.1323216188147
95.1900170727813
95.1169067423151
95.0579941045973
95.116860790671
95.171485947003
95.154429456257
95.1560565751869
95.2014478685495
95.2169193367373
95.2325911264352
95.226261587655
95.1726388103976
95.1565973389817
95.2410510403211
95.3578138917899
95.3702689053791
95.3251379447312
95.2774628353023
95.3075404554915
95.3505201087288
95.3257862752875
95.3371043980316
95.3740554474776
95.4030140229935
95.5121184434148
95.5447396681475
95.5295516671626
95.5060728768527
95.4302608206358
95.4331574445115
95.4958885360152
95.5021669467874
95.4737731600478
95.450966307964
95.4746143552854
95.5323399367975
95.5816987336023
95.6155290772926
95.6389842621455
95.6224306319823
95.6307124646933
95.620228430982
95.5754358236775
95.5384241210536
95.5605098856885
95.6046691236911
95.67969190293
95.6916918753557
95.6266316747824
95.6071617860963
95.6509425106021
95.6743739785485
95.6591867148123
95.7034393044678
95.7756085548744
95.778291660702
95.8067475814939
95.8020008091396
95.7750549426256
95.7537453381608
95.7147141566
95.7039397555605
95.7605938988347
95.7966151290856
95.7784844922997
95.7766241180802
95.7509552265837
95.7417477114815
95.8057144881625
95.878293590811
95.8847220993365
95.8493590976089
95.8563249405738
95.8780266856969
95.9169654770507
95.8619054290714
95.8049778779954
95.8562296350598
95.9147906824845
95.8924647238868
95.8674716574594
95.8509578562575
95.8858871188614
95.8854040330435
95.8513258591138
95.8627295167807
95.9013087373647
95.9438326555795
95.9590631065498
95.9269976548564
95.9634163110634
95.9972825189612
95.9786433756566
95.9273890632433
95.9462778660407
95.9959136602643
95.9854759095545
95.9508441199928
95.9803409472929
96.0193844441555
96.0293339771812
96.0175266232923
96.0091937888664
95.9839122626366
95.9903169068435
96.0200603686286
96.0289002469107
96.017224387064
96.0105603352707
96.0220856711184
96.0434336530787
96.0248119272358
96.0246643016162
96.0487624091631
96.0663209602329
96.0658283825157
96.1028042935926
96.0942475366509
96.0746966769833
96.0568163192718
96.02950312255
96.0408458599661
96.0669711460474
96.0841199593897
96.1435207073527
96.1335433701845
96.120055541702
96.1307402797819
96.1814241760877
96.1935436323576
96.1482440041754
96.1045548148144
96.1057247305553
96.1286736987291
96.1183149450364
96.1013918621331
96.152582236682
96.1841518463999
96.1287687087518
96.09932380724
96.1513066018653
96.2016098512449
96.1827068618649
96.0981419962374
96.124949002522
96.2161535245898
96.1855192618659
96.1243295155045
96.1623145241487
96.1845989306493
96.1667797641621
96.1380188397974
96.1479252363284
96.199163102314
96.1865097834364
96.1361818852535
96.1582462166396
96.2113643020763
96.2339551765994
96.2020151918831
96.1387386125201
96.1463550825639
96.2100608269053
96.199954393257
96.1295396469381
96.0880425914181
96.149404594415
96.193346449313
96.1976869725629
96.1964022932794
96.1739943211774
96.1736805904287
96.1887614071405
96.1811149892073
96.1728702265612
96.1624692979124
96.1795457482926
96.1835098692529
96.1375864832819
96.1807962143069
96.2663041097249
96.2523086181868
96.2257878587225
96.2514257094484
96.3429826194629
96.3670898674822
96.3126913199661
96.2951763770051
96.2825771352802
96.2755155596099
96.2741086414852
96.2902234313427
96.302259329902
96.2648969251711
96.2764959831211
96.3028926868568
96.3475199347442
96.374174440657
96.3720057731733
96.3942690250149
96.3764665408594
96.3503480964606
96.3612227737462
96.3842002650615
96.3919765796285
96.4011256284381
96.450451755058
96.5275747330042
96.5521584887935
96.5249252411374
96.5092061085342
96.4515641680747
96.4376639730891
96.496214326985
96.5233609206103
96.5175044143563
96.5241310858256
96.5206880032034
96.4988320667798
96.487748081861
96.487565282768
96.4685680525699
96.4740468068948
96.4748364836303
96.487328526079
96.5360243763682
96.5891295033885
96.5928892147392
96.5815323265919
96.5622231440748
96.5881111810339
96.6336272230636
96.6381004726733
96.5604340590124
96.4765413675825
96.4929702262832
96.6114447998647
96.643781764018
96.6208529831387
96.5696918809421
96.5549164886859
96.5804627269968
96.5939169536606
96.6183171870699
96.6497836247653
96.56799670709
96.4796296634564
96.4918996237904
96.5379445697733
96.5731390739064
96.5935061211458
96.570352118851
96.6403381024754
96.6792890912207
96.6302848018232
96.6212677479939
96.6083157495931
96.5989236579445
96.6277704074226
96.577824135493
96.5178649859077
96.5863100539457
96.5956584835642
96.541781365985
96.5769985673518
96.5818141854054
96.599808886312
96.632339631923
96.6772943032799
96.6480467336133
96.5719127034813
96.5873064927147
96.6093929502098
96.5244810430159
96.5043398730424
96.5541916322736
96.5982622672072
96.5728012753012
96.6135456580493
96.6706298900177
96.6308967618194
96.5531526174452
96.4860940361206
96.5345488961736
96.6260026010624
96.5906149186178
96.5303426648297
96.6161060444931
96.6643131555382
96.6033870088921
96.6308055831248
96.6511872102268
96.5817776442768
96.550751095492
96.5934111532585
96.601482568466
96.5373990541892
96.4863229454218
96.5200434620248
96.5337841619381
96.5626706180584
96.6150798872159
96.5980628252653
96.5643175997016
96.5666664928253
96.5217947381596
96.4756707567739
96.4464451825019
96.4720495859702
96.5199696755097
96.5240745698292
96.4829865745777
96.5020680755282
96.5663686308802
96.5997924454978
96.6523493820114
96.7123551619815
96.7022837358415
96.7418656261467
96.803253975506
96.6978825022497
96.6076732183243
96.6772261111412
96.6549907402141
96.5398109837374
96.4383927179685
96.4111516706059
96.3766955838824
96.3103588127188
96.2820274717279
96.3471325080462
96.4796081037077
96.5860005756168
96.5828018157671
96.5184864493454
96.4115157866685
96.3157375130701
96.3095577560798
96.3143142957358
96.2805132458446
96.2581793616602
96.2481690783203
96.2864873009763
96.2628796514618
96.1795808817876
96.1060902923473
96.1052147485348
96.1185526640878
96.1114456163014
96.0647851165463
96.0419617643477
96.0441081247096
96.0525599517715
96.081742296618
96.15895018336
96.194693724529
96.130163466779
96.0548278470722
96.129472406872
96.1734995364832
96.1008747022091
96.0995509556956
96.1558432755147
96.1678054776014
96.1536716468942
96.1067772625061
96.0655585334639
96.1205098440602
96.2477921676184
96.2922905076762
96.3143240972531
96.392944757216
96.4315907720977
96.3329455078806
96.2919623297622
96.413877233595
96.4602791324415
96.455139522638
96.5874895809713
96.5601060338188
96.4912478485689
96.5612112206245
96.7037231625625
96.6929673286141
96.6311320804888
96.6775720391339
96.6769204559688
96.7655728264814
96.88913048626
96.7905444938059
96.6428487967713
96.6317587386622
96.7722451848213
96.792558772708
96.8232005131938
96.993779872477
96.9736843108281
96.7914713329585
96.8762530182398
97.0543490302974
97.0621740756457
96.8942319944568
96.9046625158687
97.1138353360693
97.2573657861315
97.1390064143363
96.8680281346913
96.8833755819848
97.1620240580085
97.1777802275946
97.1275791124081
97.1449216981373
97.2134685680755
97.4069491282825
97.4689445548564
97.3957338261878
97.5581017807565
97.6867817847713
97.7165042967677
97.6258523408575
97.5942065167637
97.6364046546167
97.8096122518181
97.7636029073443
97.6207488600354
97.7343034491216
97.8192268374134
97.8343531452968
97.8777167858756
97.9103019779875
98.0296896624716
98.1731004175622
98.6037686859448
98.5227819734543
98.1941462690993
97.8977177825014
97.4808504121819
97.5483472757288
97.9636710660872
97.9367899728875
97.5920005082892
97.3015907028267
97.2034436940254
97.1662089372861
97.1252303131099
97.1743047937488
97.1699362304887
97.0001416037277
96.8631955002711
96.8055866642414
96.8097408832196
96.7260434786738
96.5812598865908
96.5790760074184
96.7947775455516
96.8224129352324
96.7145345666793
96.6948671775636
96.6732079493197
96.5782554072451
96.5372104438702
96.5079569409648
96.5952988579112
96.7529091482769
96.6682199225957
96.4828725042898
96.5068331073399
96.621261855131
96.7316964598324
96.7933986685764
96.7479456160465
96.7508200373787
96.7418024330497
96.6354619672556
96.7563956702652
96.7891868663219
96.7604844080146
96.7613266761797
96.6179780980437
96.6444517191686
96.809369052493
96.9100386998906
97.003257743074
97.0337135146036
97.0568568125691
96.9403780959161
96.8999786937806
96.9829225171014
97.093674657779
97.0888759759655
97.1056699962359
97.2390670794284
97.3377757919655
97.328896145918
97.2632977481138
97.3146292345529
97.5346184925896
97.7338045984382
97.8832545089838
97.7202714261415
97.7446515553092
98.0268961897821
97.8928186656909
97.7698846627626
98.124229960968
98.1955060377301
98.0797790661507
98.1101349328415
98.0687645107645
97.8677333295991
97.8545242985139
98.0177548340522
98.2520630909269
98.2932073661747
98.1101071247053
97.7247450252551
97.5418953374108
97.5231183657407
97.4933831492684
97.5940985062171
97.822873593655
97.7872887811851
97.5901454422487
97.5404246734295
97.661892422923
97.4130079628764
97.300611142093
97.4777951037213
97.4846698959915
97.748141879747
98.1018552144569
98.0380970899789
97.9265206703219
97.852479537984
97.8666808287429
97.8212459878708
97.8501006309624
97.8011210024754
97.6850222010524
97.5605926187077
97.5893503804431
97.6259409702521
97.4410548786007
97.2515161831896
97.1931951283533
97.1882947370295
97.3631970907517
97.5114056946941
97.4036359860099
97.1758292748756
97.2039533337549
97.0910842070704
97.0409692433677
97.1246042431337
97.1149735702573
97.0810697631969
97.0870203654287
97.1281614848006
97.1509617345513
97.031021573892
96.9229728847249
96.8206725460209
96.6542797155859
96.7044123561893
96.7782916510719
96.789815177484
96.8212997943321
96.7247414392444
96.6916867223784
96.8354223090276
96.9242964930064
96.8073256914122
96.6976724229265
96.601502112291
96.6414287462553
96.725265281438
96.6895630274991
96.5369788617234
96.4643826328575
96.5128996605142
96.5331427956934
96.5554612279551
96.6098234097944
96.5585090523452
96.5351824681573
96.6105904506995
96.6673850230652
96.600674993882
96.4576873219253
96.3900251918571
96.392473940156
96.3635762374467
96.3894129340479
96.4348656943933
96.493912031931
96.4568806477968
96.444383329521
96.4232657427036
96.3852766368211
96.4505654348368
96.5321205557031
96.3662030501808
96.2197155200063
96.3015544603099
96.3364822581639
96.3805164815108
96.4452619558478
96.4734408676285
96.5452337101879
96.4200554355995
96.2536763601109
96.2384599132171
96.2320258187175
96.2909368852019
96.2793648841835
96.2530586498161
96.2733942938224
96.3301627705006
96.3699349508481
96.2912015436353
96.2341094478216
96.268443951051
96.3072968550368
96.344661961022
96.3147936071312
96.2361454429073
96.249174223733
96.3088057606439
96.3150349677547
96.2007914640311
96.1177855924433
96.2032080991809
96.270220813433
96.2913824676134
96.2737296618677
96.2391783623892
96.2274182363904
96.3452490867274
96.3995166562639
96.4043586749398
96.2079525154011
96.0708542853163
96.0984591682347
96.173904027214
96.3058868319527
96.2903872530556
96.2051420042019
96.2056144168254
96.1756265768839
96.2123138190876
96.3527264372568
96.256339435894
96.1157870282468
96.0772028870516
96.1122815503054
96.1280934939506
96.1080313292567
96.1392601558084
96.1971702575657
96.3466521909485
96.1750568060703
95.8210923574522
95.9045519449222
95.9144574200983
95.9556752071348
96.0469083815113
96.172474767337
96.2756356680459
96.3147766429534
96.0260248080328
95.7176583000783
95.6335978674368
95.7192525232186
95.8685733234771
95.952096449878
95.978110185578
95.9074569094357
95.9531487481166
95.9361527820561
95.5258800455385
95.4845158255187
95.2205921038306
95.2301274974901
95.4132202819059
95.4611315168227
95.5166602685741
95.5261496661975
95.0785757889356
94.7136743720877
94.8177005671649
94.8035883580473
94.8692115029964
94.7501756309412
94.6732967242271
94.5166951844212
94.1454737544359
94.042599673597
94.0805278969526
93.8795987779471
93.4982575318399
93.3157575612404
93.1966878202865
93.0113767865578
92.7473433736078
91.9166288173725
91.4752906978723
91.2617053421116
90.6880480506569
90.2368051104972
90.0182958183811
89.6984669730958
89.3060986130402
88.8653861589901
88.1861299746335
87.7340835672376
87.8180929970012
87.8783983474605
87.8504376531528
87.7307029870109
87.4802771668016
87.0091788094405
86.642301299383
86.2402389691917
85.5947320840578
85.046758197043
84.8540154436941
84.6641013670904
84.6879869445788
85.0375699168305
85.5848951239028
86.2780731043944
87.0520668079711
87.8355940327301
88.5518051165476
89.1971715559715
89.7663161904883
90.2875352663067
90.746642531871
91.1571882182187
91.5022897867785
91.7777108591471
92.0290828268069
92.3466811106839
92.6141094930008
92.7394545270292
92.6714905994084
92.8988530197243
93.2033381957019
93.2109830137477
93.1432600265906
93.3747290536477
93.6151131049722
93.861708847436
94.0409513834883
93.6895844494662
93.3453376285604
93.6256777895619
93.6587172295365
93.8552166266214
94.0142230499621
94.1083135404672
94.3314017405966
94.3865732270379
94.3434314021431
94.0994275125944
93.882599187101
94.1252330137384
94.3105088414958
94.2315595423097
94.3551220852175
94.5155031712222
94.5634110596629
94.612394581709
94.6614214273537
94.590338407954
94.4124940591626
94.4952009318791
94.3611778373182
94.4640632739493
94.7640594625628
94.8950068844979
94.9107279091818
94.6385160922865
94.3712383368846
94.612150830286
94.779029726232
94.8438692062601
94.8500715966819
94.8142586452151
94.9062758119412
94.9984464526217
94.8633260340068
94.7384764595592
94.7429583331941
94.7965352659427
94.888778219858
94.9281489569595
95.0294371905228
95.1297225997977
95.0568782077363
94.9051245721797
94.7184797283819
94.8405621236798
94.958945374165
94.9473417577106
94.9226371846538
95.0616362470963
95.1752042348849
95.1115655893793
94.8196693058834
94.6833691647505
94.8425240681412
94.8889942091692
94.9420661245831
94.8978169895481
94.8737025517578
94.9106335660849
94.9856386947203
95.0446877576325
95.0260373883708
94.8301730744732
94.8150007239648
94.8800579091161
94.8451130375055
94.8362761980338
94.8944015322866
94.9609811319811
94.9765367448672
95.0352178195468
94.9171584403492
94.7605971778496
94.8477742679972
94.86925629798
94.9129131915021
94.9838268056616
95.0343502033495
95.0407802505773
95.0276158906356
95.0578818860454
95.1264658546681
95.0727578182398
95.0460434729251
95.0185530169435
94.9869523554368
95.0845021304103
95.1412625676987
95.1356008179961
95.1009470828776
95.1178123228672
95.1198357634894
95.1502497326001
95.1917026317002
95.2140671210809
95.1741522534949
95.0936702635948
95.1061579092685
95.1363555156242
95.1798876101639
95.2420828723524
95.2270319923539
95.1512903143685
95.1613484501052
95.1815396340422
95.1985538732212
95.2150262553227
95.2215016960385
95.2130879658768
95.2306420074387
95.2561885618251
95.2560935355229
95.250002681204
95.2314421250727
95.1555674056338
95.1092104605475
95.1468091418818
95.207814165412
95.2164942185619
95.205042062654
95.2089306586182
95.1984069042428
95.1927875748953
95.2116640054959
95.2219117484646
95.1951639041332
95.1748009454904
95.1847899103185
95.1700536992031
95.1412362997636
95.1425327336857
95.1575940830566
95.1564143555469
95.1355334528188
95.1381843987792
95.1369337496652
95.1251777130723
95.1199801979438
95.0988163953841
95.0778524810134
95.0700400683923
95.0662355720391
95.0419568423449
95.0109299198784
94.9855092057876
94.9650720472954
94.9373451043481
94.9004684252319
94.8594856179821
94.8296789700614
94.795995129875
94.7546598373311
94.7069148442829
94.6444396764944
94.5634707718959
94.473334771206
94.4039367798768
94.337040515162
94.2556563173223
94.1640244343137
94.0679852028608
93.9611721524245
93.8453104335248
93.735792863926
93.6396845763453
93.5353395571416
93.3935495344382
93.2565512589734
93.1213248520277
92.9723275800069
92.8326301739114
92.6792429124108
92.5075828059319
92.3629582134424
92.2209837655802
92.0545758309959
91.8863872379275
91.7119073325686
91.5162539247302
91.3383357718599
91.1636595097692
90.9763506018664
90.7782705166156
90.5712280342402
90.3651674371523
90.1844933849263
89.9767579317107
89.74104911613
89.4884822694012
89.2389259778898
88.9950292311712
88.7358293184962
88.4410428786867
88.1520669515467
87.8561372278187
87.5455056889511
87.2391960193504
86.8958108306568
86.5439979092543
86.2242890447546
85.8967051555228
85.5795502062186
85.2870631476993
84.989003983451
84.6757787559197
84.3651332090242
84.0787375666604
83.8140905133575
83.5425587137103
83.2810082517895
83.0415019860499
82.7873150647106
82.5281293646625
82.2858075337443
82.042811756333
81.8339491667378
81.6304246616395
81.3980284739466
81.1603296418869
80.9521691388705
80.7653769819874
80.6157556604116
80.46582579947
80.3056368294428
80.130879998032
79.9839470541586
79.8751067632069
79.7672415508166
79.6715892590525
79.6044245821397
79.5338288996996
79.4929319850746
79.4729214565661
79.4580429645324
79.4317174101981
79.4121715999141
79.4056723489627
79.4247944568099
79.4593808051975
79.5290105599219
79.6161709225891
79.7384531702671
79.8667971134477
80.0149098500965
80.2254774613685
80.4631927400591
80.6625040598139
80.8815562785386
81.0986672688851
81.3218113162582
81.542549389639
81.7515763085347
81.9736695782823
82.2335194234846
82.5001387255662
82.7908502774514
83.1051062567012
83.4172979685017
83.7292249180883
84.0492262271595
84.3605251525812
84.6931350414053
85.0424351291602
85.4010103803166
85.7203605770584
86.0189663131943
86.3285078197602
86.653601055052
86.9568374879666
87.2078680896803
87.4382021202884
87.6797074644151
87.9202167271701
88.1045961650603
88.2342806511667
88.3792466649469
88.518435590686
88.6393711708111
88.7575125660566
88.8473425689937
88.9353585825795
89.0523444227614
89.1464532321242
89.222732760116
89.2956552511247
89.3625144420056
89.4072114909417
89.4625227434081
89.5252813256723
89.6015666130349
89.6653718990762
89.6957920557321
89.7116022123238
89.765515871359
89.8466174601401
89.9191670945378
89.9910775889131
90.0646338585823
90.1307322364777
90.2616514680982
90.4130594500368
90.5452047628241
90.6721337286821
90.7963992791499
90.9162326393733
91.0166327170922
91.0977049514609
91.1998268166469
91.3029615016229
91.3939279553458
91.5035114445254
91.6146411178098
91.6960552392523
91.7484463800668
91.8124931364242
91.9033873373994
91.9774771116085
92.0108382590806
92.0596449678853
92.1250933664801
92.1598773164754
92.2116455751435
92.2776352412864
92.2979092858935
92.3183111959286
92.3483219674841
92.3649677071453
92.4027158283162
92.4634393592015
92.5229005080296
92.5512157381843
92.5870494863192
92.6131284673178
92.6350270757313
92.6645538686924
92.668990083116
92.6571473982038
92.7122290288119
92.7610295451909
92.7513967895806
92.7839671250745
92.8178676824362
92.8190775222766
92.8354953263089
92.8582421736931
92.8797073465916
92.9072122654669
92.9125259107245
92.9324341691579
92.9608718603153
92.976492549218
93.0192875071448
93.0137275564481
93.0128974250926
93.0295775372366
93.0299513085656
93.031906459827
93.036497100386
93.0537466028727
93.0713493104005
93.0603760507592
93.0687888156868
93.0897314404047
93.0827425411653
93.0600708426179
93.0766324030767
93.0914229816583
93.0929782255158
93.0948649730215
93.0759776916969
93.0702053131348
93.0851215310635
93.0987653065959
93.102730153331
93.0990047150454
93.0910846120487
93.060426533756
93.0517751781706
93.0503381261299
93.0628589276367
93.101611860593
93.1228777585162
93.0869825632345
93.038687962556
93.0530228600023
93.0789731869781
93.0378494041015
93.0141752121511
93.0525789397945
93.059390195229
93.0067893681834
93.0017420597676
93.0210933931826
93.0118809980785
92.9808179550937
92.9584644243891
92.9417785946897
92.9187502220605
92.89626923614
92.8640885469935
92.8419804220408
92.8357961863719
92.8198458612936
92.7829624020276
92.748083146813
92.7723118265726
92.7929597717432
92.7396993974711
92.6686580394082
92.6628921849014
92.6479981233248
92.6075194512492
92.579882321296
92.5410415185043
92.481452103909
92.4252833250741
92.3775757118213
92.3596355783805
92.3745005297147
92.3776624040928
92.319788532092
92.2725611815492
92.2098857328647
92.1345215042067
92.0798234370562
92.0124879679153
91.9615275799665
91.9220883846749
91.8800633274214
91.8164287121122
91.7431137208212
91.6603110438902
91.5129057530281
91.4239261288694
91.370244519025
91.2742354985981
91.1794716924588
91.0656915109736
90.9347801408498
90.848496608603
90.7482173795714
90.6428559922288
90.5032593899567
90.3905773481091
90.2588191018351
90.1051807710193
89.9607848544463
89.7900472544051
89.632990985498
89.4925602554087
89.2982935995769
89.1462109788078
89.0090535692823
88.8338576646606
88.654001068404
88.4871781355823
88.3076653265853
88.1632964690455
88.0471999129694
87.9162473172692
87.7697380751454
87.5755527100172
87.3411737695611
87.1976392334274
87.062851365925
86.9065143205447
86.7166762612141
86.4973311303983
86.2362971689314
85.9919629475741
85.7429121903222
85.5299472225008
85.2504293991806
84.9309041030436
84.5326323330603
84.1166015357941
83.8473555169321
83.5402748553196
83.2814363996037
83.0004634161942
82.6753957836943
82.3521067393493
82.040295597782
81.8146487097137
81.5791643858451
