1798
3999.43349933624
650.420452594757
1
128
4
96.1723170237311
96.2976776912183
96.3086014904259
96.2055728352663
96.1539228969015
96.2789273024046
96.3465815721158
96.3179889917748
96.3856817582908
96.2200280794027
96.105605851223
96.1553682992482
96.2396549461349
96.3590775452808
96.2280268659002
96.0950891384378
96.2026339724826
96.3530535521019
96.2616635140391
96.2323470757365
96.3604727335654
96.2298945302533
96.0434029261198
96.2503866576293
96.3771938525325
96.1810234344897
96.1120367813395
96.2171769619437
96.2911934720079
96.2600763930487
96.3739390976997
96.4666178933709
96.3738995271277
96.4673249996078
96.4397970965009
95.9643143280005
95.6247638325578
95.7912650067086
96.3703344709887
96.5922548802112
96.281785097971
96.0433335622893
95.8995145506493
95.9653634129326
96.3004402034523
96.4494482341142
96.4294957335994
96.3315455479127
96.4740060801509
96.4905880710232
96.309871095298
96.3346414086497
96.2114453642354
96.313159988206
96.5040660953382
96.4255176159615
96.4054133512864
96.2581444636778
96.1117888941419
96.1054369334853
96.1408957529442
96.272262834587
96.3206097802179
96.4314588285974
96.5335948868995
96.3729647405365
96.3593430502874
96.4954086570504
96.4402952646097
96.4614696535453
96.4429141896839
96.240156649617
96.2009782990881
96.3748922553322
96.4569219195492
96.2880964150387
96.1257970187853
96.0743751752169
96.2293749817307
96.4741654007491
96.5556197086529
96.4326350080607
96.2792875240998
96.269509024918
96.3766269328327
96.3592983676312
96.2891425031991
96.354166902802
96.3711029043135
96.2938863299713
96.2786254508054
96.3244361800356
96.3692656846559
96.3629626175284
96.3621226508952
96.4928462774263
96.4481185293883
96.4949165522089
96.6165903264518
96.5177380787382
96.3984120796291
96.3836270443958
96.4096665647956
96.4271689457063
96.4059003211109
96.4029816443457
96.4237701653207
96.4858202777711
96.5771380964032
96.5019052582143
96.3246913251391
96.3530448498586
96.4240661216883
96.4227484182266
96.418908964784
96.4221720131254
96.4238017554143
96.4286708676982
96.4056805643546
96.4819533650236
96.5195082501952
96.4351567094749
96.4006576620003
96.454501188633
96.6330177486138
96.7248855403523
96.5473266681915
96.3782928185863
96.4717206578302
96.6645601244675
96.6605263399537
96.5438882898359
96.517911152796
96.5557722110575
96.5243329856651
96.3891960474599
96.3350606294535
96.5293401607442
96.5773555960769
96.3261620916947
95.9752584818216
95.9150580118314
96.2163634029265
96.4638516475533
96.4512116917991
96.3784332531224
96.2757468876872
96.2547529992933
96.3611678505656
96.5377164265605
96.661215632491
96.610540242992
96.4716707863948
96.3216567913169
96.2678646361444
96.3968134565336
96.4100711156947
96.2986869229349
96.2254830721958
96.3397128020752
96.5236031717827
96.550916885157
96.5211779863871
96.4351261469813
96.3094781179892
96.3765291243174
96.5169551327853
96.5433006257155
96.5684651508794
96.5141628000468
96.3143961332849
96.1889283355197
96.1914320887579
96.2689347503102
96.2177967529483
96.0313391530979
96.0517357546725
96.2557953528264
96.225019394001
96.0333628370789
95.9984577531452
96.0529412878243
96.065115119323
96.2548996683503
96.4347116565728
96.2889389922271
96.0024765402835
95.8121421836593
95.7667458104877
95.8422453417928
95.8341348045574
95.7773992590362
95.7846738540866
95.7752393182911
95.688865971097
95.6409723038889
95.5872715018136
95.4340112493939
95.3092642304312
95.3615963191143
95.3166079982969
95.1410324858535
94.976678320967
94.8615178301873
94.7979662946878
94.8312817957669
94.7866286169042
94.5577052060913
94.422511978231
94.4030442371628
94.2936034755932
94.1964106950118
94.104791176827
93.9803976523052
93.8291799411902
93.7310442149184
93.6477593011513
93.5286864187826
93.3500861688992
93.1732784826802
93.0404261596204
92.9564071099368
92.951891091208
92.8605116672614
92.7940671277614
92.6499132919269
92.4432843972473
92.3405680747654
92.2073130342143
92.0224014741955
91.762337334501
91.5630643207055
91.684025878727
91.7918938960854
91.5708100540697
91.3531212554853
91.3560164243073
91.3205653438009
91.1089235212288
90.9102622615489
90.7977098138185
90.62705922745
90.4674112909525
90.5097277037241
90.4684046536916
90.3105995555991
90.1885597389786
90.0477139068918
89.9041024299787
89.8207849605182
89.7623290110141
89.5596914921019
89.3132620573465
89.2448275740884
89.1524057865399
89.0406034452301
88.9573619288993
88.8333583609518
88.718743752005
88.6150993330695
88.5306568092255
88.4093566831185
88.3022502065233
88.2979875967749
88.2676745160055
88.2203747010799
88.1820514438213
88.1151302940458
88.0604211878234
88.010301050977
87.9663392417031
87.9200995016253
87.8245162884274
87.7979887858392
87.8169035806435
87.7619802672895
87.698023507442
87.6552066501732
87.6708355893196
87.7557407986757
87.7954807304052
87.7059363196584
87.6018988254658
87.5035125337123
87.3723818814326
87.3389678309454
87.4223329762157
87.4680436564153
87.274554980267
87.0439030758153
86.9526328412904
86.8927873049853
86.8224351040766
86.7416416219389
86.6326596740958
86.5191808050063
86.3605013946385
86.1811937142168
86.1831359050224
86.2120678197947
86.0876174059431
85.8929270491175
85.7640452901799
85.7546878427328
85.6916133452233
85.5736631466745
85.5442386285114
85.4674807990952
85.2228025900452
85.063353298025
85.0432257120337
84.9439466311565
84.7652556211052
84.6442285743869
84.5225740588948
84.384836304037
84.3504534522905
84.3496043049743
84.2497349420821
84.1189764397276
83.9030526537484
83.6881985025508
83.6187882858989
83.5979946693578
83.5358488080217
83.4120333842176
83.2803415222788
83.202357201291
83.1553055943589
83.072757700337
83.0072070692145
82.9714421960369
82.8753309788418
82.7954286575097
82.7919447687563
82.6817710581689
82.5312035360543
82.510331174129
82.4980023467108
82.4354698570578
82.334129680865
82.2339227903615
82.2289005243783
82.3199175779234
82.2975914440583
82.1586335582577
82.050290627819
81.9959236792903
82.0255579090123
81.9756464874554
81.9249397338329
82.0608273624175
82.1241527726602
82.0425241540687
82.0230042215861
82.0482477703897
82.0760023421115
82.2367898307692
82.3977063166329
82.4592317065453
82.5066995249712
82.6092063604062
82.7010725555416
82.7629767081992
82.888400059157
83.0043999358716
83.1419891604856
83.2167747928944
83.2323969993844
83.3486689509271
83.4770691882935
83.6614901772791
83.8729722247464
83.9892763680552
84.102514570644
84.2633678948444
84.4000089785153
84.4700925986158
84.5233085053396
84.6162610323045
84.7755501935285
84.9328240187792
85.0411438732451
85.1397952889513
85.221451955388
85.321192589208
85.3907359599925
85.5220122471227
85.7064350640691
85.8399831463258
85.8823052360275
85.9279924527845
86.0131136030994
86.0880346366412
86.1954638885812
86.3296845295889
86.3954497605351
86.4184237355233
86.4081846208757
86.4522326425074
86.5106564493233
86.4840826242501
86.5104021872384
86.5005875686243
86.3765667207935
86.32943677379
86.3125093612636
86.3066051310732
86.4156725807102
86.5272747200323
86.5748218484034
86.6723728032227
86.7752000465622
86.8720304660768
86.9462413659007
86.9782979096062
87.092365047371
87.2418269101005
87.3639352569624
87.5081262329593
87.5855736384278
87.6702728348116
87.7644575133296
87.9145059397451
87.9964703811713
88.020023693238
88.1515929935454
88.196301948653
88.2080669297292
88.3555129101309
88.5413114846438
88.6412169147507
88.6371884852608
88.6630423110552
88.7924907663065
88.90750068804
88.9014637031479
88.906146630514
89.0178193715636
89.1333122506052
89.1953718607152
89.2126498867884
89.2087206451361
89.2715201507792
89.3897650226249
89.4831250201331
89.5322967264829
89.6408465263369
89.784839084106
89.9081557458738
89.9588176608602
89.9560960755193
89.9800601945439
90.0618814315943
90.1500772031572
90.2613077502834
90.3657285368612
90.4499534906172
90.5537327074994
90.5960084794301
90.6109859101905
90.6954795977034
90.7613017376627
90.824085855499
90.8709394261218
90.9259537976452
91.0483925224232
91.2243944679972
91.3589865861776
91.4016964986865
91.4113870741184
91.4557107179839
91.4959539305875
91.5003400066993
91.5166629016531
91.5858242236014
91.6496762335964
91.7313101931856
91.8480143073061
91.9708849787564
91.9998649149019
91.9834937511188
92.0334026495462
92.1031897358761
92.1768248588794
92.2596583430268
92.2670193698406
92.2740933499441
92.3174350191645
92.3840569923345
92.4600428293314
92.4662399948102
92.4850055439411
92.5727535606103
92.6292417683634
92.6716761911913
92.6995453748897
92.7347958445482
92.7928750786889
92.8263231991507
92.8358323085851
92.924386489658
93.0023910121166
93.0485057918634
93.1047379863701
93.0860352560559
93.0822857182653
93.1446236452371
93.1899632063298
93.2371005880176
93.2359710825807
93.2154821490151
93.2548432443908
93.298377089331
93.3142056506899
93.3744284574542
93.4195696680454
93.3803176341049
93.3693657474653
93.4841319914832
93.5886008134659
93.6289101045836
93.5837068084759
93.5593520660953
93.6427453435801
93.7223108520965
93.7141250263932
93.7059231718689
93.7134642690107
93.7659467749661
93.8340020845547
93.8586662792696
93.8917736710494
93.9305116636545
93.9204551584893
93.9012914305511
93.9255487910708
93.9800267228027
93.9937660575109
93.9835606585454
94.0139546981499
94.0964637222084
94.0914391916644
94.0420007237523
94.1165163618055
94.1611394392983
94.092371659084
94.1349717379793
94.2145490551438
94.2550568060306
94.2687830629688
94.2389020499399
94.209154006328
94.2419269258001
94.3128623915732
94.309186775697
94.2938372584544
94.3504663810731
94.4339290695258
94.4581061729378
94.3582324415725
94.3630380868146
94.4490472868093
94.4197748269168
94.3881797588167
94.4596095613684
94.509477449351
94.5180027367398
94.5335426105742
94.5605511796868
94.5924270090437
94.5900011273899
94.5226804161622
94.542333447459
94.6230845047242
94.6416473961466
94.6384386516361
94.6662590392691
94.6874129815978
94.6437112516023
94.5861213653488
94.6330061194513
94.7291473665968
94.7540253288647
94.7282258673344
94.7217978144163
94.6927947721398
94.6746906313668
94.7199103713596
94.8067686662629
94.8400222400436
94.8167596417317
94.8416909508857
94.8765688982825
94.8430777938386
94.8499061961209
94.8650677279337
94.8643678321099
94.8519203690828
94.837135684022
94.9096554720803
94.9854507814927
94.9731164578116
94.9387449757628
94.9317175523524
94.9682313451376
94.965622108902
94.9388032426389
94.9644007774618
95.0247236205392
95.0172218954922
94.9649917568396
94.9497228870434
94.9958681288224
95.0668350174779
95.1042904053256
95.0761668471711
95.006383726933
94.978741915764
95.0303949104286
95.0870606184732
95.1173183723678
95.1149937386053
95.0808941637339
95.076850534676
95.0847550448754
95.0314895448785
95.0530637555782
95.1254565407741
95.143323232137
95.1590498595586
95.1715388690293
95.1606545757174
95.1680867794021
95.1779927183244
95.1567980944745
95.1726656618503
95.2274954368951
95.2401966123352
95.2236979171322
95.2067749827667
95.2424357744209
95.2492860879451
95.2202310218066
95.2138779425396
95.2060120879043
95.223007434608
95.2613032410498
95.2663231650394
95.2666988709246
95.2749703267264
95.2855910053747
95.2676074717763
95.2469135334664
95.2916370214252
95.3509278827501
95.324580967949
95.281885157425
95.2814346048726
95.3083308212339
95.3379757974826
95.3541226935592
95.353475449094
95.3501419916307
95.3073241543132
95.2792620067137
95.3117233247052
95.3531307609267
95.3423382711034
95.3460190119293
95.3552336002845
95.3340879824051
95.3489591874808
95.3720499679627
95.3595354088167
95.3595127777662
95.3669459110092
95.3840010846801
95.4011479747888
95.4175731895851
95.4252463246401
95.4386684784911
95.4630631215651
95.4418441165189
95.4088615208722
95.4374278491226
95.4677830798721
95.4523883581396
95.4389803189652
95.4319663362186
95.4173314406014
95.4295654071086
95.4585473347866
95.4665993214394
95.4558560392963
95.4521278594208
95.4447135562999
95.4628719513541
95.4650327998134
95.4178495389133
95.4378672590622
95.4861277856182
95.4589393182675
95.437771019556
95.4506855657276
95.4552149705387
95.4828689282914
95.5263071485277
95.5375162923939
95.5020334234196
95.4455135769821
95.4509421045749
95.5173102396939
95.551008844878
95.5319092771389
95.5288081413591
95.5205063715523
95.5229822737329
95.5444764403962
95.5139341111029
95.4485321849723
95.4349754437687
95.4293222629692
95.425299716097
95.4470473721842
95.4516808697193
95.442828280638
95.4598222813787
95.4970232110128
95.5506809800987
95.564259193617
95.549492404607
95.5239874363734
95.5104069852769
95.5083656741561
95.513203693159
95.5536008019461
95.5458809953158
95.5331576603221
95.5926892208613
95.6206049893414
95.6279337301634
95.6298000332887
95.671384713143
95.6853851863117
95.618612944283
95.5757135308368
95.6499291844136
95.7717973829946
95.7567777071315
95.6495461949652
95.689479133853
95.7662220067423
95.6970699304512
95.6200318075249
95.6659141051779
95.7623395983795
95.814277008119
95.8308242895986
95.8404342850688
95.8460853624494
95.8724273726524
95.8517894459354
95.8047122288339
95.8124580820717
95.7982531546296
95.8129656352914
95.8919513950619
95.8893743970751
95.8816754418055
95.8897551473574
95.8934391864664
95.8748410105582
95.7759854980056
95.7595094851523
95.8659276888685
95.8551583348509
95.8390031238523
95.9017437348338
95.8854546164064
95.8480122017819
95.8533394965607
95.8460544454689
95.8972844836007
95.9310171540245
95.9473597532922
95.9967297722466
95.976990583468
95.8772916585753
95.875693636891
95.916439676965
95.9108011441228
95.9332604825303
95.905981148975
95.9275572653181
96.1002762927412
96.0527348801875
95.8666577198135
95.880179135737
95.9558204252884
95.9509793446406
95.9537049608654
96.0039565309399
96.0571165257762
96.022394864435
95.9413390809224
95.9476930263325
95.9938014479754
96.0380523482227
96.0491937138529
96.0173824532319
96.0232752954916
96.018952491196
96.0122557868731
96.0065737975974
96.0399996844131
96.0621612224844
96.0291618625099
95.9849662092625
95.9987310806866
95.9609976090857
95.9024691599521
95.912513132406
95.941431274919
95.9387785233262
95.9175027814532
95.9452671798391
96.0197272043865
96.0366556379251
95.9578123407538
95.8921709810119
95.8630236729167
95.8420824360908
95.8952764123469
95.9752390221144
96.006459796485
95.9526065847416
95.9634811946708
96.0877375898351
96.0797169563868
96.0435025786906
96.0570122599987
96.0066593912152
95.9678669918699
95.9750882971718
95.9677974589799
95.9505820447898
95.9477624347989
95.9863139134863
95.9768838944294
95.9375847042383
95.9912587259348
96.0448292694417
95.9062479744479
95.8856080398282
96.0534753342647
96.0562626407996
95.9699485873387
95.9427786642839
95.9454171355718
95.950466815125
95.9720130093262
95.9722255826518
95.9559048542898
95.9505990373552
95.9829032941627
95.976095306091
95.9535171762359
96.0207955859419
96.0684138611838
96.0507032236819
96.0551679892726
96.06636990445
96.1499573939999
96.234976947268
96.189952947277
96.1788633108307
96.1511249100684
96.0091331899705
95.8671227639791
95.8161405131039
95.8010037420511
95.7613044735888
95.7866788640701
95.8774942787702
95.9057679593414
95.7707851610956
95.6742800219873
95.7705768759225
95.8905576461379
95.885788026447
95.8395543744303
95.8157438428079
95.7819222163713
95.8052951937381
95.8196869368532
95.7943482787799
95.7042741077165
95.5375233936815
95.4284397442496
95.3900906245121
95.3824024521341
95.4953117326933
95.6437839259169
95.6088269531593
95.5583799831417
95.4979253733105
95.4185398007479
95.4938933874123
95.635709063305
95.6375714396641
95.5793433098445
95.5560562889546
95.545865265844
95.5611406825514
95.5728227636829
95.534226149116
95.5339566469139
95.562504729439
95.5793786840274
95.5646972991508
95.5634941372952
95.6998309170804
95.8488120694788
95.8496880037057
95.863060233712
95.8724341994025
95.843387788775
95.9532181943693
95.959263784768
95.9435212376653
96.0988701968843
96.114904881976
96.1016293486997
96.2165040823436
96.2460909254082
96.052779849568
95.966140470458
96.0792711806818
96.2369610496
96.3194786357338
96.2740951187959
96.3092286242045
96.300355677469
96.2898141084435
96.1915528283803
96.1586009873706
96.2394199831834
96.235300005494
96.4202819344598
96.5251928928513
96.4076354846504
96.4235870589596
96.4711324923106
96.5075012861533
96.6221854552992
96.6088376508512
96.532578136564
96.627826581378
96.8566455334449
96.8549564404763
96.8186649547519
96.8758992203318
96.8635848845995
96.8396323656645
96.749894314873
96.6035486434495
96.7156561735714
97.0669520054212
96.9549994821966
96.6932844670705
96.9391625184808
97.1225257416715
97.2237027864276
97.4064863599081
97.324120243257
97.4605067230712
97.5521784053114
97.4511763764511
97.453159524044
97.3887801645464
97.5375240131657
97.6381288001947
97.4236522717523
97.4500428438577
97.6793239137516
97.7511196851765
97.9077870314429
98.0776995076689
98.0899184307333
97.9360265262578
97.4651334703826
97.2058600643917
97.1096186567603
96.9796231667578
97.090998257834
97.0548528514671
96.8726842442596
96.9146970865547
96.8637875505555
96.5563365480875
96.5421560900627
96.730890311315
96.6725687603819
96.5497873047301
96.4513003002648
96.3585367309905
96.2730728078141
96.2004459276395
96.0629964288957
95.9488261503008
95.9839944748817
96.057418867103
96.1971418137358
96.1949382259205
95.9842826016162
96.0138829560478
96.1329061978864
96.0464646975198
95.8958659927362
95.8281943137493
95.8985875494899
96.0583203057951
96.2069019205051
96.3176381957809
96.3538890089972
96.2082263718229
96.1580087368972
96.2074607790069
96.2015949377821
96.3490088515507
96.4459637456128
96.284314111519
96.2541552002966
96.3560596186083
96.3349432440422
96.3408387150068
96.2889504413951
96.275663388858
96.3257136947837
96.2410367686555
96.3945094801767
96.6859803722346
96.6810355523685
96.5968961515863
96.5407879127777
96.5349924319481
96.8786150474281
97.2505842116946
97.1781145329749
97.1277010494081
97.1716686845935
97.1765441109264
97.2259370870152
97.3187182244977
97.4984035183923
97.4602583040564
97.2582836014633
97.3254059528089
97.4365972386333
97.2759287604138
96.974771624479
96.9798917259196
97.1899972347206
97.5890308549997
97.7257237103259
97.5426714917842
97.4565754830137
97.5472428774836
97.5017292540895
97.2256000561418
97.0687127680381
97.0389657789211
97.034228294758
97.0747920278823
97.0713146605549
97.0284174949685
97.0360221096817
97.0515289086478
97.1104667733086
97.197053216611
97.1874693402023
97.2666793424148
96.9870845810201
96.8739199291636
97.418365946406
97.7182481077531
97.7151928687037
97.614716231396
97.465305290255
97.4668572926229
97.3771084356731
97.2932502865986
97.1558601784912
97.0088286845988
96.997501540746
96.9736793373275
96.937164108045
96.9084525545928
96.7551721440373
96.682568005047
96.8274976908297
96.9034432125764
96.7471088185953
96.674995015642
96.766844492455
96.614516501584
96.2703322408355
96.2113393755543
96.3937668311178
96.4001596190353
96.4087453234046
96.5222036512539
96.4540192107737
96.3517932674825
96.4020200357843
96.3668538063674
96.3021497171352
96.2797509254757
96.3196020413369
96.3054787172241
96.2166508051129
96.2490193939486
96.3313123428771
96.2964166179363
96.2627719404543
96.2639139769806
96.2479423375063
96.180964978231
96.0747610110022
96.1031899399245
96.1081079733424
96.0405465338959
96.1007043446249
96.1344495602251
96.1342577413548
96.075880291736
96.0492591791104
96.136095873788
96.1591261961737
96.0759262544334
95.9968512294052
95.9169517763048
95.9049433299917
96.0153832906992
96.0477110039636
95.9579518520972
95.9159739536251
95.8724133207126
95.8495752830479
95.9295486584534
95.9598265506956
95.9248972472261
95.8904093971513
95.8234043136129
95.762715446808
95.7321675801809
95.8654401287072
95.8931184749151
95.7993282997712
95.8112341478793
95.8642252020147
95.818311432096
95.7774851668776
95.8186163732398
95.8866634689029
95.8000109915713
95.803872314952
95.8328227726573
95.7702424348471
95.8005974716648
95.889862435487
95.8531992756755
95.7168692650796
95.6891044858486
95.7879749072358
95.8358536481528
95.7909464955739
95.7255718681084
95.6780430934752
95.7237076607156
95.8240661523052
95.7348905801571
95.5749284115508
95.595254779359
95.7947947834118
95.8161446563027
95.7245498366643
95.6487169733444
95.6851923740376
95.7239489679587
95.7746591839267
95.8117522910898
95.7161385809096
95.5426466802634
95.5178414631499
95.7845720796504
95.8273650960943
95.7923701976604
95.693230495321
95.5921538250477
95.6695167607458
95.8009387227485
95.7552440624987
95.7163127359002
95.6083467014838
95.4633559047954
95.594778573149
95.7932475282558
95.7993977207288
95.6717274190947
95.6163434044807
95.6310252361852
95.6583516780991
95.5392953610605
95.2826016009028
95.5126695987991
95.7347573558827
95.6676143405364
95.5704359180605
95.5338334417649
95.5234955758275
95.4698520998974
95.2825356580509
95.1470353325546
95.4656235442684
95.6837493286397
95.6277357093516
95.4647213202279
95.3593478554792
95.3066468634451
95.2905832626121
95.2527571289045
95.030534193299
95.0685068099097
95.1706890205524
95.1077859037136
95.2486624311486
95.1525113856316
94.9592390567523
94.7097561954876
94.4239178783429
94.2451070034042
94.6811587300126
94.7130525088086
94.4208088556591
94.1189816327048
94.0258547551467
94.1090931030525
93.9157994044103
93.7843936897062
93.7767843877987
93.5383536689262
93.1335144099065
92.834167102531
92.5621909756831
91.9622274345534
91.1558856556558
90.4150959931659
90.4663962060782
90.925542995233
90.500702806838
89.9804665310977
90.0779982177514
90.1187005784957
89.6960351228995
89.0743948919585
88.4644414256727
88.1405739840657
88.4714357860556
88.4839840423172
88.0946615860046
87.616237008693
87.2359276924378
86.8017470328941
86.2361981601154
85.7271631880466
85.0433303176788
84.3976454218837
84.3568039963679
84.3756014761904
84.1341538789036
84.0854345605415
84.44826869216
85.1250401393593
85.8549063697936
86.6077025999435
87.3892284240716
88.1509999742341
88.7835150391641
89.3276337246514
89.8724160967231
90.3584876735487
90.7701692611448
91.1359177638144
91.4583017508084
91.7759681865945
92.0228867307909
92.1255780064187
92.0946227649323
92.2210772390263
92.8219356183413
92.9664980448244
92.7380385210959
92.8664902852779
93.2865805105106
93.3556955470737
93.2568087674722
92.8906133059842
92.4353592665228
93.2791562220589
93.8488905660751
93.6999697736145
93.6497509240625
93.6323930155218
93.7464532616259
93.7114855887972
93.5151985757835
93.3899407447886
93.3904857626294
93.8774911889407
94.2168166342013
93.9856577549854
93.7815825700803
94.0622226185979
94.1523851751995
94.0473644842583
93.9747256012381
93.9974290165488
93.9308031010561
94.1039598575906
94.2796856089003
94.1914781692854
94.3373817387224
94.3713399116867
94.1953642403985
93.8736559187548
93.6736981341642
94.3623321143648
94.780177834951
94.5213299151598
94.1762567970673
94.0842812088518
94.3564947551662
94.6022352331198
94.4174579663067
94.1061352745375
94.2411260653667
94.5110888320772
94.5814735632261
94.513248442762
94.4909763252471
94.5334238846224
94.4130691689587
94.2398992869192
94.2218346614859
94.4645733044249
94.7532717570461
94.631742178519
94.4251460650279
94.4686124458543
94.6788346018322
94.4954006765905
94.0924534150145
94.0225285784529
94.6318951980761
94.7464011134773
94.5073342819374
94.3110807526334
94.3164458483167
94.4897291776516
94.5668512255216
94.5497585458192
94.4395455797908
94.2577915878531
94.2772209613231
94.5896224138156
94.5492463595082
94.3922054429812
94.40611124853
94.5192154008529
94.4964857931001
94.4292948991526
94.3521412096249
94.2305543970104
94.4549964848855
94.6766468577209
94.615366916776
94.5045747382147
94.500155039075
94.5336195941783
94.5238391941765
94.5578287893268
94.6278662877164
94.5927088647882
94.5010536374919
94.545229718611
94.5748856851496
94.6691915896389
94.7402243454338
94.6501419682747
94.5471794818913
94.6543798225406
94.7931869775942
94.7545509085356
94.7213454883229
94.6883345278192
94.6846974850397
94.6826276728539
94.7351936976453
94.7937921658898
94.7840493194229
94.7674887142851
94.7464837545895
94.6851174292951
94.7233132975016
94.825194466112
94.8337965258166
94.7835788476368
94.7545421214009
94.7750242936899
94.7983698151122
94.8044084741338
94.8220960675481
94.8285820927132
94.791853024898
94.7345110986411
94.7219765584967
94.7719658038137
94.8187392137969
94.8246938143835
94.8007862882601
94.8099282949558
94.8058161915271
94.7951903724698
94.7988438899417
94.7967967048447
94.7705295735593
94.7632801987923
94.8017541658635
94.8027286498212
94.7815034369368
94.7848275416063
94.7506882758456
94.716889217535
94.7171245353619
94.7299911140333
94.7263654325339
94.7247332039353
94.7307040622792
94.7258922741683
94.7259019797172
94.7081391974624
94.6783295368621
94.6600669547985
94.6459463331718
94.6239665059938
94.603749732129
94.5792894537979
94.5549322826981
94.5305552279552
94.4870154910441
94.4429776167001
94.401672519523
94.3565092173928
94.3129989699165
94.2666596896507
94.1913393275128
94.1255244153955
94.069352295621
93.9948714883449
93.9253188507827
93.8496459072957
93.7354823980765
93.6294075772822
93.5346328087295
93.4216862056967
93.3007565419714
93.1847847738254
93.0770656303845
92.9500780779965
92.8031134430995
92.6570395421442
92.5075827957761
92.340514351363
92.1785718747872
92.0193236824378
91.8366576064487
91.6620722167509
91.4731635019108
91.2681425082459
91.0590373068058
90.842876129987
90.6413269761425
90.4400339383571
90.2157963691179
89.9691847004149
89.7108005303359
89.4516131594785
89.1980915111634
88.9664088333596
88.7082720305653
88.4307173638973
88.1500498752085
87.836612843299
87.5313320012723
87.238582655101
86.932021657967
86.6008485848198
86.2664811996722
85.9522514019585
85.6089115000714
85.2673506443685
84.9332276076214
84.6065978514623
84.2794627465193
83.9544396104977
83.6472718809794
83.3440181323393
83.0169393870969
82.7080133279802
82.4090296066206
82.1307806524719
81.8639061030896
81.616472555837
81.3641671274994
81.1146792847231
80.8721984009408
80.6371909788103
80.3998590746573
80.1844859682446
79.9543084631081
79.7296696740566
79.525449038851
79.3551897427924
79.2148629734664
79.0826615211726
78.9836897137761
78.9155999849906
78.8333864817439
78.8016727974507
78.7897568921966
78.750278280298
78.708708656614
78.6754268037608
78.6358072344369
78.623344012132
78.6350107302408
78.6448768466111
78.6022978905435
78.6067957882899
78.6273427340293
78.6591930759585
78.7078358180022
78.768971672543
78.86953661353
79.0408536151211
79.2102482648319
79.387094100241
79.5995022267248
79.8407958242792
80.1005622772667
80.3751390783463
80.666534963489
80.9378037689722
81.2056420636178
81.5322718230014
81.8651991906743
82.2062853515551
82.5481214304121
82.9036008773331
83.2601843313811
83.6499819851618
84.0520324175988
84.4413797549157
84.8161088649787
85.1858097664658
85.5772307314657
85.9714396688419
86.3171592411581
86.6417616587402
86.9197871501435
87.1889914488559
87.4585136907618
87.7053713242293
87.8958273075099
88.0530620345292
88.223784476431
88.387512285907
88.4951502810621
88.6007460950993
88.7365735597633
88.8450320872516
88.9222328120981
89.0040043504611
89.0921779503938
89.1722424363446
89.2442099476917
89.340880402257
89.4046224161076
89.420521063078
89.4576074963937
89.5087491855508
89.572557846974
89.6505691775843
89.6687919360811
89.6534150106036
89.694273407205
89.7804512673532
89.8330950868011
89.8258028856016
89.7913127610244
89.8838060982971
90.1154620461924
90.3294173060364
90.4915107270057
90.6131703927507
90.7207507837559
90.816456760697
90.9236555316759
91.032248740941
91.1421725395095
91.2643760485253
91.349790435944
91.4084562996136
91.495030262323
91.5743300693791
91.6317884865722
91.7025989283422
91.7715894354082
91.8211953465558
91.9057068806217
91.9168158818783
91.9008694186082
91.9576643345586
92.0173170385887
92.0675259227252
92.0975475524336
92.1193340881494
92.1504732606372
92.170567826504
92.2097477214707
92.2564670007324
92.2746950609055
92.2821864696993
92.3200991155623
92.3812006019811
92.4062197368594
92.4356008737436
92.4657558337561
92.4868740566044
92.5255691089978
92.5783851260895
92.5706255141915
92.5548426750016
92.574152407021
92.5863298115996
92.6040781510977
92.6419185311664
92.6699092095683
92.6828901437653
92.6874665727686
92.7335330110712
92.7637329873279
92.7376920128416
92.7361232625418
92.7870845172005
92.7883921311166
92.7767672849037
92.8036536069469
92.8439307410067
92.870544872332
92.8667114534592
92.8735742834551
92.8680812610442
92.8644538600517
92.8933355969358
92.9020811429366
92.8790261881531
92.8627448941425
92.8723396901437
92.8827510447135
92.8828884490431
92.9150991048373
92.9121375949026
92.8848712222673
92.8803980529058
92.8913208643105
92.8819095361156
92.8466897463949
92.8408218990455
92.8843425750375
92.9030930439046
92.8708049093888
92.8389332567485
92.8568315411164
92.8810542761153
92.8899918047115
92.8711513553247
92.8844963721332
92.9233019189692
92.8933931046511
92.8565408488169
92.8300449067004
92.8304268542679
92.8243160508346
92.8143865611045
92.807675372865
92.8255264166559
92.8005650522429
92.7499218337384
92.7039821400874
92.6996397945526
92.7520566015388
92.7711968318934
92.7106936904994
92.6629287554731
92.6274465186314
92.6201145465226
92.6038386853418
92.5800280715434
92.584056143797
92.5705127061387
92.4991647116362
92.4593775796469
92.4711818839807
92.4731544458077
92.4400605467953
92.378490895221
92.2928511717751
92.2870929643111
92.3320807752839
92.2792589045035
92.2057935953661
92.1757160911561
92.1447773214863
92.0696842836431
91.9796998616509
91.9768281447055
91.9754864535259
91.9184906549753
91.8439575091882
91.7697498388175
91.6810883026548
91.6358662894118
91.6060505896405
91.5336993343872
91.4505881217606
91.3607749404936
91.221947936579
91.0962265310615
91.0394543222359
90.9562341765327
90.8220478352692
90.6946648389226
90.6099635255428
90.5187813641283
90.3603608857896
90.2375535192255
90.1266150062822
89.9851767357941
89.836828912668
89.6907378583796
89.5193747491805
89.3840756046427
89.233937619736
89.1069699642779
89.0236458018021
88.8597853704933
88.6635061910406
88.5359748514064
88.4063237354998
88.2630787350243
88.1586710367315
88.0080579316617
87.8210708197629
87.7200165658814
87.593212783272
87.460779346156
87.2876601665542
87.0983635230197
86.9263045630957
86.6853758394325
86.4110660783305
86.1478609181696
85.7698833769787
85.4507370320557
85.14697388171
85.0767719705561
84.8055746794474
84.3516035780761
84.073484290549
83.8697809607837
83.6182648796641
83.3384561394657
83.0271486285075
82.7756845709605
82.6006489678652
